Data from test_V78500241_671.txt Node
Date: Fri Mar 25 15:46:26 CST 2022
User: usil
Spectrometer: V785-0024
Trigger mode: 0
Integration Time (sec): 4.000000E-1
Scans to average: 1
Nonlinearity correction enabled: false
Boxcar width: 0
Storing dark spectrum: false
XAxis mode: Wavelengths
Number of Pixels in Spectrum: 1024
>>>>>Begin Spectral Data<<<<<
801.071	27781
801.214	27720
801.356	27504
801.499	27580
801.641	27222
801.783	27348
801.926	27431
802.068	27462
802.211	27252
802.353	27230
802.496	26975
802.638	26982
802.78	26990
802.923	26925
803.065	26994
803.208	26853
803.35	26940
803.492	27089
803.635	27077
803.777	27074
803.919	27272
804.061	27507
804.204	27252
804.346	27036
804.488	27081
804.63	27058
804.773	27222
804.915	27157
805.057	27252
805.199	27203
805.341	27336
805.483	27412
805.626	27332
805.768	27272
805.91	27329
806.052	27291
806.194	27241
806.336	27530
806.478	27458
806.62	27291
806.762	27496
806.904	27656
807.046	27907
807.188	27770
807.33	27804
807.472	27857
807.614	27732
807.756	27690
807.898	27458
808.04	27583
808.182	27424
808.324	27614
808.465	27701
808.607	27808
808.749	27987
808.891	27994
809.033	28109
809.174	28048
809.316	28002
809.458	27945
809.6	28032
809.741	28162
809.883	28070
810.025	28322
810.166	28257
810.308	28329
810.45	28192
810.591	28287
810.733	28048
810.875	27892
811.016	27945
811.158	27755
811.299	28063
811.441	28215
811.582	28143
811.724	27945
811.865	27911
812.007	27873
812.148	27945
812.29	28048
812.431	28166
812.573	28428
812.714	28390
812.855	28367
812.997	28634
813.138	28736
813.279	28618
813.421	28451
813.562	28428
813.703	28356
813.845	28287
813.986	27816
814.127	27671
814.268	27542
814.41	27778
814.551	27610
814.692	27667
814.833	27526
814.974	27549
815.115	27614
815.256	27523
815.397	27549
815.539	27431
815.68	27458
815.821	27329
815.962	27466
816.103	27523
816.244	27260
816.385	27279
816.526	27272
816.666	27142
816.807	26891
816.948	26975
817.089	27039
817.23	27112
817.371	26872
817.512	26940
817.653	26952
817.793	26705
817.934	26849
818.075	26971
818.216	27085
818.356	26906
818.497	26788
818.638	26598
818.778	26735
818.919	26724
819.06	26864
819.2	26762
819.341	26868
819.481	26826
819.622	27066
819.762	27252
819.903	27211
820.043	27199
820.184	27123
820.324	26975
820.465	27081
820.605	27195
820.746	26910
820.886	26838
821.026	27112
821.167	27169
821.307	27135
821.447	26921
821.588	26902
821.728	26796
821.868	26587
822.008	26480
822.149	26400
822.289	26328
822.429	26142
822.569	26092
822.709	26115
822.849	25959
822.99	25951
823.13	25898
823.27	25944
823.41	25685
823.55	25731
823.69	25723
823.83	25719
823.97	25613
824.11	25506
824.25	25510
824.389	25548
824.529	25674
824.669	25632
824.809	25521
824.949	25826
825.089	25849
825.228	25780
825.368	25468
825.508	25540
825.648	25464
825.787	25582
825.927	25567
826.067	25400
826.206	25468
826.346	25499
826.485	25441
826.625	25506
826.765	25529
826.904	25476
827.044	25088
827.183	25293
827.323	25046
827.462	25206
827.601	25171
827.741	25145
827.88	25084
828.02	25171
828.159	25110
828.298	25255
828.437	25164
828.577	25148
828.716	25152
828.855	25004
828.994	24920
829.134	24867
829.273	24795
829.412	24810
829.551	24802
829.69	24890
829.829	24741
829.968	25091
830.107	24958
830.246	24977
830.385	24825
830.524	24726
830.663	24779
830.802	24681
830.941	24486
831.08	24426
831.219	24494
831.357	24551
831.496	24650
831.635	24399
831.774	24319
831.913	24342
832.051	24338
832.19	24194
832.329	24285
832.467	24273
832.606	24182
832.744	24102
832.883	24117
833.022	24060
833.16	24167
833.299	24190
833.437	24076
833.576	24232
833.714	24235
833.852	24178
833.991	24300
834.129	24251
834.267	24296
834.406	24178
834.544	24296
834.682	24133
834.821	24091
834.959	24251
835.097	24197
835.235	24338
835.373	24190
835.511	24174
835.65	24091
835.788	23931
835.926	23843
836.064	23980
836.202	23855
836.34	23988
836.478	24163
836.615	23973
836.753	24087
836.891	24064
837.029	24015
837.167	23950
837.305	24011
837.443	23843
837.58	23832
837.718	24038
837.856	23904
837.993	23893
838.131	23851
838.269	23691
838.406	23737
838.544	23684
838.681	23554
838.819	23493
838.956	23280
839.094	23406
839.231	23551
839.369	23467
839.506	23722
839.643	23649
839.781	23277
839.918	23330
840.055	23288
840.193	23490
840.33	23273
840.467	23212
840.604	23330
840.742	23547
840.879	23128
841.016	23212
841.153	23147
841.29	23330
841.427	23170
841.564	23193
841.701	23349
841.838	23132
841.975	23189
842.112	23174
842.249	23166
842.385	23071
842.522	23166
842.659	23109
842.796	23075
842.933	23067
843.069	22938
843.206	22961
843.343	23041
843.479	23052
843.616	22995
843.752	22748
843.889	22793
844.025	23010
844.162	22786
844.298	22866
844.435	22748
844.571	22782
844.708	22835
844.844	22839
844.98	22938
845.117	22957
845.253	22687
845.389	22580
845.525	22618
845.661	22626
845.798	22618
845.934	22592
846.07	22500
846.206	22535
846.342	22664
846.478	22428
846.614	22303
846.75	22249
846.886	22268
847.022	22242
847.158	22238
847.294	22272
847.429	22299
847.565	22246
847.701	22573
847.837	21998
847.972	21827
848.108	22010
848.244	22131
848.379	21850
848.515	21876
848.65	21922
848.786	21975
848.921	21835
849.057	22010
849.192	21998
849.328	21823
849.463	21835
849.598	21747
849.734	21835
849.869	21652
850.004	21648
850.14	21625
850.275	21694
850.41	21481
850.545	21473
850.68	21614
850.815	21462
850.95	21526
851.085	21766
851.22	21789
851.355	21682
851.49	21515
851.625	21530
851.76	21507
851.895	21435
852.03	21431
852.165	21648
852.299	21663
852.434	21637
852.569	21755
852.703	21591
852.838	21641
852.973	21606
853.107	21625
853.242	21629
853.376	21481
853.511	21291
853.645	21313
853.78	21564
853.914	21496
854.048	21397
854.183	21374
854.317	21500
854.451	21511
854.585	21488
854.72	21515
854.854	21515
854.988	21359
855.122	21374
855.256	21283
855.39	21431
855.524	21606
855.658	21530
855.792	21397
855.926	21374
856.06	21393
856.194	21545
856.327	21408
856.461	21310
856.595	21386
856.729	21462
856.862	21515
856.996	21583
857.13	21473
857.263	21568
857.397	21523
857.53	21351
857.664	21568
857.797	21424
857.931	21481
858.064	21542
858.197	21587
858.331	21405
858.464	21332
858.597	21256
858.731	21408
858.864	21378
858.997	21420
859.13	21374
859.263	21367
859.396	21526
859.529	21313
859.662	21382
859.795	21428
859.928	21363
860.061	21583
860.194	21606
860.327	21485
860.46	21378
860.592	21523
860.725	21576
860.858	21614
860.99	21504
861.123	21416
861.256	21443
861.388	21504
861.521	22055
861.653	21321
861.786	21306
861.918	21367
862.05	21275
862.183	21481
862.315	21287
862.447	21386
862.58	21226
862.712	21146
862.844	21085
862.976	21142
863.108	21123
863.24	21485
863.372	21028
863.504	21039
863.636	21214
863.768	21173
863.9	21150
864.032	21127
864.164	21055
864.296	21150
864.428	21302
864.559	21245
864.691	21226
864.823	21119
864.954	21154
865.086	21127
865.217	20948
865.349	21142
865.48	21039
865.612	20998
865.743	21199
865.875	20929
866.006	20979
866.137	21032
866.269	20948
866.4	20929
866.531	20914
866.662	20975
866.793	20982
866.924	20994
867.055	21123
867.186	20906
867.317	20933
867.448	20914
867.579	20880
867.71	20914
867.841	20880
867.972	20982
868.103	21047
868.233	20929
868.364	20971
868.495	21108
868.625	21310
868.756	21317
868.886	21214
869.017	21192
869.147	21340
869.278	21272
869.408	21195
869.539	21108
869.669	21294
869.799	21249
869.929	21279
870.06	21264
870.19	21511
870.32	21443
870.45	21538
870.58	21652
870.71	21614
870.84	21709
870.97	21606
871.1	21671
871.23	21720
871.36	21785
871.489	21686
871.619	21736
871.749	21835
871.879	21835
872.008	22032
872.138	21694
872.267	21831
872.397	21656
872.526	21519
872.656	21557
872.785	21519
872.915	21915
873.044	21953
873.173	21949
873.303	21854
873.432	21873
873.561	21922
873.69	21861
873.819	21880
873.948	21903
874.077	21827
874.206	21823
874.335	21922
874.464	21941
874.593	22013
874.722	22101
874.851	22105
874.979	22078
875.108	22143
875.237	21956
875.365	21876
875.494	22040
875.623	22093
875.751	22051
875.88	21994
876.008	22207
876.136	22310
876.265	22550
876.393	22531
876.521	22641
876.65	22390
876.778	22474
876.906	22424
877.034	22394
877.162	22379
877.29	22303
877.418	22470
877.546	22447
877.674	22379
877.802	22325
877.93	22478
878.058	22329
878.185	22246
878.313	22360
878.441	22344
878.568	22086
878.696	22386
878.824	22409
878.951	22516
879.079	22542
879.206	22645
879.333	22569
879.461	22443
879.588	22481
879.715	22535
879.842	22698
879.97	22577
880.097	22188
880.224	22234
880.351	22188
880.478	22234
880.605	22135
880.732	22173
880.859	22356
880.986	22162
881.112	22147
881.239	22036
881.366	21972
881.493	21991
881.619	21835
881.746	21785
881.872	21789
881.999	21762
882.125	21800
882.252	21778
882.378	21701
882.505	21728
882.631	21728
882.757	21561
882.883	21561
883.01	21469
883.136	21374
883.262	21382
883.388	21317
883.514	21492
883.64	21488
883.766	21447
883.892	21291
884.018	21218
884.143	21329
884.269	21488
884.395	21142
884.52	21165
884.646	21055
884.772	21001
884.897	20864
885.023	21142
885.148	21112
885.274	21188
885.399	21332
885.524	21135
885.65	21161
885.775	21161
885.9	21055
886.025	21214
886.15	21150
886.275	21169
886.4	21020
886.525	21135
886.65	21024
886.775	20948
886.9	21272
887.025	21291
887.149	20967
887.274	21055
887.399	20929
887.523	20861
887.648	20842
887.773	20819
887.897	21001
888.021	21009
888.146	20864
888.27	20883
888.395	21070
888.519	21001
888.643	20853
888.767	20967
888.891	20842
889.015	20670
889.139	20731
889.263	20640
889.387	20876
889.511	20933
889.635	20857
889.759	20689
889.883	20587
890.006	20693
890.13	20864
890.254	20636
890.377	20697
890.501	20514
890.624	20377
890.748	20549
890.871	20400
890.995	20164
891.118	20119
891.241	20294
891.364	20366
891.488	20298
891.611	20267
891.734	20191
891.857	20221
891.98	20290
892.103	20339
892.226	20259
892.349	20187
892.471	19989
892.594	20229
892.717	20168
892.839	20187
892.962	20176
893.085	20214
893.207	20096
893.33	20043
893.452	20077
893.575	20313
893.697	20096
893.819	20328
893.941	20294
894.064	20317
894.186	20081
894.308	20092
894.43	20271
894.552	20256
894.674	20252
894.796	20096
894.918	20050
895.04	20248
895.161	20237
895.283	20256
895.405	20164
895.526	20180
895.648	20149
895.769	20248
895.891	20202
896.012	20199
896.134	20206
896.255	20248
896.376	20024
896.498	20172
896.619	20286
896.74	20183
896.861	20271
896.982	20492
897.103	20609
897.224	20503
897.345	20434
897.466	20343
897.587	20412
897.708	20530
897.828	20446
897.949	20442
898.07	20214
898.19	20427
898.311	20469
898.431	20320
898.552	20381
898.672	20389
898.792	20469
898.913	20408
899.033	20172
899.153	20320
899.273	20073
899.393	20145
899.513	20225
899.633	20172
899.753	20157
899.873	20138
899.993	20145
900.113	20084
900.232	20206
900.352	20084
900.472	20103
900.591	19845
900.711	19959
900.83	19811
900.95	19986
901.069	19963
901.189	19837
901.308	19628
901.427	19567
901.546	19411
901.665	19419
901.784	19533
901.904	19358
902.023	19213
902.141	19061
902.26	19069
902.379	19008
902.498	19031
902.617	18977
902.735	19145
902.854	19004
902.973	18878
903.091	18734
903.21	18696
903.328	18833
903.446	18669
903.565	18502
903.683	18384
903.801	18407
903.919	18369
904.038	18479
904.156	18277
904.274	18350
904.392	18289
904.51	18258
904.627	18201
904.745	18205
904.863	18315
904.981	18015
905.098	17840
905.216	17931
905.334	18030
905.451	17958
905.569	17958
905.686	17908
905.803	17973
905.921	17661
906.038	17760
906.155	17745
906.272	17634
906.389	17558
906.506	17490
906.623	17433
906.74	17482
906.857	17349
906.974	17497
907.091	17414
907.208	17532
907.324	17505
907.441	17353
907.557	17147
907.674	17132
907.79	17178
907.907	17094
908.023	17128
908.139	17246
908.256	17189
908.372	17075
908.488	17025
908.604	16915
908.72	16869
908.836	16953
908.952	16839
909.068	16900
909.184	16957
909.3	16923
909.415	16919
909.531	16915
909.647	16668
909.762	16603
909.878	16580
909.993	16641
910.108	16649
910.224	16618
910.339	16615
910.454	16470
910.57	16474
910.685	16261
910.8	16664
910.915	16554
911.03	16409
911.145	16291
911.259	16169
911.374	16177
911.489	16093
911.604	16051
911.718	15983
911.833	16010
911.947	15793
912.062	15785
912.176	15915
912.291	16010
912.405	16032
912.519	16181
912.633	16071
912.748	15979
912.862	16040
912.976	15633
913.09	15713
913.204	15682
913.318	15778
913.431	15766
913.545	15720
913.659	15842
913.772	15644
913.886	15545
914	15530
914.113	15584
914.226	15648
914.34	15614
914.453	15542
914.566	15644
914.68	15511
914.793	15348
914.906	15203
915.019	15112
915.132	15138
915.245	15104
915.358	15123
915.47	15066
915.583	15275
915.696	15195
915.809	15169
915.921	15298
916.034	15055
916.146	15017
916.259	15077
916.371	15169
916.483	15062
916.595	15081
916.708	14948
916.82	14933
916.932	15001
917.044	14929
917.156	14914
917.268	14883
917.38	14815
917.491	14754
917.603	14743
917.715	14861
917.826	14914
917.938	14720
918.049	14670
918.161	14754
918.272	14887
918.384	14792
918.495	14724
918.606	14621
918.717	14492
918.828	14625
918.939	14613
919.05	14579
919.161	14552
919.272	14271
919.383	14396
919.494	14598
919.604	14708
919.715	14606
919.826	14438
919.936	14465
920.047	14579
920.157	14518
920.267	14659
920.378	14511
920.488	14484
920.598	14651
920.708	14887
920.818	14640
920.928	14693
921.038	14834
921.148	14785
921.258	14427
921.368	14423
921.477	14324
921.587	14336
921.697	14130
921.806	14256
921.916	14100
922.025	13928
922.134	13955
922.244	13765
922.353	13936
922.462	13811
922.571	13772
922.68	13662
922.789	13628
922.898	13609
923.007	13499
923.116	13609
923.224	13529
923.333	13472
923.442	13426
923.55	13388
923.659	13369
923.767	13415
923.876	13384
923.984	13434
924.092	13225
924.201	13266
924.309	13270
924.417	13304
924.525	13171
924.633	13152
924.741	14149
924.849	13008
924.956	13209
925.064	13072
925.172	12970
925.279	12958
925.387	13069
925.494	12939
925.602	13202
925.709	13012
925.816	12966
925.924	12947
926.031	13042
926.138	12890
926.245	13027
926.352	12814
926.459	12875
926.566	13050
926.673	12901
926.779	12814
926.886	12837
926.993	12582
927.099	12544
927.206	12429
927.312	12464
927.419	12506
927.525	12426
927.631	12578
927.737	12418
927.843	12429
927.95	12319
928.056	12403
928.162	12418
928.267	12369
928.373	13061
928.479	12441
928.585	12277
928.69	12334
928.796	12407
928.901	12262
929.007	12068
929.112	12201
929.218	12190
929.323	12072
929.428	12049
929.533	12232
929.638	12068
929.743	11942
929.848	12095
929.953	11992
930.058	11954
930.163	11764
930.267	11718
930.372	11878
930.477	11729
930.581	11980
930.685	11889
930.79	11668
930.894	11722
930.998	11672
931.103	11813
931.207	11463
931.311	11330
931.415	11239
931.519	11037
931.623	10976
