Data from test_V78500241_494.txt Node
Date: Fri Mar 25 15:45:13 CST 2022
User: usil
Spectrometer: V785-0024
Trigger mode: 0
Integration Time (sec): 4.000000E-1
Scans to average: 1
Nonlinearity correction enabled: false
Boxcar width: 0
Storing dark spectrum: false
XAxis mode: Wavelengths
Number of Pixels in Spectrum: 1024
>>>>>Begin Spectral Data<<<<<
801.071	27500
801.214	27393
801.356	27176
801.499	27077
801.641	27062
801.783	26990
801.926	27119
802.068	26853
802.211	26887
802.353	26880
802.496	26724
802.638	26552
802.78	26568
802.923	26682
803.065	26575
803.208	26583
803.35	26758
803.492	26788
803.635	26834
803.777	26697
803.919	26731
804.061	27119
804.204	26925
804.346	26731
804.488	26731
804.63	26727
804.773	26697
804.915	26899
805.057	26998
805.199	26807
805.341	26777
805.483	26925
805.626	26914
805.768	26750
805.91	26952
806.052	26887
806.194	26940
806.336	27119
806.478	26887
806.62	26887
806.762	27039
806.904	27047
807.046	27469
807.188	27370
807.33	27374
807.472	27317
807.614	27291
807.756	27199
807.898	27268
808.04	27093
808.182	27131
808.324	27127
808.465	27138
808.607	27367
808.749	27561
808.891	27564
809.033	27766
809.174	27652
809.316	27694
809.458	27549
809.6	27507
809.741	27675
809.883	27587
810.025	27762
810.166	27880
810.308	27755
810.45	27766
810.591	27622
810.733	27481
810.875	27637
811.016	27466
811.158	27298
811.299	27808
811.441	27766
811.582	27610
811.724	27530
811.865	27416
812.007	27401
812.148	27549
812.29	27500
812.431	27736
812.573	27876
812.714	28013
812.855	28059
812.997	28173
813.138	28249
813.279	28154
813.421	28188
813.562	28006
813.703	27903
813.845	27652
813.986	27466
814.127	27214
814.268	27188
814.41	27279
814.551	27154
814.692	27207
814.833	27108
814.974	27207
815.115	27138
815.256	27150
815.397	26872
815.539	27066
815.68	26998
815.821	26963
815.962	27013
816.103	27020
816.244	27062
816.385	26651
816.526	26701
816.666	26853
816.807	26492
816.948	26465
817.089	26598
817.23	26560
817.371	26503
817.512	26484
817.653	26374
817.793	26343
817.934	26400
818.075	26549
818.216	26404
818.356	26461
818.497	26355
818.638	26149
818.778	26142
818.919	26088
819.06	26229
819.2	26237
819.341	26434
819.481	26362
819.622	26465
819.762	26834
819.903	26720
820.043	26648
820.184	26590
820.324	26571
820.465	26629
820.605	26629
820.746	26556
820.886	26301
821.026	26461
821.167	26564
821.307	26552
821.447	26461
821.588	26408
821.728	26214
821.868	26195
822.008	26024
822.149	25890
822.289	25932
822.429	25620
822.569	25628
822.709	25582
822.849	25419
822.99	25495
823.13	25426
823.27	25476
823.41	25168
823.55	25129
823.69	25198
823.83	25274
823.97	25259
824.11	25008
824.25	25099
824.389	25008
824.529	25133
824.669	25179
824.809	25304
824.949	25232
825.089	25091
825.228	24981
825.368	24901
825.508	24867
825.648	25057
825.787	25000
825.927	24977
826.067	24916
826.206	25042
826.346	24935
826.485	24920
826.625	25015
826.765	24916
826.904	24901
827.044	24749
827.183	24646
827.323	24631
827.462	24669
827.601	24658
827.741	24684
827.88	24700
828.02	24498
828.159	24563
828.298	24555
828.437	24612
828.577	24570
828.716	24677
828.855	24513
828.994	24365
829.134	24311
829.273	24403
829.412	24216
829.551	24342
829.69	24407
829.829	24391
829.968	24300
830.107	24342
830.246	24315
830.385	24285
830.524	24171
830.663	24258
830.802	24015
830.941	23920
831.08	24011
831.219	23973
831.357	24030
831.496	24125
831.635	23901
831.774	23878
831.913	23771
832.051	23665
832.19	23726
832.329	23741
832.467	23634
832.606	23634
832.744	23615
832.883	23596
833.022	23535
833.16	23474
833.299	23516
833.437	23668
833.576	23577
833.714	23684
833.852	23691
833.991	23760
834.129	23676
834.267	23786
834.406	23634
834.544	23764
834.682	23676
834.821	23710
834.959	23859
835.097	23570
835.235	23748
835.373	23638
835.511	23676
835.65	23497
835.788	23562
835.926	23455
836.064	23349
836.202	23307
836.34	23505
836.478	23547
836.615	23535
836.753	23543
836.891	23573
837.029	23691
837.167	23387
837.305	23239
837.443	23337
837.58	23318
837.718	23391
837.856	23311
837.993	23337
838.131	23387
838.269	23136
838.406	23265
838.544	23064
838.681	23044
838.819	22965
838.956	22797
839.094	22866
839.231	22896
839.369	23090
839.506	23197
839.643	23098
839.781	22759
839.918	22687
840.055	22809
840.193	22782
840.33	22736
840.467	22740
840.604	22687
840.742	22995
840.879	22729
841.016	22698
841.153	22656
841.29	22771
841.427	22782
841.564	22763
841.701	22710
841.838	22691
841.975	22603
842.112	22607
842.249	22535
842.385	22557
842.522	22691
842.659	22504
842.796	22405
842.933	22500
843.069	22421
843.206	22504
843.343	22516
843.479	22432
843.616	22485
843.752	22253
843.889	22280
844.025	22447
844.162	22303
844.298	22303
844.435	22185
844.571	22238
844.708	22337
844.844	22375
844.98	22432
845.117	22333
845.253	22192
845.389	22131
845.525	22154
845.661	22097
845.798	22002
845.934	22025
846.07	21983
846.206	21968
846.342	22150
846.478	21895
846.614	21926
846.75	21644
846.886	21637
847.022	21732
847.158	21694
847.294	21854
847.429	21774
847.565	21747
847.701	21831
847.837	21500
847.972	21462
848.108	21534
848.244	21652
848.379	21401
848.515	21306
848.65	21317
848.786	21389
848.921	21386
849.057	21389
849.192	21386
849.328	21351
849.463	21351
849.598	21180
849.734	21188
849.869	21157
850.004	21047
850.14	21036
850.275	21062
850.41	21005
850.545	20998
850.68	21013
850.815	21127
850.95	21055
851.085	21203
851.22	21150
851.355	21047
851.49	21039
851.625	20929
851.76	21199
851.895	21028
852.03	20921
852.165	21135
852.299	21192
852.434	21142
852.569	21127
852.703	21081
852.838	21131
852.973	21275
853.107	21074
853.242	21013
853.376	20918
853.511	20868
853.645	20899
853.78	21093
853.914	20899
854.048	20883
854.183	20849
854.317	20956
854.451	21009
854.585	20902
854.72	20918
854.854	21001
854.988	20781
855.122	20948
855.256	20743
855.39	20845
855.524	20891
855.658	20838
855.792	20918
855.926	20902
856.06	20975
856.194	21017
856.327	20914
856.461	20792
856.595	20941
856.729	20823
856.862	21058
856.996	20967
857.13	20868
857.263	20963
857.397	20925
857.53	20941
857.664	20998
857.797	20910
857.931	21096
858.064	20986
858.197	21005
858.331	20834
858.464	20845
858.597	20861
858.731	20857
858.864	20861
858.997	20929
859.13	20826
859.263	20876
859.396	20910
859.529	20933
859.662	20857
859.795	20788
859.928	20849
860.061	21077
860.194	21176
860.327	20918
860.46	20883
860.592	20876
860.725	21017
860.858	20967
860.99	20891
861.123	20815
861.256	20781
861.388	20819
861.521	21492
861.653	20674
861.786	20727
861.918	20697
862.05	20868
862.183	20902
862.315	20906
862.447	20990
862.58	20815
862.712	20636
862.844	20579
862.976	20674
863.108	20788
863.24	21047
863.372	20609
863.504	20590
863.636	20583
863.768	20811
863.9	20560
864.032	20651
864.164	20499
864.296	20606
864.428	20731
864.559	20674
864.691	20716
864.823	20568
864.954	20708
865.086	20716
865.217	20518
865.349	20556
865.48	20442
865.612	20594
865.743	20617
865.875	20480
866.006	20434
866.137	20545
866.269	20533
866.4	20514
866.531	20396
866.662	20370
866.793	20499
866.924	20488
867.055	20415
867.186	20393
867.317	20396
867.448	20374
867.579	20396
867.71	20351
867.841	20366
867.972	20431
868.103	20389
868.233	20427
868.364	20396
868.495	20594
868.625	20712
868.756	20750
868.886	20552
869.017	20644
869.147	20910
869.278	20823
869.408	20655
869.539	20697
869.669	20849
869.799	20746
869.929	20883
870.06	20796
870.19	20960
870.32	20941
870.45	21009
870.58	21131
870.71	21081
870.84	21154
870.97	21070
871.1	21131
871.23	21268
871.36	21161
871.489	21184
871.619	21188
871.749	21325
871.879	21306
872.008	21287
872.138	21264
872.267	21272
872.397	21165
872.526	21001
872.656	21074
872.785	21169
872.915	21287
873.044	21412
873.173	21199
873.303	21184
873.432	21359
873.561	21378
873.69	21431
873.819	21291
873.948	21416
874.077	21302
874.206	21233
874.335	21184
874.464	21416
874.593	21751
874.722	21545
874.851	21644
874.979	21603
875.108	21603
875.237	21485
875.365	21496
875.494	21530
875.623	21542
875.751	21530
875.88	21610
876.008	21736
876.136	21736
876.265	21960
876.393	22101
876.521	22044
876.65	21949
876.778	21895
876.906	21922
877.034	21865
877.162	21903
877.29	21827
877.418	21884
877.546	21892
877.674	21945
877.802	21827
877.93	21854
878.058	21804
878.185	21743
878.313	21884
878.441	21854
878.568	21762
878.696	21842
878.824	21918
878.951	22082
879.079	22055
879.206	22261
879.333	22063
879.461	21922
879.588	22070
879.715	22154
879.842	22207
879.97	22059
880.097	21732
880.224	21800
880.351	21705
880.478	21580
880.605	21629
880.732	21789
880.859	21960
880.986	21717
881.112	21781
881.239	21610
881.366	21431
881.493	21389
881.619	21310
881.746	21272
881.872	21340
881.999	21230
882.125	21237
882.252	21302
882.378	21332
882.505	21450
882.631	21294
882.757	21051
882.883	21055
883.01	21062
883.136	20906
883.262	20838
883.388	20781
883.514	20918
883.64	21028
883.766	20986
883.892	20807
884.018	20857
884.143	20979
884.269	21055
884.395	20617
884.52	20617
884.646	20640
884.772	20594
884.897	20613
885.023	20659
885.148	20826
885.274	20834
885.399	20724
885.524	20674
885.65	20636
885.775	20705
885.9	20708
886.025	20746
886.15	20746
886.275	20655
886.4	20590
886.525	20693
886.65	20575
886.775	20503
886.9	20678
887.025	20853
887.149	20602
887.274	20454
887.399	20431
887.523	20526
887.648	20263
887.773	20419
887.897	20522
888.021	20469
888.146	20309
888.27	20518
888.395	20648
888.519	20480
888.643	20396
888.767	20427
888.891	20358
889.015	20214
889.139	20305
889.263	20244
889.387	20434
889.511	20427
889.635	20461
889.759	20157
889.883	20214
890.006	20271
890.13	20187
890.254	20107
890.377	20271
890.501	19989
890.624	20031
890.748	20065
890.871	19864
890.995	19708
891.118	19814
891.241	19837
891.364	19864
891.488	19940
891.611	19852
891.734	19811
891.857	19742
891.98	19761
892.103	19887
892.226	19795
892.349	19864
892.471	19628
892.594	19708
892.717	19860
892.839	19628
892.962	19731
893.085	19746
893.207	19723
893.33	19567
893.452	19670
893.575	19765
893.697	19643
893.819	19902
893.941	19951
894.064	19788
894.186	19651
894.308	19651
894.43	19780
894.552	19890
894.674	19837
894.796	19616
894.918	19609
895.04	19628
895.161	19734
895.283	19788
895.405	19651
895.526	19658
895.648	19696
895.769	19776
895.891	19795
896.012	19753
896.134	19833
896.255	19757
896.376	19723
896.498	19788
896.619	19852
896.74	19700
896.861	19803
896.982	20016
897.103	20191
897.224	20016
897.345	20027
897.466	19974
897.587	19936
897.708	20069
897.828	19970
897.949	19913
898.07	19761
898.19	19860
898.311	20012
898.431	19890
898.552	19902
898.672	20065
898.792	20001
898.913	20027
899.033	19769
899.153	19830
899.273	19658
899.393	19635
899.513	19689
899.633	19674
899.753	19723
899.873	19635
899.993	19761
900.113	19639
900.232	19662
900.352	19628
900.472	19578
900.591	19502
900.711	19586
900.83	19468
900.95	19632
901.069	19491
901.189	19362
901.308	19107
901.427	19072
901.546	19126
901.665	19099
901.784	19126
901.904	18970
902.023	18757
902.141	18631
902.26	18620
902.379	18688
902.498	18608
902.617	18608
902.735	18608
902.854	18570
902.973	18544
903.091	18213
903.21	18277
903.328	18342
903.446	18133
903.565	18155
903.683	18144
903.801	18064
903.919	18022
904.038	17996
904.156	17958
904.274	18019
904.392	17889
904.51	17893
904.627	17882
904.745	17977
904.863	17847
904.981	17676
905.098	17581
905.216	17474
905.334	17524
905.451	17493
905.569	17455
905.686	17501
905.803	17486
905.921	17254
906.038	17372
906.155	17269
906.272	17265
906.389	17311
906.506	17086
906.623	17052
906.74	17083
906.857	16968
906.974	17060
907.091	17105
907.208	17128
907.324	17105
907.441	17014
907.557	16854
907.674	16717
907.79	16733
907.907	16645
908.023	16816
908.139	16733
908.256	16793
908.372	16733
908.488	16596
908.604	16615
908.72	16481
908.836	16424
908.952	16519
909.068	16538
909.184	16565
909.3	16577
909.415	16542
909.531	16497
909.647	16280
909.762	16192
909.878	16196
909.993	16242
910.108	16185
910.224	16131
910.339	16185
910.454	16071
910.57	16055
910.685	15979
910.8	16211
910.915	16032
911.03	16074
911.145	15907
911.259	15873
911.374	15762
911.489	15793
911.604	15800
911.718	15587
911.833	15561
911.947	15454
912.062	15348
912.176	15614
912.291	15553
912.405	15694
912.519	15797
912.633	15804
912.748	15530
912.862	15542
912.976	15344
913.09	15317
913.204	15272
913.318	15397
913.431	15488
913.545	15428
913.659	15477
913.772	15321
913.886	15325
914	15317
914.113	15256
914.226	15222
914.34	15199
914.453	15100
914.566	15249
914.68	15119
914.793	15017
914.906	14868
915.019	14788
915.132	14826
915.245	14762
915.358	14864
915.47	14842
915.583	14830
915.696	14750
915.809	14868
915.921	14960
916.034	14701
916.146	14724
916.259	14689
916.371	14743
916.483	14678
916.595	14739
916.708	14693
916.82	14590
916.932	14598
917.044	14708
917.156	14598
917.268	14514
917.38	14412
917.491	14507
917.603	14648
917.715	14488
917.826	14564
917.938	14442
918.049	14324
918.161	14415
918.272	14667
918.384	14511
918.495	14457
918.606	14324
918.717	14278
918.828	14267
918.939	14278
919.05	14153
919.161	14271
919.272	14123
919.383	14046
919.494	14282
919.604	14442
919.715	14256
919.826	14115
919.936	14263
920.047	14286
920.157	14195
920.267	14366
920.378	14309
920.488	14210
920.598	14446
920.708	14454
920.818	14343
920.928	14362
921.038	14503
921.148	14492
921.258	14263
921.368	14024
921.477	13989
921.587	13951
921.697	13841
921.806	13982
921.916	13871
922.025	13616
922.134	13628
922.244	13620
922.353	13704
922.462	13521
922.571	13445
922.68	13316
922.789	13308
922.898	13293
923.007	13289
923.116	13259
923.224	13259
923.333	13244
923.442	13118
923.55	13076
923.659	13114
923.767	13164
923.876	13084
923.984	13080
924.092	13042
924.201	13133
924.309	13061
924.417	13141
924.525	12905
924.633	12935
924.741	13750
924.849	12886
924.956	12981
925.064	12764
925.172	12738
925.279	12627
925.387	12722
925.494	12696
925.602	12833
925.709	12821
925.816	12604
925.924	12669
926.031	12753
926.138	12730
926.245	12700
926.352	12681
926.459	12764
926.566	12669
926.673	12597
926.779	12555
926.886	12506
926.993	12391
927.099	12273
927.206	12239
927.312	12205
927.419	12346
927.525	12243
927.631	12353
927.737	12292
927.843	12106
927.95	12064
928.056	12171
928.162	12125
928.267	12205
928.373	12730
928.479	12281
928.585	11950
928.69	12079
928.796	12098
928.901	12026
929.007	11950
929.112	11935
929.218	11927
929.323	11923
929.428	11824
929.533	11931
929.638	11752
929.743	11817
929.848	11832
929.953	11726
930.058	11748
930.163	11600
930.267	11543
930.372	11688
930.477	11505
930.581	11760
930.685	11592
930.79	11417
930.894	11436
930.998	11398
931.103	11547
931.207	11242
931.311	11056
931.415	10991
931.519	10889
931.623	10854
