Data from test_V78500241_2850.txt Node
Date: Fri Mar 25 16:01:32 CST 2022
User: usil
Spectrometer: V785-0024
Trigger mode: 0
Integration Time (sec): 4.000000E-1
Scans to average: 1
Nonlinearity correction enabled: false
Boxcar width: 0
Storing dark spectrum: false
XAxis mode: Wavelengths
Number of Pixels in Spectrum: 1024
>>>>>Begin Spectral Data<<<<<
801.071	28987
801.214	28896
801.356	28740
801.499	28729
801.641	28500
801.783	28641
801.926	28618
802.068	28599
802.211	28421
802.353	28500
802.496	28257
802.638	28371
802.78	28192
802.923	28150
803.065	28226
803.208	28120
803.35	28329
803.492	28295
803.635	28478
803.777	28314
803.919	28508
804.061	28828
804.204	28637
804.346	28421
804.488	28531
804.63	28626
804.773	28398
804.915	28481
805.057	28653
805.199	28523
805.341	28512
805.483	28687
805.626	28679
805.768	28519
805.91	28584
806.052	28622
806.194	28451
806.336	28919
806.478	28694
806.62	28710
806.762	28816
806.904	28908
807.046	29155
807.188	29071
807.33	29265
807.472	29094
807.614	29079
807.756	29132
807.898	28972
808.04	28980
808.182	29083
808.324	28972
808.465	28976
808.607	29200
808.749	29334
808.891	29395
809.033	29421
809.174	29406
809.316	29387
809.458	29425
809.6	29383
809.741	29410
809.883	29600
810.025	29676
810.166	29684
810.308	29676
810.45	29558
810.591	29672
810.733	29383
810.875	29353
811.016	29307
811.158	29197
811.299	29425
811.441	29547
811.582	29455
811.724	29375
811.865	29493
812.007	29258
812.148	29356
812.29	29471
812.431	29512
812.573	29718
812.714	29786
812.855	29874
812.997	30015
813.138	30102
813.279	29988
813.421	29916
813.562	29771
813.703	29741
813.845	29547
813.986	29467
814.127	29132
814.268	29090
814.41	29052
814.551	29166
814.692	29181
814.833	28995
814.974	29071
815.115	29212
815.256	29071
815.397	29075
815.539	28911
815.68	28976
815.821	28744
815.962	28782
816.103	29056
816.244	28896
816.385	28710
816.526	28592
816.666	28641
816.807	28447
816.948	28550
817.089	28508
817.23	28428
817.371	28443
817.512	28462
817.653	28447
817.793	28409
817.934	28299
818.075	28485
818.216	28341
818.356	28333
818.497	28333
818.638	28131
818.778	28196
818.919	28280
819.06	28169
819.2	28303
819.341	28436
819.481	28470
819.622	28637
819.762	28763
819.903	28500
820.043	28535
820.184	28577
820.324	28618
820.465	28649
820.605	28557
820.746	28618
820.886	28443
821.026	28519
821.167	28341
821.307	28580
821.447	28401
821.588	28318
821.728	28337
821.868	28063
822.008	27979
822.149	27987
822.289	27960
822.429	27667
822.569	27564
822.709	27603
822.849	27386
822.99	27443
823.13	27458
823.27	27367
823.41	27195
823.55	27237
823.69	27317
823.83	27264
823.97	27195
824.11	27093
824.25	27028
824.389	26971
824.529	27287
824.669	26963
824.809	27199
824.949	27192
825.089	27131
825.228	27150
825.368	26891
825.508	26990
825.648	27043
825.787	26994
825.927	27001
826.067	26971
826.206	26880
826.346	27154
826.485	27005
826.625	26960
826.765	27036
826.904	27024
827.044	26758
827.183	26712
827.323	26644
827.462	26697
827.601	26659
827.741	26739
827.88	26785
828.02	26507
828.159	26697
828.298	26754
828.437	26640
828.577	26644
828.716	26830
828.855	26629
828.994	26351
829.134	26446
829.273	26495
829.412	26225
829.551	26347
829.69	26294
829.829	26431
829.968	26511
830.107	26389
830.246	26256
830.385	26393
830.524	26244
830.663	26214
830.802	26058
830.941	26005
831.08	25883
831.219	26001
831.357	25993
831.496	26107
831.635	26058
831.774	25871
831.913	25917
832.051	25898
832.19	25693
832.329	25632
832.467	25620
832.606	25525
832.744	25651
832.883	25674
833.022	25502
833.16	25647
833.299	25571
833.437	25685
833.576	25723
833.714	25750
833.852	25712
833.991	25719
834.129	25700
834.267	25750
834.406	25567
834.544	25791
834.682	25753
834.821	25738
834.959	25799
835.097	25616
835.235	25780
835.373	25681
835.511	25719
835.65	25510
835.788	25533
835.926	25453
836.064	25419
836.202	25289
836.34	25567
836.478	25548
836.615	25479
836.753	25453
836.891	25586
837.029	25529
837.167	25403
837.305	25438
837.443	25350
837.58	25304
837.718	25381
837.856	25358
837.993	25259
838.131	25194
838.269	25194
838.406	25324
838.544	25244
838.681	24837
838.819	24996
838.956	24840
839.094	24776
839.231	24814
839.369	25008
839.506	25194
839.643	24943
839.781	24829
839.918	24825
840.055	24844
840.193	24703
840.33	24783
840.467	24700
840.604	24684
840.742	25019
840.879	24593
841.016	24589
841.153	24604
841.29	24703
841.427	24646
841.564	24810
841.701	24783
841.838	24604
841.975	24627
842.112	24738
842.249	24528
842.385	24517
842.522	24703
842.659	24574
842.796	24498
842.933	24498
843.069	24437
843.206	24422
843.343	24589
843.479	24445
843.616	24464
843.752	24239
843.889	24292
844.025	24547
844.162	24296
844.298	24323
844.435	24266
844.571	24289
844.708	24266
844.844	24384
844.98	24365
845.117	24342
845.253	24114
845.389	24011
845.525	24129
845.661	24098
845.798	24041
845.934	24060
846.07	23889
846.206	24018
846.342	24011
846.478	23942
846.614	23836
846.75	23543
846.886	23703
847.022	23710
847.158	23676
847.294	23767
847.429	23771
847.565	23589
847.701	23889
847.837	23387
847.972	23391
848.108	23436
848.244	23505
848.379	23387
848.515	23296
848.65	23288
848.786	23277
848.921	23311
849.057	23288
849.192	23326
849.328	23292
849.463	23307
849.598	23197
849.734	23284
849.869	23113
850.004	23090
850.14	23098
850.275	23003
850.41	23105
850.545	22885
850.68	23010
850.815	23113
850.95	22968
851.085	23170
851.22	23185
851.355	23083
851.49	23064
851.625	23033
851.76	22987
851.895	22953
852.03	22877
852.165	23025
852.299	23140
852.434	23056
852.569	22934
852.703	22812
852.838	23006
852.973	23193
853.107	23185
853.242	23029
853.376	22881
853.511	22839
853.645	22869
853.78	22934
853.914	22820
854.048	22873
854.183	22790
854.317	22831
854.451	23067
854.585	22938
854.72	22934
854.854	22930
854.988	22706
855.122	22885
855.256	22717
855.39	22687
855.524	22904
855.658	22934
855.792	22885
855.926	22835
856.06	22904
856.194	22843
856.327	22889
856.461	22843
856.595	22713
856.729	22790
856.862	22995
856.996	22858
857.13	22866
857.263	22839
857.397	22968
857.53	22812
857.664	22957
857.797	22927
857.931	22942
858.064	22900
858.197	22881
858.331	22748
858.464	22831
858.597	22786
858.731	22877
858.864	22771
858.997	22919
859.13	22782
859.263	22881
859.396	23018
859.529	22927
859.662	22748
859.795	22812
859.928	22858
860.061	22942
860.194	22965
860.327	22831
860.46	22866
860.592	22873
860.725	23056
860.858	22896
860.99	22885
861.123	22713
861.256	22782
861.388	22873
861.521	23585
861.653	22774
861.786	22622
861.918	22656
862.05	22664
862.183	22816
862.315	22740
862.447	22790
862.58	22656
862.712	22557
862.844	22538
862.976	22577
863.108	22622
863.24	22831
863.372	22538
863.504	22584
863.636	22637
863.768	22565
863.9	22531
864.032	22489
864.164	22459
864.296	22580
864.428	22698
864.559	22459
864.691	22611
864.823	22637
864.954	22527
865.086	22504
865.217	22432
865.349	22230
865.48	22360
865.612	22440
865.743	22561
865.875	22440
866.006	22352
866.137	22531
866.269	22485
866.4	22386
866.531	22363
866.662	22280
866.793	22379
866.924	22287
867.055	22405
867.186	22352
867.317	22371
867.448	22295
867.579	22261
867.71	22280
867.841	22265
867.972	22329
868.103	22371
868.233	22352
868.364	22489
868.495	22455
868.625	22474
868.756	22729
868.886	22660
869.017	22569
869.147	22706
869.278	22675
869.408	22622
869.539	22713
869.669	22694
869.799	22592
869.929	22675
870.06	22694
870.19	22980
870.32	22820
870.45	22904
870.58	22934
870.71	23071
870.84	23064
870.97	22877
871.1	22961
871.23	23048
871.36	23288
871.489	23064
871.619	23212
871.749	23159
871.879	23227
872.008	23296
872.138	23185
872.267	23102
872.397	22999
872.526	23037
872.656	23086
872.785	23048
872.915	23181
873.044	23288
873.173	23220
873.303	23261
873.432	23303
873.561	23231
873.69	23235
873.819	23098
873.948	23227
874.077	23258
874.206	23162
874.335	23170
874.464	23185
874.593	23341
874.722	23254
874.851	23356
874.979	23330
875.108	23562
875.237	23547
875.365	23246
875.494	23372
875.623	23337
875.751	23337
875.88	23353
876.008	23516
876.136	23604
876.265	23676
876.393	23866
876.521	23855
876.65	24030
876.778	23687
876.906	23798
877.034	23642
877.162	23798
877.29	23745
877.418	23783
877.546	23741
877.674	23524
877.802	23733
877.93	23710
878.058	23741
878.185	23596
878.313	23691
878.441	23714
878.568	23547
878.696	23687
878.824	23691
878.951	23828
879.079	23908
879.206	23973
879.333	23923
879.461	23703
879.588	23920
879.715	23927
879.842	23988
879.97	23748
880.097	23592
880.224	23562
880.351	23634
880.478	23554
880.605	23368
880.732	23592
880.859	23771
880.986	23554
881.112	23668
881.239	23417
881.366	23280
881.493	23220
881.619	23113
881.746	23235
881.872	23083
881.999	23044
882.125	22953
882.252	23056
882.378	23090
882.505	23143
882.631	22866
882.757	22862
882.883	22862
883.01	22767
883.136	22630
883.262	22603
883.388	22641
883.514	22767
883.64	22869
883.766	22675
883.892	22573
884.018	22630
884.143	22736
884.269	22782
884.395	22405
884.52	22519
884.646	22489
884.772	22333
884.897	22337
885.023	22341
885.148	22485
885.274	22474
885.399	22687
885.524	22352
885.65	22428
885.775	22382
885.9	22478
886.025	22550
886.15	22432
886.275	22333
886.4	22322
886.525	22322
886.65	22291
886.775	22348
886.9	22535
887.025	22713
887.149	22200
887.274	22242
887.399	22223
887.523	22261
887.648	22246
887.773	22090
887.897	22226
888.021	22268
888.146	22010
888.27	22253
888.395	22322
888.519	22276
888.643	22120
888.767	22230
888.891	22067
889.015	22112
889.139	22021
889.263	21964
889.387	22006
889.511	22246
889.635	22139
889.759	21934
889.883	21975
890.006	21998
890.13	22040
890.254	21789
890.377	21899
890.501	21728
890.624	21705
890.748	21534
890.871	21526
890.995	21424
891.118	21473
891.241	21545
891.364	21488
891.488	21743
891.611	21431
891.734	21477
891.857	21530
891.98	21504
892.103	21641
892.226	21454
892.349	21450
892.471	21207
892.594	21367
892.717	21405
892.839	21298
892.962	21477
893.085	21515
893.207	21192
893.33	21291
893.452	21329
893.575	21348
893.697	21386
893.819	21568
893.941	21519
894.064	21576
894.186	21283
894.308	21291
894.43	21450
894.552	21583
894.674	21462
894.796	21188
894.918	21272
895.04	21393
895.161	21428
895.283	21382
895.405	21272
895.526	21264
895.648	21389
895.769	21431
895.891	21378
896.012	21473
896.134	21416
896.255	21302
896.376	21420
896.498	21283
896.619	21401
896.74	21378
896.861	21462
896.982	21667
897.103	21793
897.224	21618
897.345	21545
897.466	21526
897.587	21530
897.708	21728
897.828	21561
897.949	21553
898.07	21222
898.19	21515
898.311	21564
898.431	21545
898.552	21523
898.672	21557
898.792	21618
898.913	21595
899.033	21428
899.153	21439
899.273	21272
899.393	21264
899.513	21378
899.633	21370
899.753	21226
899.873	21218
899.993	21264
900.113	21150
900.232	21154
900.352	21184
900.472	20990
900.591	20982
900.711	21100
900.83	21020
900.95	21077
901.069	21074
901.189	20967
901.308	20727
901.427	20602
901.546	20648
901.665	20602
901.784	20549
901.904	20495
902.023	20377
902.141	20237
902.26	20195
902.379	20233
902.498	20065
902.617	20107
902.735	20122
902.854	19986
902.973	20050
903.091	19788
903.21	19712
903.328	19738
903.446	19681
903.565	19502
903.683	19594
903.801	19403
903.919	19506
904.038	19521
904.156	19346
904.274	19411
904.392	19320
904.51	19324
904.627	19312
904.745	19411
904.863	19460
904.981	19031
905.098	18989
905.216	19019
905.334	18973
905.451	19012
905.569	18966
905.686	18951
905.803	19042
905.921	18749
906.038	18814
906.155	18760
906.272	18650
906.389	18681
906.506	18498
906.623	18418
906.74	18483
906.857	18350
906.974	18388
907.091	18585
907.208	18563
907.324	18525
907.441	18380
907.557	18220
907.674	18270
907.79	18095
907.907	18209
908.023	18289
908.139	18129
908.256	18171
908.372	18038
908.488	18087
908.604	18022
908.72	17923
908.836	17931
908.952	17843
909.068	18034
909.184	17980
909.3	17893
909.415	17923
909.531	18019
909.647	17600
909.762	17672
909.878	17589
909.993	17642
910.108	17589
910.224	17585
910.339	17604
910.454	17482
910.57	17440
910.685	17296
910.8	17547
910.915	17551
911.03	17406
911.145	17250
911.259	17254
911.374	17197
911.489	17197
911.604	17018
911.718	16873
911.833	17006
911.947	16755
912.062	16843
912.176	16930
912.291	16938
912.405	16934
912.519	17117
912.633	17014
912.748	16965
912.862	16824
912.976	16694
913.09	16573
913.204	16675
913.318	16733
913.431	16881
913.545	16843
913.659	16824
913.772	16733
913.886	16459
914	16531
914.113	16573
914.226	16527
914.34	16535
914.453	16421
914.566	16550
914.68	16360
914.793	16379
914.906	16109
915.019	16185
915.132	16063
915.245	16124
915.358	16090
915.47	16097
915.583	16143
915.696	16162
915.809	16158
915.921	16116
916.034	16048
916.146	16044
916.259	15987
916.371	16040
916.483	15842
916.595	15911
916.708	15797
916.82	15911
916.932	15778
917.044	15800
917.156	15797
917.268	15736
917.38	15720
917.491	15663
917.603	15789
917.715	15778
917.826	15793
917.938	15633
918.049	15511
918.161	15698
918.272	15739
918.384	15850
918.495	15667
918.606	15454
918.717	15374
918.828	15488
918.939	15481
919.05	15294
919.161	15454
919.272	15214
919.383	15264
919.494	15466
919.604	15599
919.715	15408
919.826	15310
919.936	15287
920.047	15526
920.157	15332
920.267	15595
920.378	15462
920.488	15348
920.598	15526
920.708	15675
920.818	15492
920.928	15488
921.038	15652
921.148	15591
921.258	15249
921.368	15287
921.477	15157
921.587	15074
921.697	15001
921.806	15150
921.916	14899
922.025	14785
922.134	14743
922.244	14686
922.353	14750
922.462	14648
922.571	14598
922.68	14370
922.789	14396
922.898	14377
923.007	14393
923.116	14347
923.224	14362
923.333	14298
923.442	14187
923.55	14187
923.659	14161
923.767	14237
923.876	14126
923.984	14119
924.092	14001
924.201	14103
924.309	14172
924.417	14077
924.525	13906
924.633	14024
924.741	14975
924.849	13704
924.956	14077
925.064	13814
925.172	13662
925.279	13765
925.387	13723
925.494	13742
925.602	13727
925.709	13864
925.816	13639
925.924	13594
926.031	13761
926.138	13689
926.245	13674
926.352	13506
926.459	13772
926.566	13746
926.673	13559
926.779	13449
926.886	13491
926.993	13304
927.099	13343
927.206	13202
927.312	13164
927.419	13339
927.525	13274
927.631	13308
927.737	13206
927.843	13126
927.95	12958
928.056	13076
928.162	13107
928.267	13114
928.373	13784
928.479	13080
928.585	12939
928.69	12996
928.796	13133
928.901	12928
929.007	12814
929.112	12958
929.218	12932
929.323	12802
929.428	12825
929.533	12954
929.638	12760
929.743	12795
929.848	12700
929.953	12707
930.058	12703
930.163	12498
930.267	12490
930.372	12608
930.477	12426
930.581	12642
930.685	12407
930.79	12323
930.894	12235
930.998	12270
931.103	12509
931.207	12087
931.311	11939
931.415	11992
931.519	11771
931.623	11646
