Data from test_V78500241_2398.txt Node
Date: Fri Mar 25 15:58:24 CST 2022
User: usil
Spectrometer: V785-0024
Trigger mode: 0
Integration Time (sec): 4.000000E-1
Scans to average: 1
Nonlinearity correction enabled: false
Boxcar width: 0
Storing dark spectrum: false
XAxis mode: Wavelengths
Number of Pixels in Spectrum: 1024
>>>>>Begin Spectral Data<<<<<
801.071	28835
801.214	28885
801.356	28611
801.499	28649
801.641	28516
801.783	28451
801.926	28615
802.068	28409
802.211	28405
802.353	28375
802.496	28177
802.638	28211
802.78	28147
802.923	28135
803.065	28017
803.208	28128
803.35	28109
803.492	28204
803.635	28436
803.777	28440
803.919	28443
804.061	28706
804.204	28379
804.346	28185
804.488	28329
804.63	28421
804.773	28386
804.915	28325
805.057	28531
805.199	28356
805.341	28485
805.483	28451
805.626	28447
805.768	28344
805.91	28550
806.052	28641
806.194	28421
806.336	28672
806.478	28577
806.62	28497
806.762	28755
806.904	28672
807.046	28995
807.188	28995
807.33	28968
807.472	29090
807.614	28927
807.756	29044
807.898	28847
808.04	28797
808.182	28790
808.324	28888
808.465	29010
808.607	28949
808.749	29216
808.891	29261
809.033	29273
809.174	29288
809.316	29315
809.458	29250
809.6	29246
809.741	29406
809.883	29425
810.025	29547
810.166	29429
810.308	29524
810.45	29512
810.591	29463
810.733	29200
810.875	29391
811.016	29159
811.158	29174
811.299	29242
811.441	29356
811.582	29448
811.724	29250
811.865	29159
812.007	29246
812.148	29299
812.29	29368
812.431	29478
812.573	29600
812.714	29687
812.855	29695
812.997	29874
813.138	29889
813.279	29824
813.421	29870
813.562	29714
813.703	29497
813.845	29440
813.986	29303
814.127	29208
814.268	29033
814.41	28961
814.551	28915
814.692	29048
814.833	28900
814.974	28904
815.115	28915
815.256	28824
815.397	28858
815.539	28930
815.68	28729
815.821	28641
815.962	28721
816.103	28805
816.244	28565
816.385	28550
816.526	28634
816.666	28455
816.807	28341
816.948	28291
817.089	28348
817.23	28268
817.371	28348
817.512	28363
817.653	28242
817.793	28139
817.934	28284
818.075	28173
818.216	28268
818.356	28116
818.497	28154
818.638	27987
818.778	27846
818.919	27983
819.06	28097
819.2	28021
819.341	28314
819.481	28253
819.622	28523
819.762	28736
819.903	28565
820.043	28542
820.184	28394
820.324	28341
820.465	28466
820.605	28375
820.746	28436
820.886	28101
821.026	28523
821.167	28215
821.307	28424
821.447	28318
821.588	28261
821.728	28150
821.868	27960
822.008	27743
822.149	27747
822.289	27736
822.429	27523
822.569	27439
822.709	27420
822.849	27260
822.99	27306
823.13	27249
823.27	27157
823.41	27081
823.55	27062
823.69	27173
823.83	27093
823.97	27070
824.11	26960
824.25	26948
824.389	26914
824.529	26914
824.669	26910
824.809	27131
824.949	27066
825.089	26994
825.228	26975
825.368	26735
825.508	26785
825.648	26868
825.787	26937
825.927	26857
826.067	26754
826.206	26788
826.346	26914
826.485	27005
826.625	26689
826.765	26929
826.904	26975
827.044	26583
827.183	26465
827.323	26332
827.462	26545
827.601	26461
827.741	26419
827.88	26461
828.02	26343
828.159	26507
828.298	26484
828.437	26408
828.577	26442
828.716	26511
828.855	26476
828.994	26134
829.134	26168
829.273	26313
829.412	26278
829.551	26164
829.69	26107
829.829	26233
829.968	26278
830.107	26172
830.246	26142
830.385	26183
830.524	26058
830.663	26065
830.802	25925
830.941	25837
831.08	25830
831.219	25864
831.357	25894
831.496	25959
831.635	25822
831.774	25662
831.913	25643
832.051	25594
832.19	25521
832.329	25628
832.467	25529
832.606	25537
832.744	25316
832.883	25476
833.022	25289
833.16	25460
833.299	25548
833.437	25521
833.576	25567
833.714	25613
833.852	25548
833.991	25563
834.129	25658
834.267	25590
834.406	25540
834.544	25605
834.682	25518
834.821	25472
834.959	25651
835.097	25472
835.235	25674
835.373	25491
835.511	25510
835.65	25426
835.788	25468
835.926	25179
836.064	25122
836.202	25240
836.34	25304
836.478	25419
836.615	25320
836.753	25346
836.891	25495
837.029	25339
837.167	25270
837.305	25316
837.443	25270
837.58	25171
837.718	25225
837.856	25152
837.993	25194
838.131	25198
838.269	25004
838.406	25107
838.544	24905
838.681	24821
838.819	24779
838.956	24627
839.094	24505
839.231	24795
839.369	24658
839.506	24966
839.643	24844
839.781	24513
839.918	24620
840.055	24635
840.193	24612
840.33	24646
840.467	24623
840.604	24559
840.742	24798
840.879	24494
841.016	24467
841.153	24509
841.29	24555
841.427	24612
841.564	24532
841.701	24517
841.838	24365
841.975	24483
842.112	24437
842.249	24365
842.385	24369
842.522	24505
842.659	24486
842.796	24384
842.933	24369
843.069	24346
843.206	24247
843.343	24414
843.479	24327
843.616	24296
843.752	24155
843.889	24079
844.025	24148
844.162	23920
844.298	24087
844.435	24018
844.571	24125
844.708	24159
844.844	24194
844.98	24178
845.117	24220
845.253	24018
845.389	23980
845.525	23912
845.661	23885
845.798	23687
845.934	23897
846.07	23703
846.206	23942
846.342	23977
846.478	23707
846.614	23452
846.75	23589
846.886	23589
847.022	23535
847.158	23516
847.294	23516
847.429	23520
847.565	23463
847.701	23699
847.837	23159
847.972	23235
848.108	23383
848.244	23261
848.379	23261
848.515	23041
848.65	23098
848.786	23193
848.921	23197
849.057	23341
849.192	23212
849.328	23189
849.463	23132
849.598	23094
849.734	22984
849.869	22908
850.004	22976
850.14	22908
850.275	22972
850.41	22873
850.545	22744
850.68	22744
850.815	22896
850.95	22889
851.085	22995
851.22	23048
851.355	22919
851.49	22873
851.625	22820
851.76	22805
851.895	22809
852.03	22698
852.165	22961
852.299	22995
852.434	22938
852.569	22835
852.703	22881
852.838	22934
852.973	22904
853.107	23025
853.242	22930
853.376	22759
853.511	22550
853.645	22706
853.78	22831
853.914	22736
854.048	22717
854.183	22740
854.317	22801
854.451	23044
854.585	22664
854.72	22622
854.854	22733
854.988	22641
855.122	22649
855.256	22440
855.39	22698
855.524	22649
855.658	22774
855.792	22790
855.926	22763
856.06	22733
856.194	22778
856.327	22694
856.461	22622
856.595	22683
856.729	22717
856.862	22675
856.996	22862
857.13	22755
857.263	22816
857.397	22858
857.53	22698
857.664	22694
857.797	22729
857.931	22934
858.064	22774
858.197	22847
858.331	22721
858.464	22580
858.597	22504
858.731	22721
858.864	22713
858.997	22603
859.13	22698
859.263	22702
859.396	22835
859.529	22596
859.662	22691
859.795	22649
859.928	22679
860.061	22892
860.194	22854
860.327	22843
860.46	22786
860.592	22767
860.725	22927
860.858	22824
860.99	22668
861.123	22721
861.256	22611
861.388	22820
861.521	23387
861.653	22694
861.786	22516
861.918	22645
862.05	22599
862.183	22512
862.315	22683
862.447	22683
862.58	22687
862.712	22489
862.844	22493
862.976	22478
863.108	22379
863.24	22934
863.372	22424
863.504	22379
863.636	22474
863.768	22497
863.9	22382
864.032	22318
864.164	22459
864.296	22493
864.428	22577
864.559	22557
864.691	22508
864.823	22459
864.954	22352
865.086	22337
865.217	22379
865.349	22253
865.48	22219
865.612	22386
865.743	22424
865.875	22211
866.006	22234
866.137	22322
866.269	22234
866.4	22207
866.531	22246
866.662	22173
866.793	22185
866.924	22238
867.055	22253
867.186	22325
867.317	22173
867.448	22154
867.579	22139
867.71	22185
867.841	22006
867.972	22211
868.103	22211
868.233	22207
868.364	22284
868.495	22306
868.625	22519
868.756	22519
868.886	22367
869.017	22356
869.147	22596
869.278	22622
869.408	22546
869.539	22409
869.669	22527
869.799	22497
869.929	22580
870.06	22561
870.19	22843
870.32	22816
870.45	22729
870.58	22812
870.71	22961
870.84	22755
870.97	22790
871.1	22835
871.23	22957
871.36	22995
871.489	22934
871.619	23086
871.749	23083
871.879	23048
872.008	23162
872.138	23094
872.267	23132
872.397	22987
872.526	22831
872.656	22968
872.785	22972
872.915	23090
873.044	23269
873.173	23113
873.303	23086
873.432	23113
873.561	23147
873.69	23025
873.819	23018
873.948	23071
874.077	23098
874.206	23071
874.335	23079
874.464	23178
874.593	23258
874.722	23261
874.851	23334
874.979	23360
875.108	23284
875.237	23296
875.365	23113
875.494	23162
875.623	23364
875.751	23193
875.88	23200
876.008	23330
876.136	23535
876.265	23802
876.393	23687
876.521	23767
876.65	23714
876.778	23771
876.906	23653
877.034	23573
877.162	23619
877.29	23478
877.418	23695
877.546	23710
877.674	23547
877.802	23539
877.93	23653
878.058	23661
878.185	23497
878.313	23501
878.441	23657
878.568	23383
878.696	23619
878.824	23687
878.951	23672
879.079	23870
879.206	23824
879.333	23847
879.461	23573
879.588	23687
879.715	23794
879.842	23809
879.97	23752
880.097	23429
880.224	23368
880.351	23516
880.478	23493
880.605	23379
880.732	23482
880.859	23627
880.986	23516
881.112	23372
881.239	23307
881.366	23193
881.493	23185
881.619	23197
881.746	23052
881.872	23075
881.999	22949
882.125	22938
882.252	23006
882.378	22968
882.505	23098
882.631	22980
882.757	22683
882.883	22729
883.01	22637
883.136	22607
883.262	22447
883.388	22405
883.514	22778
883.64	22740
883.766	22634
883.892	22466
884.018	22504
884.143	22561
884.269	22653
884.395	22371
884.52	22329
884.646	22242
884.772	22200
884.897	22295
885.023	22344
885.148	22375
885.274	22386
885.399	22352
885.524	22318
885.65	22276
885.775	22303
885.9	22367
886.025	22466
886.15	22352
886.275	22325
886.4	22215
886.525	22306
886.65	22261
886.775	22211
886.9	22322
887.025	22379
887.149	22306
887.274	22021
887.399	22032
887.523	22006
887.648	22173
887.773	21979
887.897	22147
888.021	22097
888.146	21922
888.27	22128
888.395	22135
888.519	22105
888.643	22105
888.767	22139
888.891	21869
889.015	21774
889.139	22006
889.263	21873
889.387	22013
889.511	22063
889.635	21915
889.759	21831
889.883	21736
890.006	21819
890.13	21983
890.254	21915
890.377	21778
890.501	21515
890.624	21534
890.748	21625
890.871	21500
890.995	21439
891.118	21230
891.241	21340
891.364	21428
891.488	21496
891.611	21306
891.734	21504
891.857	21447
891.98	21359
892.103	21450
892.226	21363
892.349	21256
892.471	21192
892.594	21348
892.717	21264
892.839	21230
892.962	21298
893.085	21264
893.207	21146
893.33	21135
893.452	21211
893.575	21264
893.697	21321
893.819	21462
893.941	21511
894.064	21386
894.186	21184
894.308	21195
894.43	21287
894.552	21374
894.674	21420
894.796	21112
894.918	21283
895.04	21233
895.161	21336
895.283	21127
895.405	21218
895.526	21260
895.648	21252
895.769	21195
895.891	21241
896.012	21447
896.134	21192
896.255	21332
896.376	21275
896.498	21127
896.619	21332
896.74	21184
896.861	21222
896.982	21557
897.103	21660
897.224	21530
897.345	21382
897.466	21454
897.587	21500
897.708	21686
897.828	21389
897.949	21370
898.07	21348
898.19	21447
898.311	21538
898.431	21397
898.552	21443
898.672	21599
898.792	21519
898.913	21466
899.033	21222
899.153	21169
899.273	21142
899.393	21077
899.513	21199
899.633	21214
899.753	21233
899.873	21055
899.993	21184
900.113	21108
900.232	21100
900.352	20990
900.472	20834
900.591	20804
900.711	20941
900.83	20849
900.95	21100
901.069	21127
901.189	20788
901.308	20530
901.427	20511
901.546	20400
901.665	20579
901.784	20507
901.904	20400
902.023	20271
902.141	20088
902.26	19928
902.379	20115
902.498	19894
902.617	20058
902.735	20115
902.854	19932
902.973	19898
903.091	19803
903.21	19780
903.328	19719
903.446	19537
903.565	19384
903.683	19476
903.801	19354
903.919	19487
904.038	19373
904.156	19236
904.274	19221
904.392	19168
904.51	19152
904.627	19175
904.745	19324
904.863	19221
904.981	19091
905.098	18966
905.216	18878
905.334	18848
905.451	18840
905.569	18726
905.686	18909
905.803	18779
905.921	18650
906.038	18844
906.155	18681
906.272	18741
906.389	18551
906.506	18532
906.623	18395
906.74	18391
906.857	18311
906.974	18357
907.091	18380
907.208	18525
907.324	18399
907.441	18224
907.557	18072
907.674	18060
907.79	18022
907.907	18140
908.023	18083
908.139	18117
908.256	18034
908.372	17999
908.488	17939
908.604	17840
908.72	17821
908.836	17771
908.952	17794
909.068	17821
909.184	17927
909.3	17821
909.415	17836
909.531	17882
909.647	17604
909.762	17490
909.878	17535
909.993	17505
910.108	17482
910.224	17425
910.339	17486
910.454	17376
910.57	17273
910.685	17227
910.8	17554
910.915	17471
911.03	17273
911.145	17140
911.259	17113
911.374	17170
911.489	17090
911.604	17006
911.718	16892
911.833	16797
911.947	16774
912.062	16672
912.176	16911
912.291	16881
912.405	16809
912.519	16957
912.633	16984
912.748	16858
912.862	16896
912.976	16717
913.09	16596
913.204	16656
913.318	16618
913.431	16618
913.545	16672
913.659	16755
913.772	16626
913.886	16455
914	16417
914.113	16542
914.226	16527
914.34	16447
914.453	16314
914.566	16535
914.68	16242
914.793	16249
914.906	16013
915.019	16067
915.132	15945
915.245	15987
915.358	16032
915.47	16071
915.583	16055
915.696	16006
915.809	16226
915.921	16147
916.034	15994
916.146	15876
916.259	15816
916.371	15865
916.483	15960
916.595	15850
916.708	15778
916.82	15778
916.932	15728
917.044	15766
917.156	15675
917.268	15603
917.38	15720
917.491	15545
917.603	15633
917.715	15698
917.826	15690
917.938	15530
918.049	15412
918.161	15477
918.272	15553
918.384	15679
918.495	15625
918.606	15401
918.717	15344
918.828	15386
918.939	15466
919.05	15317
919.161	15241
919.272	15135
919.383	15298
919.494	15389
919.604	15526
919.715	15370
919.826	15344
919.936	15313
920.047	15302
920.157	15245
920.267	15469
920.378	15321
920.488	15351
920.598	15420
920.708	15603
920.818	15466
920.928	15420
921.038	15564
921.148	15561
921.258	15283
921.368	15230
921.477	15051
921.587	14918
921.697	14998
921.806	15127
921.916	14807
922.025	14697
922.134	14644
922.244	14613
922.353	14621
922.462	14590
922.571	14476
922.68	14351
922.789	14267
922.898	14381
923.007	14199
923.116	14263
923.224	14336
923.333	14229
923.442	14134
923.55	14005
923.659	14138
923.767	14191
923.876	14031
923.984	14199
924.092	13974
924.201	14031
924.309	14050
924.417	13986
924.525	13963
924.633	13967
924.741	14724
924.849	13784
924.956	13871
925.064	13738
925.172	13590
925.279	13681
925.387	13658
925.494	13704
925.602	13761
925.709	13658
925.816	13571
925.924	13666
926.031	13658
926.138	13655
926.245	13715
926.352	13457
926.459	13609
926.566	13655
926.673	13502
926.779	13388
926.886	13392
926.993	13225
927.099	13137
927.206	13187
927.312	13137
927.419	13259
927.525	13194
927.631	13221
927.737	13065
927.843	13004
927.95	13008
928.056	12973
928.162	13046
928.267	13107
928.373	13677
928.479	13042
928.585	12814
928.69	12890
928.796	13050
928.901	12837
929.007	12722
929.112	12852
929.218	12829
929.323	12738
929.428	12665
929.533	12848
929.638	12669
929.743	12604
929.848	12776
929.953	12623
930.058	12536
930.163	12418
930.267	12376
930.372	12471
930.477	12346
930.581	12616
930.685	12372
930.79	12201
930.894	12311
930.998	12270
931.103	12338
931.207	11999
931.311	11863
931.415	11965
931.519	11608
931.623	11619
