Data from test_V78500241_1417.txt Node
Date: Fri Mar 25 15:51:37 CST 2022
User: usil
Spectrometer: V785-0024
Trigger mode: 0
Integration Time (sec): 4.000000E-1
Scans to average: 1
Nonlinearity correction enabled: false
Boxcar width: 0
Storing dark spectrum: false
XAxis mode: Wavelengths
Number of Pixels in Spectrum: 1024
>>>>>Begin Spectral Data<<<<<
801.071	28729
801.214	28694
801.356	28478
801.499	28356
801.641	28211
801.783	28192
801.926	28143
802.068	28124
802.211	28150
802.353	28109
802.496	27937
802.638	27937
802.78	28048
802.923	27831
803.065	27732
803.208	27755
803.35	27785
803.492	28044
803.635	28173
803.777	27968
803.919	28124
804.061	28440
804.204	28246
804.346	28139
804.488	28093
804.63	28139
804.773	27854
804.915	28219
805.057	28219
805.199	28158
805.341	28291
805.483	28299
805.626	28337
805.768	28276
805.91	28268
806.052	28390
806.194	28150
806.336	28504
806.478	28413
806.62	28257
806.762	28550
806.904	28569
807.046	28816
807.188	28710
807.33	28748
807.472	28812
807.614	28733
807.756	28713
807.898	28679
808.04	28637
808.182	28637
808.324	28554
808.465	28706
808.607	28835
808.749	28972
808.891	29014
809.033	29246
809.174	29102
809.316	28980
809.458	29113
809.6	29014
809.741	29227
809.883	29174
810.025	29280
810.166	29220
810.308	29159
810.45	29246
810.591	29155
810.733	28942
810.875	28957
811.016	28934
811.158	28816
811.299	28946
811.441	29216
811.582	29159
811.724	29060
811.865	28965
812.007	29041
812.148	28999
812.29	29022
812.431	29246
812.573	29296
812.714	29296
812.855	29516
812.997	29611
813.138	29745
813.279	29657
813.421	29592
813.562	29520
813.703	29490
813.845	29288
813.986	28850
814.127	28767
814.268	28660
814.41	28721
814.551	28607
814.692	28736
814.833	28573
814.974	28634
815.115	28561
815.256	28641
815.397	28599
815.539	28607
815.68	28653
815.821	28607
815.962	28421
816.103	28436
816.244	28352
816.385	28234
816.526	28219
816.666	28204
816.807	27945
816.948	28128
817.089	28143
817.23	28059
817.371	28124
817.512	28112
817.653	27998
817.793	27789
817.934	28067
818.075	28032
818.216	28078
818.356	27979
818.497	27934
818.638	27682
818.778	27755
818.919	27694
819.06	27793
819.2	27930
819.341	27926
819.481	28158
819.622	28253
819.762	28246
819.903	28215
820.043	28318
820.184	28196
820.324	28181
820.465	28268
820.605	28150
820.746	28154
820.886	27907
821.026	28017
821.167	28105
821.307	28135
821.447	27968
821.588	27956
821.728	27766
821.868	27625
822.008	27564
822.149	27564
822.289	27283
822.429	27393
822.569	27150
822.709	27180
822.849	27119
822.99	27127
823.13	27028
823.27	26963
823.41	26952
823.55	26883
823.69	26849
823.83	26819
823.97	26678
824.11	26648
824.25	26602
824.389	26613
824.529	26815
824.669	26606
824.809	26804
824.949	26823
825.089	26811
825.228	26609
825.368	26545
825.508	26393
825.648	26564
825.787	26503
825.927	26682
826.067	26552
826.206	26587
826.346	26537
826.485	26514
826.625	26514
826.765	26655
826.904	26560
827.044	26377
827.183	26286
827.323	26286
827.462	26210
827.601	26199
827.741	26237
827.88	26267
828.02	26206
828.159	26256
828.298	26199
828.437	26210
828.577	26305
828.716	26290
828.855	26069
828.994	25936
829.134	25963
829.273	26077
829.412	25902
829.551	25871
829.69	25871
829.829	25997
829.968	26111
830.107	25986
830.246	25944
830.385	25875
830.524	25841
830.663	25731
830.802	25597
830.941	25468
831.08	25464
831.219	25601
831.357	25597
831.496	25742
831.635	25628
831.774	25411
831.913	25483
832.051	25247
832.19	25285
832.329	25308
832.467	25236
832.606	25263
832.744	25141
832.883	25274
833.022	25145
833.16	25156
833.299	25266
833.437	25297
833.576	25285
833.714	25213
833.852	25411
833.991	25331
834.129	25365
834.267	25396
834.406	25137
834.544	25270
834.682	25232
834.821	25179
834.959	25457
835.097	25282
835.235	25392
835.373	25202
835.511	25285
835.65	25156
835.788	24970
835.926	25095
836.064	24875
836.202	24867
836.34	25099
836.478	25110
836.615	25042
836.753	25065
836.891	25103
837.029	25061
837.167	25091
837.305	25046
837.443	24989
837.58	24996
837.718	24882
837.856	25015
837.993	24951
838.131	24977
838.269	24764
838.406	24859
838.544	24726
838.681	24559
838.819	24422
838.956	24311
839.094	24376
839.231	24388
839.369	24498
839.506	24753
839.643	24627
839.781	24479
839.918	24296
840.055	24395
840.193	24426
840.33	24277
840.467	24197
840.604	24445
840.742	24688
840.879	24140
841.016	24209
841.153	24186
841.29	24277
841.427	24251
841.564	24315
841.701	24239
841.838	24121
841.975	24304
842.112	24148
842.249	24106
842.385	23965
842.522	24285
842.659	24076
842.796	24053
842.933	24011
843.069	23923
843.206	23843
843.343	24106
843.479	24022
843.616	23977
843.752	23809
843.889	23882
844.025	23969
844.162	23771
844.298	23878
844.435	23779
844.571	23824
844.708	23756
844.844	24038
844.98	24060
845.117	23927
845.253	23855
845.389	23646
845.525	23699
845.661	23703
845.798	23585
845.934	23630
846.07	23474
846.206	23478
846.342	23741
846.478	23535
846.614	23334
846.75	23056
846.886	23128
847.022	23288
847.158	23284
847.294	23208
847.429	23372
847.565	23246
847.701	23539
847.837	23029
847.972	22957
848.108	23060
848.244	23010
848.379	22984
848.515	22885
848.65	22831
848.786	22847
848.921	22987
849.057	22930
849.192	23010
849.328	22824
849.463	22866
849.598	22831
849.734	22778
849.869	22698
850.004	22557
850.14	22710
850.275	22672
850.41	22523
850.545	22432
850.68	22550
850.815	22573
850.95	22637
851.085	22653
851.22	22759
851.355	22679
851.49	22721
851.625	22554
851.76	22702
851.895	22584
852.03	22474
852.165	22584
852.299	22508
852.434	22740
852.569	22599
852.703	22535
852.838	22740
852.973	22782
853.107	22679
853.242	22542
853.376	22500
853.511	22325
853.645	22417
853.78	22580
853.914	22436
854.048	22280
854.183	22417
854.317	22421
854.451	22546
854.585	22421
854.72	22538
854.854	22603
854.988	22382
855.122	22371
855.256	22276
855.39	22421
855.524	22470
855.658	22470
855.792	22474
855.926	22390
856.06	22375
856.194	22451
856.327	22398
856.461	22386
856.595	22367
856.729	22535
856.862	22588
856.996	22508
857.13	22466
857.263	22584
857.397	22546
857.53	22371
857.664	22474
857.797	22561
857.931	22447
858.064	22489
858.197	22683
858.331	22356
858.464	22413
858.597	22276
858.731	22367
858.864	22352
858.997	22379
859.13	22459
859.263	22459
859.396	22546
859.529	22371
859.662	22344
859.795	22405
859.928	22417
860.061	22462
860.194	22668
860.327	22375
860.46	22462
860.592	22516
860.725	22584
860.858	22538
860.99	22428
861.123	22382
861.256	22405
861.388	22485
861.521	23044
861.653	22291
861.786	22276
861.918	22219
862.05	22295
862.183	22325
862.315	22306
862.447	22367
862.58	22287
862.712	22090
862.844	22215
862.976	22223
863.108	22215
863.24	22565
863.372	22029
863.504	22093
863.636	21975
863.768	22246
863.9	22135
864.032	22044
864.164	21968
864.296	22101
864.428	22299
864.559	22268
864.691	21968
864.823	22006
864.954	22032
865.086	22169
865.217	22086
865.349	22006
865.48	22059
865.612	22040
865.743	22154
865.875	21991
866.006	22097
866.137	22029
866.269	22006
866.4	22048
866.531	21979
866.662	21983
866.793	21850
866.924	22055
867.055	21972
867.186	21991
867.317	21869
867.448	21876
867.579	21838
867.71	21827
867.841	21819
867.972	21930
868.103	21934
868.233	21968
868.364	21994
868.495	22063
868.625	22135
868.756	22337
868.886	22021
869.017	22097
869.147	22322
869.278	22344
869.408	22154
869.539	22173
869.669	22276
869.799	22253
869.929	22303
870.06	22261
870.19	22493
870.32	22455
870.45	22409
870.58	22592
870.71	22702
870.84	22656
870.97	22634
871.1	22489
871.23	22763
871.36	22660
871.489	22641
871.619	22755
871.749	22778
871.879	22767
872.008	22949
872.138	22881
872.267	22607
872.397	22637
872.526	22664
872.656	22793
872.785	22615
872.915	22854
873.044	22824
873.173	22809
873.303	22858
873.432	22782
873.561	22923
873.69	22889
873.819	22653
873.948	22767
874.077	22892
874.206	22809
874.335	22755
874.464	22927
874.593	23121
874.722	23033
874.851	22999
874.979	23029
875.108	23109
875.237	23048
875.365	22831
875.494	23121
875.623	23147
875.751	22942
875.88	23018
876.008	23227
876.136	23189
876.265	23360
876.393	23608
876.521	23490
876.65	23486
876.778	23497
876.906	23269
877.034	23265
877.162	23284
877.29	23326
877.418	23376
877.546	23315
877.674	23376
877.802	23410
877.93	23349
878.058	23345
878.185	23250
878.313	23307
878.441	23436
878.568	23136
878.696	23250
878.824	23410
878.951	23337
879.079	23482
879.206	23642
879.333	23577
879.461	23364
879.588	23528
879.715	23619
879.842	23668
879.97	23395
880.097	23235
880.224	23193
880.351	23159
880.478	23254
880.605	23166
880.732	23246
880.859	23391
880.986	23208
881.112	23216
881.239	23029
881.366	22961
881.493	22820
881.619	22736
881.746	22835
881.872	22850
881.999	22763
882.125	22596
882.252	22809
882.378	22740
882.505	22866
882.631	22672
882.757	22417
882.883	22474
883.01	22432
883.136	22272
883.262	22333
883.388	22223
883.514	22432
883.64	22421
883.766	22356
883.892	22261
884.018	22139
884.143	22405
884.269	22527
884.395	22150
884.52	21994
884.646	22124
884.772	22025
884.897	22048
885.023	22070
885.148	22200
885.274	22173
885.399	22226
885.524	22093
885.65	22017
885.775	22048
885.9	21949
886.025	22230
886.15	22032
886.275	22143
886.4	22002
886.525	21983
886.65	21915
886.775	21865
886.9	22226
887.025	22310
887.149	21907
887.274	21835
887.399	21838
887.523	21831
887.648	21739
887.773	21671
887.897	21804
888.021	21789
888.146	21770
888.27	21816
888.395	21979
888.519	21785
888.643	21793
888.767	21873
888.891	21789
889.015	21660
889.139	21762
889.263	21709
889.387	21671
889.511	21778
889.635	21629
889.759	21576
889.883	21679
890.006	21622
890.13	21610
890.254	21603
890.377	21504
890.501	21416
890.624	21226
890.748	21393
890.871	21237
890.995	21176
891.118	21074
891.241	21275
891.364	21104
891.488	21367
891.611	21203
891.734	21119
891.857	21256
891.98	21112
892.103	21351
892.226	21165
892.349	21154
892.471	20918
892.594	20918
892.717	21116
892.839	21032
892.962	20941
893.085	21036
893.207	20925
893.33	20948
893.452	20960
893.575	21024
893.697	21066
893.819	21207
893.941	21233
894.064	21207
894.186	21039
894.308	20960
894.43	21036
894.552	21142
894.674	21123
894.796	21013
894.918	20986
895.04	20899
895.161	21077
895.283	21055
895.405	20937
895.526	21005
895.648	20944
895.769	21157
895.891	21009
896.012	21093
896.134	21150
896.255	21123
896.376	20986
896.498	21058
896.619	21077
896.74	20975
896.861	21017
896.982	21310
897.103	21450
897.224	21287
897.345	21192
897.466	21123
897.587	21184
897.708	21393
897.828	21252
897.949	21150
898.07	21013
898.19	21096
898.311	21268
898.431	21176
898.552	21150
898.672	21351
898.792	21260
898.913	21302
899.033	21123
899.153	20963
899.273	20929
899.393	20998
899.513	21096
899.633	20929
899.753	20906
899.873	20868
899.993	20952
900.113	20941
900.232	20979
900.352	20929
900.472	20765
900.591	20708
900.711	20693
900.83	20667
900.95	20750
901.069	20804
901.189	20648
901.308	20377
901.427	20328
901.546	20427
901.665	20400
901.784	20332
901.904	20122
902.023	19940
902.141	19928
902.26	19715
902.379	19822
902.498	19807
902.617	19719
902.735	19761
902.854	19742
902.973	19662
903.091	19373
903.21	19457
903.328	19483
903.446	19434
903.565	19301
903.683	19358
903.801	19076
903.919	19118
904.038	19152
904.156	19038
904.274	19088
904.392	18985
904.51	19015
904.627	18894
904.745	19023
904.863	19118
904.981	18916
905.098	18616
905.216	18753
905.334	18753
905.451	18669
905.569	18764
905.686	18650
905.803	18688
905.921	18445
906.038	18528
906.155	18327
906.272	18346
906.389	18410
906.506	18258
906.623	18296
906.74	18232
906.857	18133
906.974	18072
907.091	18350
907.208	18304
907.324	18228
907.441	18072
907.557	17889
907.674	17946
907.79	17863
907.907	17817
908.023	17863
908.139	17916
908.256	17912
908.372	17745
908.488	17836
908.604	17668
908.72	17630
908.836	17619
908.952	17581
909.068	17604
909.184	17809
909.3	17630
909.415	17566
909.531	17608
909.647	17444
909.762	17326
909.878	17185
909.993	17326
910.108	17254
910.224	17250
910.339	17261
910.454	17220
910.57	17098
910.685	17025
910.8	17379
910.915	17231
911.03	17029
911.145	16930
911.259	16915
911.374	16889
911.489	16763
911.604	16759
911.718	16653
911.833	16603
911.947	16531
912.062	16462
912.176	16721
912.291	16698
912.405	16569
912.519	16885
912.633	16866
912.748	16736
912.862	16622
912.976	16478
913.09	16363
913.204	16424
913.318	16459
913.431	16462
913.545	16542
913.659	16516
913.772	16413
913.886	16234
914	16204
914.113	16333
914.226	16306
914.34	16287
914.453	16200
914.566	16276
914.68	16211
914.793	16090
914.906	15800
915.019	15781
915.132	15789
915.245	15876
915.358	15774
915.47	15876
915.583	15808
915.696	15846
915.809	15964
915.921	15956
916.034	15823
916.146	15739
916.259	15618
916.371	15857
916.483	15747
916.595	15614
916.708	15618
916.82	15652
916.932	15603
917.044	15625
917.156	15568
917.268	15477
917.38	15549
917.491	15420
917.603	15454
917.715	15523
917.826	15553
917.938	15439
918.049	15226
918.161	15401
918.272	15454
918.384	15462
918.495	15351
918.606	15233
918.717	15173
918.828	15249
918.939	15188
919.05	15066
919.161	15142
919.272	15047
919.383	15097
919.494	15203
919.604	15329
919.715	15218
919.826	15066
919.936	15085
920.047	15214
920.157	15154
920.267	15302
920.378	15150
920.488	15009
920.598	15367
920.708	15420
920.818	15294
920.928	15283
921.038	15454
921.148	15298
921.258	15150
921.368	15070
921.477	14891
921.587	14796
921.697	14686
921.806	14883
921.916	14754
922.025	14636
922.134	14537
922.244	14503
922.353	14556
922.462	14370
922.571	14339
922.68	14199
922.789	14107
922.898	14119
923.007	14084
923.116	14221
923.224	14073
923.333	14054
923.442	13970
923.55	13967
923.659	13967
923.767	14027
923.876	13833
923.984	13890
924.092	13826
924.201	13875
924.309	13795
924.417	13879
924.525	13750
924.633	13738
924.741	14514
924.849	13590
924.956	13651
925.064	13518
925.172	13430
925.279	13396
925.387	13537
925.494	13430
925.602	13537
925.709	13594
925.816	13411
925.924	13460
926.031	13537
926.138	13346
926.245	13514
926.352	13297
926.459	13476
926.566	13502
926.673	13400
926.779	13221
926.886	13270
926.993	13171
927.099	13008
927.206	13012
927.312	12977
927.419	13202
927.525	13038
927.631	13019
927.737	12886
927.843	12840
927.95	12757
928.056	12833
928.162	12947
928.267	12947
928.373	13510
928.479	12916
928.585	12730
928.69	12875
928.796	12935
928.901	12711
929.007	12627
929.112	12730
929.218	12677
929.323	12635
929.428	12639
929.533	12753
929.638	12502
929.743	12582
929.848	12547
929.953	12506
930.058	12410
930.163	12213
930.267	12353
930.372	12376
930.477	12243
930.581	12380
930.685	12258
930.79	12159
930.894	12224
930.998	12095
931.103	12300
931.207	11870
931.311	11756
931.415	11668
931.519	11463
931.623	11455
