Data from test_V78500241_898.txt Node
Date: Fri Mar 25 15:48:01 CST 2022
User: usil
Spectrometer: V785-0024
Trigger mode: 0
Integration Time (sec): 4.000000E-1
Scans to average: 1
Nonlinearity correction enabled: false
Boxcar width: 0
Storing dark spectrum: false
XAxis mode: Wavelengths
Number of Pixels in Spectrum: 1024
>>>>>Begin Spectral Data<<<<<
801.071	28226
801.214	28223
801.356	27880
801.499	28032
801.641	27854
801.783	27869
801.926	27846
802.068	27922
802.211	27918
802.353	27599
802.496	27568
802.638	27694
802.78	27561
802.923	27485
803.065	27473
803.208	27313
803.35	27526
803.492	27641
803.635	27827
803.777	27603
803.919	27682
804.061	28173
804.204	27812
804.346	27660
804.488	27538
804.63	27515
804.773	27587
804.915	27808
805.057	27930
805.199	27732
805.341	27812
805.483	27865
805.626	27911
805.768	27793
805.91	27797
806.052	27914
806.194	27876
806.336	28063
806.478	28017
806.62	27945
806.762	27960
806.904	28158
807.046	28462
807.188	28223
807.33	28291
807.472	28447
807.614	28306
807.756	28329
807.898	28329
808.04	28242
808.182	28242
808.324	28204
808.465	28249
808.607	28459
808.749	28584
808.891	28683
809.033	28710
809.174	28664
809.316	28596
809.458	28565
809.6	28672
809.741	28755
809.883	28664
810.025	28908
810.166	28957
810.308	28885
810.45	28839
810.591	28740
810.733	28675
810.875	28573
811.016	28481
811.158	28508
811.299	28649
811.441	28839
811.582	28797
811.724	28717
811.865	28577
812.007	28717
812.148	28538
812.29	28790
812.431	28790
812.573	29067
812.714	29079
812.855	29067
812.997	29227
813.138	29318
813.279	29208
813.421	29151
813.562	29132
813.703	28812
813.845	28809
813.986	28679
814.127	28360
814.268	28306
814.41	28348
814.551	28192
814.692	28295
814.833	28318
814.974	28314
815.115	28253
815.256	28196
815.397	28284
815.539	28044
815.68	28055
815.821	28017
815.962	28204
816.103	28128
816.244	27983
816.385	27854
816.526	27888
816.666	27774
816.807	27641
816.948	27736
817.089	27633
817.23	27728
817.371	27675
817.512	27500
817.653	27644
817.793	27572
817.934	27557
818.075	27652
818.216	27637
818.356	27675
818.497	27519
818.638	27211
818.778	27283
818.919	27462
819.06	27519
819.2	27401
819.341	27610
819.481	27519
819.622	27785
819.762	27979
819.903	27869
820.043	27869
820.184	27755
820.324	27808
820.465	27732
820.605	27686
820.746	27759
820.886	27504
821.026	27732
821.167	27709
821.307	27770
821.447	27694
821.588	27572
821.728	27443
821.868	27287
822.008	27119
822.149	27176
822.289	27062
822.429	26883
822.569	26712
822.709	26777
822.849	26575
822.99	26670
823.13	26602
823.27	26571
823.41	26419
823.55	26339
823.69	26446
823.83	26282
823.97	26583
824.11	26191
824.25	26176
824.389	26313
824.529	26355
824.669	26221
824.809	26332
824.949	26351
825.089	26396
825.228	26183
825.368	26134
825.508	26225
825.648	26161
825.787	26191
825.927	26233
826.067	26001
826.206	26111
826.346	26081
826.485	26031
826.625	26210
826.765	26130
826.904	26191
827.044	25997
827.183	25898
827.323	25818
827.462	25890
827.601	25750
827.741	25712
827.88	25658
828.02	25685
828.159	25811
828.298	25826
828.437	25974
828.577	25776
828.716	25807
828.855	25601
828.994	25445
829.134	25331
829.273	25537
829.412	25373
829.551	25415
829.69	25563
829.829	25616
829.968	25487
830.107	25628
830.246	25556
830.385	25472
830.524	25339
830.663	25308
830.802	25209
830.941	25088
831.08	24958
831.219	25221
831.357	25137
831.496	25320
831.635	25114
831.774	25038
831.913	25057
832.051	24913
832.19	24791
832.329	24856
832.467	24837
832.606	24852
832.744	24848
832.883	24741
833.022	24791
833.16	24875
833.299	24935
833.437	24913
833.576	24901
833.714	24871
833.852	24894
833.991	24840
834.129	25050
834.267	24894
834.406	24920
834.544	24939
834.682	24837
834.821	24768
834.959	24958
835.097	24669
835.235	25000
835.373	24783
835.511	24859
835.65	24688
835.788	24703
835.926	24528
836.064	24350
836.202	24551
836.34	24589
836.478	24623
836.615	24677
836.753	24620
836.891	24810
837.029	24703
837.167	24661
837.305	24612
837.443	24559
837.58	24525
837.718	24620
837.856	24597
837.993	24570
838.131	24464
838.269	24513
838.406	24498
838.544	24334
838.681	24064
838.819	24159
838.956	23950
839.094	23939
839.231	24091
839.369	24159
839.506	24346
839.643	24174
839.781	23969
839.918	23912
840.055	23996
840.193	23973
840.33	23927
840.467	23923
840.604	23920
840.742	24254
840.879	23722
841.016	23939
841.153	23920
841.29	24030
841.427	23809
841.564	23897
841.701	23942
841.838	23809
841.975	23805
842.112	23832
842.249	23695
842.385	23760
842.522	23824
842.659	23760
842.796	23566
842.933	23714
843.069	23585
843.206	23589
843.343	23672
843.479	23668
843.616	23623
843.752	23414
843.889	23562
844.025	23600
844.162	23341
844.298	23436
844.435	23356
844.571	23353
844.708	23524
844.844	23596
844.98	23581
845.117	23531
845.253	23376
845.389	23330
845.525	23345
845.661	23231
845.798	23094
845.934	23189
846.07	22995
846.206	23113
846.342	23273
846.478	23147
846.614	22862
846.75	22961
846.886	22816
847.022	22881
847.158	22835
847.294	22938
847.429	22828
847.565	22828
847.701	23128
847.837	22656
847.972	22592
848.108	22584
848.244	22740
848.379	22440
848.515	22577
848.65	22322
848.786	22436
848.921	22382
849.057	22634
849.192	22577
849.328	22603
849.463	22523
849.598	22382
849.734	22276
849.869	22291
850.004	22162
850.14	22154
850.275	22337
850.41	22166
850.545	22181
850.68	22223
850.815	22242
850.95	22169
851.085	22405
851.22	22360
851.355	22284
851.49	22299
851.625	22166
851.76	22261
851.895	22074
852.03	22200
852.165	22181
852.299	22265
852.434	22348
852.569	22242
852.703	22242
852.838	22417
852.973	22398
853.107	22356
853.242	22204
853.376	21934
853.511	21975
853.645	22105
853.78	22067
853.914	22002
854.048	22124
854.183	21994
854.317	22109
854.451	22120
854.585	22082
854.72	22017
854.854	22154
854.988	21953
855.122	22143
855.256	21991
855.39	22078
855.524	22131
855.658	22120
855.792	22048
855.926	22070
856.06	22097
856.194	22112
856.327	21960
856.461	22048
856.595	22063
856.729	21934
856.862	22158
856.996	21983
857.13	22150
857.263	22154
857.397	22082
857.53	22029
857.664	22086
857.797	22188
857.931	22055
858.064	22063
858.197	22158
858.331	22055
858.464	21983
858.597	21975
858.731	21987
858.864	22048
858.997	22051
859.13	22090
859.263	22051
859.396	22070
859.529	21979
859.662	22070
859.795	22025
859.928	21975
860.061	22238
860.194	22181
860.327	22070
860.46	22013
860.592	22093
860.725	22196
860.858	22185
860.99	22128
861.123	22006
861.256	22173
861.388	21937
861.521	22565
861.653	21842
861.786	21781
861.918	21876
862.05	21915
862.183	21994
862.315	21956
862.447	22109
862.58	21907
862.712	21911
862.844	21778
862.976	21694
863.108	21838
863.24	22059
863.372	21705
863.504	21800
863.636	21800
863.768	21785
863.9	21774
864.032	21625
864.164	21736
864.296	21793
864.428	21857
864.559	21778
864.691	21808
864.823	21846
864.954	21717
865.086	21694
865.217	21553
865.349	21564
865.48	21732
865.612	21599
865.743	21846
865.875	21629
866.006	21587
866.137	21652
866.269	21606
866.4	21637
866.531	21538
866.662	21389
866.793	21428
866.924	21587
867.055	21644
867.186	21591
867.317	21492
867.448	21439
867.579	21614
867.71	21458
867.841	21466
867.972	21572
868.103	21523
868.233	21538
868.364	21564
868.495	21709
868.625	21724
868.756	21926
868.886	21603
869.017	21667
869.147	21880
869.278	21915
869.408	21846
869.539	21812
869.669	21873
869.799	21842
869.929	21861
870.06	21945
870.19	22109
870.32	22070
870.45	22139
870.58	22139
870.71	22295
870.84	22306
870.97	22112
871.1	22169
871.23	22489
871.36	22443
871.489	22382
871.619	22379
871.749	22230
871.879	22390
872.008	22550
872.138	22417
872.267	22356
872.397	22249
872.526	22169
872.656	22211
872.785	22276
872.915	22322
873.044	22500
873.173	22409
873.303	22436
873.432	22538
873.561	22447
873.69	22512
873.819	22474
873.948	22584
874.077	22417
874.206	22295
874.335	22360
874.464	22500
874.593	22630
874.722	22679
874.851	22725
874.979	22687
875.108	22752
875.237	22588
875.365	22592
875.494	22565
875.623	22710
875.751	22687
875.88	22668
876.008	22713
876.136	22767
876.265	23064
876.393	23128
876.521	23037
876.65	23162
876.778	22995
876.906	22961
877.034	22816
877.162	23102
877.29	22900
877.418	23048
877.546	23086
877.674	22984
877.802	22873
877.93	22984
878.058	22908
878.185	22854
878.313	22972
878.441	22995
878.568	22930
878.696	22847
878.824	22987
878.951	23094
879.079	23288
879.206	23280
879.333	23166
879.461	22949
879.588	23022
879.715	23124
879.842	23181
879.97	22942
880.097	22717
880.224	22892
880.351	22850
880.478	22774
880.605	22733
880.732	22805
880.859	22919
880.986	22790
881.112	22793
881.239	22778
881.366	22550
881.493	22402
881.619	22280
881.746	22436
881.872	22432
881.999	22421
882.125	22181
882.252	22409
882.378	22341
882.505	22478
882.631	22097
882.757	22078
882.883	22112
883.01	21960
883.136	21994
883.262	22006
883.388	21937
883.514	21972
883.64	21964
883.766	21960
883.892	21869
884.018	21846
884.143	21983
884.269	22017
884.395	21724
884.52	21606
884.646	21816
884.772	21675
884.897	21591
885.023	21720
885.148	21751
885.274	21857
885.399	21743
885.524	21743
885.65	21770
885.775	21656
885.9	21568
886.025	21835
886.15	21629
886.275	21671
886.4	21637
886.525	21599
886.65	21549
886.775	21603
886.9	21720
887.025	21816
887.149	21724
887.274	21420
887.399	21545
887.523	21443
887.648	21378
887.773	21397
887.897	21515
888.021	21538
888.146	21329
888.27	21648
888.395	21397
888.519	21473
888.643	21447
888.767	21439
888.891	21466
889.015	21188
889.139	21321
889.263	21214
889.387	21405
889.511	21389
889.635	21367
889.759	21157
889.883	21230
890.006	21142
890.13	21249
890.254	21241
890.377	21146
890.501	20963
890.624	21036
890.748	20952
890.871	20948
890.995	20785
891.118	20804
891.241	20861
891.364	20727
891.488	20918
891.611	20819
891.734	20823
891.857	20880
891.98	20849
892.103	20857
892.226	20777
892.349	20678
892.471	20571
892.594	20834
892.717	20682
892.839	20712
892.962	20724
893.085	20750
893.207	20663
893.33	20587
893.452	20602
893.575	20686
893.697	20579
893.819	20861
893.941	20876
894.064	20941
894.186	20552
894.308	20594
894.43	20739
894.552	20921
894.674	20785
894.796	20621
894.918	20644
895.04	20686
895.161	20754
895.283	20644
895.405	20549
895.526	20667
895.648	20632
895.769	20735
895.891	20720
896.012	20788
896.134	20754
896.255	20667
896.376	20651
896.498	20663
896.619	20727
896.74	20716
896.861	20750
896.982	20948
897.103	21165
897.224	20868
897.345	20868
897.466	20849
897.587	20906
897.708	21024
897.828	20887
897.949	20735
898.07	20796
898.19	20880
898.311	21047
898.431	20811
898.552	20807
898.672	21085
898.792	20975
898.913	20967
899.033	20788
899.153	20697
899.273	20560
899.393	20693
899.513	20655
899.633	20560
899.753	20659
899.873	20457
899.993	20644
900.113	20670
900.232	20587
900.352	20530
900.472	20423
900.591	20484
900.711	20556
900.83	20393
900.95	20522
901.069	20415
901.189	20206
901.308	20088
901.427	19879
901.546	20065
901.665	20039
901.784	20012
901.904	19860
902.023	19681
902.141	19609
902.26	19700
902.379	19628
902.498	19487
902.617	19388
902.735	19487
902.854	19422
902.973	19411
903.091	19225
903.21	19225
903.328	19091
903.446	18966
903.565	18989
903.683	18966
903.801	18871
903.919	18958
904.038	18863
904.156	18764
904.274	18719
904.392	18757
904.51	18700
904.627	18658
904.745	18722
904.863	18749
904.981	18513
905.098	18369
905.216	18391
905.334	18422
905.451	18429
905.569	18258
905.686	18544
905.803	18418
905.921	18095
906.038	18273
906.155	18201
906.272	18098
906.389	18159
906.506	17908
906.623	17847
906.74	17931
906.857	17942
906.974	17828
907.091	18019
907.208	18072
907.324	17977
907.441	17745
907.557	17771
907.674	17661
907.79	17486
907.907	17653
908.023	17604
908.139	17592
908.256	17493
908.372	17528
908.488	17364
908.604	17284
908.72	17227
908.836	17292
908.952	17334
909.068	17440
909.184	17372
909.3	17356
909.415	17486
909.531	17402
909.647	17159
909.762	17029
909.878	16957
909.993	17029
910.108	16965
910.224	16995
910.339	16995
910.454	16850
910.57	16900
910.685	16687
910.8	17143
910.915	17071
911.03	16820
911.145	16698
911.259	16637
911.374	16675
911.489	16558
911.604	16531
911.718	16394
911.833	16405
911.947	16318
912.062	16181
912.176	16379
912.291	16337
912.405	16417
912.519	16584
912.633	16550
912.748	16402
912.862	16284
912.976	16105
913.09	16147
913.204	16177
913.318	16196
913.431	16249
913.545	16257
913.659	16268
913.772	16078
913.886	15937
914	15987
914.113	16013
914.226	16093
914.34	16067
914.453	15869
914.566	16067
914.68	15846
914.793	15823
914.906	15644
915.019	15587
915.132	15488
915.245	15523
915.358	15507
915.47	15538
915.583	15591
915.696	15595
915.809	15778
915.921	15698
916.034	15488
916.146	15549
916.259	15447
916.371	15530
916.483	15469
916.595	15397
916.708	15370
916.82	15454
916.932	15359
917.044	15310
917.156	15268
917.268	15226
917.38	15241
917.491	15203
917.603	15272
917.715	15291
917.826	15336
917.938	15093
918.049	15036
918.161	15176
918.272	15291
918.384	15100
918.495	15024
918.606	14941
918.717	14956
918.828	14979
918.939	14986
919.05	14849
919.161	14876
919.272	14667
919.383	14712
919.494	15028
919.604	15123
919.715	14807
919.826	14823
919.936	14815
920.047	15024
920.157	14906
920.267	15028
920.378	14960
920.488	14895
920.598	15093
920.708	15241
920.818	15032
920.928	15039
921.038	15272
921.148	15123
921.258	14781
921.368	14754
921.477	14667
921.587	14602
921.697	14476
921.806	14602
921.916	14366
922.025	14377
922.134	14206
922.244	14252
922.353	14332
922.462	14115
922.571	14199
922.68	13887
922.789	13906
922.898	13940
923.007	13871
923.116	13898
923.224	13879
923.333	13784
923.442	13693
923.55	13750
923.659	13761
923.767	13803
923.876	13689
923.984	13708
924.092	13624
924.201	13708
924.309	13624
924.417	13715
924.525	13575
924.633	13704
924.741	14492
924.849	13316
924.956	13502
925.064	13278
925.172	13282
925.279	13282
925.387	13327
925.494	13301
925.602	13384
925.709	13282
925.816	13225
925.924	13301
926.031	13377
926.138	13251
926.245	13297
926.352	13217
926.459	13282
926.566	13247
926.673	13156
926.779	13050
926.886	13027
926.993	12981
927.099	12848
927.206	12806
927.312	12810
927.419	12920
927.525	12833
927.631	12810
927.737	12829
927.843	12707
927.95	12631
928.056	12715
928.162	12715
928.267	12719
928.373	13304
928.479	12715
928.585	12448
928.69	12665
928.796	12612
928.901	12498
929.007	12414
929.112	12574
929.218	12456
929.323	12429
929.428	12399
929.533	12517
929.638	12357
929.743	12270
929.848	12464
929.953	12403
930.058	12289
930.163	12019
930.267	12034
930.372	12216
930.477	12030
930.581	12213
930.685	12064
930.79	11999
930.894	12034
930.998	11980
931.103	12019
931.207	11710
931.311	11661
931.415	11490
931.519	11387
931.623	11311
