Data from test_V78500241_3299.txt Node
Date: Fri Mar 25 16:04:39 CST 2022
User: usil
Spectrometer: V785-0024
Trigger mode: 0
Integration Time (sec): 4.000000E-1
Scans to average: 1
Nonlinearity correction enabled: false
Boxcar width: 0
Storing dark spectrum: false
XAxis mode: Wavelengths
Number of Pixels in Spectrum: 1024
>>>>>Begin Spectral Data<<<<<
801.071	28626
801.214	28653
801.356	28478
801.499	28394
801.641	28379
801.783	28257
801.926	28329
802.068	28143
802.211	28249
802.353	28109
802.496	27846
802.638	27968
802.78	27956
802.923	27914
803.065	27808
803.208	27755
803.35	28029
803.492	28200
803.635	28105
803.777	28101
803.919	28185
804.061	28493
804.204	28249
804.346	28105
804.488	28188
804.63	28223
804.773	28032
804.915	28192
805.057	28310
805.199	28158
805.341	28105
805.483	28390
805.626	28268
805.768	28238
805.91	28440
806.052	28436
806.194	28318
806.336	28512
806.478	28352
806.62	28318
806.762	28466
806.904	28660
807.046	28900
807.188	28713
807.33	28831
807.472	28843
807.614	28679
807.756	28744
807.898	28622
808.04	28637
808.182	28630
808.324	28752
808.465	28752
808.607	28915
808.749	29010
808.891	29090
809.033	29128
809.174	29033
809.316	29025
809.458	29075
809.6	29086
809.741	29143
809.883	29166
810.025	29417
810.166	29455
810.308	29410
810.45	29288
810.591	29212
810.733	29204
810.875	28938
811.016	29018
811.158	29010
811.299	29136
811.441	29143
811.582	29239
811.724	29155
811.865	29098
812.007	29117
812.148	29121
812.29	29162
812.431	29231
812.573	29311
812.714	29543
812.855	29687
812.997	29535
813.138	29904
813.279	29859
813.421	29649
813.562	29512
813.703	29406
813.845	29239
813.986	28965
814.127	28976
814.268	28771
814.41	28710
814.551	28904
814.692	28801
814.833	28801
814.974	28809
815.115	28862
815.256	28710
815.397	28611
815.539	28554
815.68	28565
815.821	28508
815.962	28611
816.103	28645
816.244	28284
816.385	28500
816.526	28409
816.666	28200
816.807	28230
816.948	28067
817.089	28173
817.23	28105
817.371	28090
817.512	27918
817.653	28105
817.793	27964
817.934	28120
818.075	28150
818.216	28253
818.356	28048
818.497	27975
818.638	27850
818.778	27876
818.919	27876
819.06	27903
819.2	27903
819.341	28063
819.481	28105
819.622	28196
819.762	28443
819.903	28390
820.043	28299
820.184	28329
820.324	28219
820.465	28276
820.605	28177
820.746	28192
820.886	28116
821.026	28143
821.167	28105
821.307	28333
821.447	27968
821.588	27994
821.728	27876
821.868	27736
822.008	27481
822.149	27641
822.289	27545
822.429	27336
822.569	27260
822.709	27093
822.849	27176
822.99	27085
823.13	27100
823.27	26994
823.41	26811
823.55	26724
823.69	26868
823.83	26815
823.97	26887
824.11	26849
824.25	26579
824.389	26804
824.529	26739
824.669	26602
824.809	26792
824.949	26670
825.089	26735
825.228	26743
825.368	26625
825.508	26545
825.648	26556
825.787	26621
825.927	26644
826.067	26629
826.206	26617
826.346	26735
826.485	26708
826.625	26629
826.765	26514
826.904	26541
827.044	26434
827.183	26301
827.323	26381
827.462	26389
827.601	26324
827.741	26324
827.88	26267
828.02	26244
828.159	26263
828.298	26362
828.437	26374
828.577	26370
828.716	26374
828.855	26153
828.994	26107
829.134	26084
829.273	26088
829.412	26005
829.551	25993
829.69	25849
829.829	26065
829.968	26084
830.107	26107
830.246	25890
830.385	26016
830.524	25917
830.663	25635
830.802	25662
830.941	25624
831.08	25586
831.219	25662
831.357	25586
831.496	25784
831.635	25715
831.774	25407
831.913	25422
832.051	25419
832.19	25403
832.329	25491
832.467	25422
832.606	25266
832.744	25171
832.883	25320
833.022	25282
833.16	25301
833.299	25327
833.437	25263
833.576	25445
833.714	25278
833.852	25377
833.991	25411
834.129	25403
834.267	25400
834.406	25316
834.544	25377
834.682	25400
834.821	25301
834.959	25495
835.097	25270
835.235	25407
835.373	25304
835.511	25327
835.65	25274
835.788	25244
835.926	24905
836.064	24882
836.202	24973
836.34	25179
836.478	25247
836.615	25129
836.753	25190
836.891	25362
837.029	25278
837.167	25069
837.305	25015
837.443	24966
837.58	24882
837.718	25019
837.856	24973
837.993	24852
838.131	25031
838.269	24954
838.406	25038
838.544	24810
838.681	24589
838.819	24669
838.956	24464
839.094	24456
839.231	24475
839.369	24620
839.506	24817
839.643	24696
839.781	24528
839.918	24452
840.055	24437
840.193	24277
840.33	24357
840.467	24365
840.604	24574
840.742	24665
840.879	24273
841.016	24289
841.153	24205
841.29	24582
841.427	24315
841.564	24426
841.701	24330
841.838	24136
841.975	24277
842.112	24224
842.249	24148
842.385	24057
842.522	24410
842.659	24239
842.796	24117
842.933	24106
843.069	23988
843.206	24079
843.343	24117
843.479	24038
843.616	24083
843.752	23927
843.889	23942
844.025	23992
844.162	23897
844.298	24011
844.435	23874
844.571	23832
844.708	23828
844.844	23999
844.98	23984
845.117	23969
845.253	23878
845.389	23707
845.525	23722
845.661	23497
845.798	23767
845.934	23687
846.07	23543
846.206	23684
846.342	23707
846.478	23611
846.614	23372
846.75	23265
846.886	23341
847.022	23455
847.158	23364
847.294	23429
847.429	23433
847.565	23277
847.701	23581
847.837	23102
847.972	22968
848.108	23143
848.244	23113
848.379	23102
848.515	22957
848.65	22938
848.786	22953
848.921	22911
849.057	22919
849.192	23041
849.328	23010
849.463	22968
849.598	22900
849.734	22771
849.869	22809
850.004	22824
850.14	22771
850.275	22649
850.41	22554
850.545	22664
850.68	22653
850.815	22679
850.95	22713
851.085	22790
851.22	22946
851.355	22752
851.49	22637
851.625	22637
851.76	22656
851.895	22687
852.03	22603
852.165	22603
852.299	22675
852.434	22900
852.569	22675
852.703	22809
852.838	22835
852.973	22881
853.107	22816
853.242	22725
853.376	22584
853.511	22341
853.645	22546
853.78	22752
853.914	22546
854.048	22516
854.183	22447
854.317	22569
854.451	22797
854.585	22577
854.72	22500
854.854	22630
854.988	22531
855.122	22569
855.256	22481
855.39	22485
855.524	22683
855.658	22611
855.792	22691
855.926	22447
856.06	22599
856.194	22603
856.327	22561
856.461	22611
856.595	22470
856.729	22588
856.862	22656
856.996	22603
857.13	22691
857.263	22698
857.397	22653
857.53	22508
857.664	22527
857.797	22561
857.931	22641
858.064	22592
858.197	22740
858.331	22497
858.464	22424
858.597	22443
858.731	22436
858.864	22557
858.997	22637
859.13	22557
859.263	22649
859.396	22660
859.529	22512
859.662	22584
859.795	22474
859.928	22550
860.061	22752
860.194	22634
860.327	22649
860.46	22580
860.592	22683
860.725	22774
860.858	22698
860.99	22523
861.123	22580
861.256	22504
861.388	22497
861.521	23235
861.653	22500
861.786	22333
861.918	22238
862.05	22466
862.183	22424
862.315	22386
862.447	22481
862.58	22402
862.712	22230
862.844	22249
862.976	22424
863.108	22246
863.24	22771
863.372	22272
863.504	22242
863.636	22257
863.768	22223
863.9	22284
864.032	22188
864.164	22223
864.296	22272
864.428	22363
864.559	22265
864.691	22333
864.823	22230
864.954	22223
865.086	22173
865.217	22131
865.349	22074
865.48	22010
865.612	22105
865.743	22143
865.875	22181
866.006	22120
866.137	22181
866.269	22013
866.4	22116
866.531	22120
866.662	22010
866.793	22116
866.924	22143
867.055	22204
867.186	22147
867.317	22013
867.448	21991
867.579	22013
867.71	21972
867.841	21941
867.972	22207
868.103	21972
868.233	22101
868.364	22082
868.495	22177
868.625	22200
868.756	22497
868.886	22310
869.017	22306
869.147	22246
869.278	22512
869.408	22344
869.539	22348
869.669	22409
869.799	22455
869.929	22417
870.06	22322
870.19	22649
870.32	22493
870.45	22679
870.58	22656
870.71	22786
870.84	22755
870.97	22660
871.1	22816
871.23	22866
871.36	22892
871.489	22793
871.619	22816
871.749	22763
871.879	22942
872.008	23022
872.138	22801
872.267	22889
872.397	22755
872.526	22843
872.656	22706
872.785	22828
872.915	22938
873.044	22911
873.173	22869
873.303	22972
873.432	23098
873.561	22927
873.69	22961
873.819	22854
873.948	22957
874.077	22976
874.206	22938
874.335	22999
874.464	23075
874.593	23086
874.722	23140
874.851	23102
874.979	23132
875.108	23170
875.237	23048
875.365	23067
875.494	23044
875.623	23220
875.751	23159
875.88	23162
876.008	23178
876.136	23330
876.265	23482
876.393	23672
876.521	23501
876.65	23642
876.778	23444
876.906	23493
877.034	23478
877.162	23410
877.29	23395
877.418	23463
877.546	23551
877.674	23524
877.802	23425
877.93	23611
878.058	23364
878.185	23288
878.313	23444
878.441	23547
878.568	23132
878.696	23277
878.824	23520
878.951	23505
879.079	23615
879.206	23722
879.333	23596
879.461	23414
879.588	23551
879.715	23657
879.842	23802
879.97	23539
880.097	23231
880.224	23254
880.351	23269
880.478	23372
880.605	23254
880.732	23246
880.859	23627
880.986	23349
881.112	23223
881.239	23223
881.366	23025
881.493	22999
881.619	22911
881.746	22927
881.872	22908
881.999	22850
882.125	22854
882.252	22824
882.378	22698
882.505	22767
882.631	22721
882.757	22557
882.883	22618
883.01	22538
883.136	22508
883.262	22413
883.388	22306
883.514	22485
883.64	22523
883.766	22428
883.892	22261
884.018	22291
884.143	22402
884.269	22527
884.395	22287
884.52	22055
884.646	22116
884.772	22013
884.897	22025
885.023	22185
885.148	22219
885.274	22223
885.399	22188
885.524	22055
885.65	22173
885.775	22086
885.9	22013
886.025	22169
886.15	22177
886.275	22219
886.4	22017
886.525	21987
886.65	22040
886.775	22044
886.9	22234
887.025	22181
887.149	22268
887.274	21941
887.399	21873
887.523	21846
887.648	21941
887.773	21827
887.897	21934
888.021	21880
888.146	21766
888.27	22109
888.395	21972
888.519	21987
888.643	21857
888.767	21899
888.891	21823
889.015	21797
889.139	21759
889.263	21599
889.387	21842
889.511	21838
889.635	21907
889.759	21660
889.883	21751
890.006	21736
890.13	21705
890.254	21644
890.377	21644
890.501	21481
890.624	21348
890.748	21526
890.871	21473
890.995	21340
891.118	21062
891.241	21382
891.364	21207
891.488	21332
891.611	21268
891.734	21218
891.857	21272
891.98	21260
892.103	21374
892.226	21173
892.349	21138
892.471	21047
892.594	21272
892.717	21211
892.839	21108
892.962	21150
893.085	21207
893.207	21214
893.33	20963
893.452	21157
893.575	21119
893.697	21180
893.819	21203
893.941	21378
894.064	21241
894.186	21074
894.308	21047
894.43	21142
894.552	21386
894.674	21157
894.796	21146
894.918	21146
895.04	21131
895.161	21123
895.283	21195
895.405	21127
895.526	21146
895.648	21100
895.769	21203
895.891	21112
896.012	21173
896.134	21074
896.255	21127
896.376	21138
896.498	21074
896.619	21214
896.74	21051
896.861	21241
896.982	21458
897.103	21466
897.224	21435
897.345	21332
897.466	21355
897.587	21340
897.708	21355
897.828	21389
897.949	21287
898.07	21051
898.19	21176
898.311	21302
898.431	21313
898.552	21249
898.672	21405
898.792	21405
898.913	21397
899.033	21230
899.153	21207
899.273	21005
899.393	21074
899.513	21157
899.633	21047
899.753	21176
899.873	21005
899.993	21001
900.113	20933
900.232	21017
900.352	20975
900.472	20933
900.591	20785
900.711	20842
900.83	20739
900.95	20800
901.069	20804
901.189	20651
901.308	20427
901.427	20301
901.546	20362
901.665	20286
901.784	20438
901.904	20301
902.023	20161
902.141	20035
902.26	19913
902.379	20122
902.498	19852
902.617	19925
902.735	19925
902.854	19879
902.973	19765
903.091	19559
903.21	19559
903.328	19563
903.446	19377
903.565	19392
903.683	19407
903.801	19217
903.919	19206
904.038	19190
904.156	19129
904.274	19190
904.392	19069
904.51	18996
904.627	19069
904.745	19103
904.863	19145
904.981	18890
905.098	18711
905.216	18692
905.334	18715
905.451	18886
905.569	18738
905.686	18753
905.803	18749
905.921	18601
906.038	18646
906.155	18635
906.272	18418
906.389	18555
906.506	18342
906.623	18395
906.74	18258
906.857	18114
906.974	18163
907.091	18388
907.208	18308
907.324	18197
907.441	18167
907.557	17973
907.674	17992
907.79	17954
907.907	18057
908.023	18102
908.139	18015
908.256	17942
908.372	17893
908.488	17821
908.604	17783
908.72	17653
908.836	17752
908.952	17611
909.068	17714
909.184	17745
909.3	17611
909.415	17745
909.531	17668
909.647	17455
909.762	17395
909.878	17273
909.993	17471
910.108	17303
910.224	17395
910.339	17440
910.454	17151
910.57	17311
910.685	17102
910.8	17318
910.915	17433
911.03	17212
911.145	17105
911.259	16995
911.374	16927
911.489	16919
911.604	16824
911.718	16706
911.833	16596
911.947	16615
912.062	16622
912.176	16752
912.291	16774
912.405	16744
912.519	16942
912.633	16930
912.748	16866
912.862	16645
912.976	16596
913.09	16447
913.204	16478
913.318	16504
913.431	16660
913.545	16596
913.659	16664
913.772	16409
913.886	16424
914	16253
914.113	16303
914.226	16379
914.34	16447
914.453	16219
914.566	16276
914.68	16169
914.793	16158
914.906	15991
915.019	15975
915.132	15892
915.245	15895
915.358	15956
915.47	15911
915.583	15880
915.696	15888
915.809	16025
915.921	15972
916.034	15831
916.146	15774
916.259	15770
916.371	15804
916.483	15831
916.595	15561
916.708	15789
916.82	15667
916.932	15717
917.044	15686
917.156	15625
917.268	15572
917.38	15511
917.491	15557
917.603	15553
917.715	15580
917.826	15667
917.938	15401
918.049	15351
918.161	15462
918.272	15530
918.384	15496
918.495	15568
918.606	15370
918.717	15089
918.828	15332
918.939	15317
919.05	15192
919.161	15294
919.272	15108
919.383	15093
919.494	15310
919.604	15378
919.715	15211
919.826	15150
919.936	15237
920.047	15306
920.157	15245
920.267	15435
920.378	15294
920.488	15291
920.598	15302
920.708	15317
920.818	15310
920.928	15378
921.038	15485
921.148	15481
921.258	15108
921.368	15013
921.477	14990
921.587	14876
921.697	14819
921.806	14944
921.916	14834
922.025	14602
922.134	14533
922.244	14568
922.353	14610
922.462	14518
922.571	14343
922.68	14229
922.789	14317
922.898	14149
923.007	14077
923.116	14355
923.224	14126
923.333	14187
923.442	14058
923.55	13989
923.659	14027
923.767	14130
923.876	13974
923.984	14088
924.092	13997
924.201	13906
924.309	13959
924.417	13917
924.525	13830
924.633	13883
924.741	14716
924.849	13658
924.956	13822
925.064	13590
925.172	13521
925.279	13632
925.387	13689
925.494	13578
925.602	13670
925.709	13537
925.816	13449
925.924	13559
926.031	13582
926.138	13537
926.245	13491
926.352	13350
926.459	13601
926.566	13616
926.673	13438
926.779	13312
926.886	13350
926.993	13160
927.099	13126
927.206	13099
927.312	12985
927.419	13213
927.525	13122
927.631	13217
927.737	12977
927.843	13053
927.95	12867
928.056	12939
928.162	12871
928.267	12894
928.373	13491
928.479	12897
928.585	12741
928.69	12856
928.796	12954
928.901	12757
929.007	12593
929.112	12798
929.218	12764
929.323	12616
929.428	12555
929.533	12749
929.638	12578
929.743	12589
929.848	12620
929.953	12578
930.058	12555
930.163	12342
930.267	12334
930.372	12616
930.477	12224
930.581	12513
930.685	12281
930.79	12178
930.894	12201
930.998	12251
931.103	12277
931.207	12053
931.311	11790
931.415	11798
931.519	11634
931.623	11566
