Data from test_V78500241_337.txt Node
Date: Fri Mar 25 15:44:08 CST 2022
User: usil
Spectrometer: V785-0024
Trigger mode: 0
Integration Time (sec): 4.000000E-1
Scans to average: 1
Nonlinearity correction enabled: false
Boxcar width: 0
Storing dark spectrum: false
XAxis mode: Wavelengths
Number of Pixels in Spectrum: 1024
>>>>>Begin Spectral Data<<<<<
801.071	29817
801.214	29821
801.356	29501
801.499	29562
801.641	29516
801.783	29303
801.926	29570
802.068	29383
802.211	29349
802.353	29452
802.496	29060
802.638	29003
802.78	29117
802.923	29094
803.065	28850
803.208	29094
803.35	29064
803.492	29315
803.635	29261
803.777	29113
803.919	29250
804.061	29668
804.204	29227
804.346	29204
804.488	29318
804.63	29273
804.773	29113
804.915	29231
805.057	29391
805.199	29124
805.341	29368
805.483	29326
805.626	29402
805.768	29181
805.91	29410
806.052	29398
806.194	29379
806.336	29573
806.478	29417
806.62	29531
806.762	29501
806.904	29604
807.046	29935
807.188	29737
807.33	29794
807.472	29946
807.614	29794
807.756	29775
807.898	29573
808.04	29596
808.182	29615
808.324	29615
808.465	29699
808.607	29794
808.749	29882
808.891	30053
809.033	30159
809.174	30171
809.316	30030
809.458	30095
809.6	30045
809.741	30152
809.883	30213
810.025	30334
810.166	30338
810.308	30273
810.45	30266
810.591	30201
810.733	30140
810.875	30015
811.016	29977
811.158	30003
811.299	30129
811.441	30174
811.582	30201
811.724	30030
811.865	29961
812.007	30038
812.148	30060
812.29	30072
812.431	30167
812.573	30365
812.714	30441
812.855	30544
812.997	30669
813.138	30783
813.279	30764
813.421	30521
813.562	30540
813.703	30266
813.845	30224
813.986	29942
814.127	29828
814.268	29707
814.41	29912
814.551	29665
814.692	29779
814.833	29634
814.974	29608
815.115	29623
815.256	29471
815.397	29657
815.539	29478
815.68	29433
815.821	29391
815.962	29558
816.103	29433
816.244	29414
816.385	29212
816.526	29269
816.666	29174
816.807	29022
816.948	29025
817.089	29060
817.23	29056
817.371	29003
817.512	28927
817.653	28961
817.793	28839
817.934	29018
818.075	28862
818.216	28858
818.356	28820
818.497	28896
818.638	28588
818.778	28645
818.919	28637
819.06	28664
819.2	28801
819.341	29022
819.481	28885
819.622	29056
819.762	29166
819.903	29083
820.043	29044
820.184	29231
820.324	28896
820.465	29090
820.605	29060
820.746	28927
820.886	28866
821.026	28965
821.167	28881
821.307	28987
821.447	28927
821.588	28778
821.728	28664
821.868	28497
822.008	28348
822.149	28287
822.289	28390
822.429	27998
822.569	28032
822.709	28074
822.849	27679
822.99	27838
823.13	27770
823.27	27895
823.41	27618
823.55	27568
823.69	27606
823.83	27564
823.97	27572
824.11	27435
824.25	27469
824.389	27561
824.529	27629
824.669	27408
824.809	27633
824.949	27530
825.089	27492
825.228	27481
825.368	27211
825.508	27230
825.648	27367
825.787	27443
825.927	27233
826.067	27211
826.206	27294
826.346	27332
826.485	27287
826.625	27108
826.765	27481
826.904	27317
827.044	27055
827.183	26937
827.323	27066
827.462	27028
827.601	26979
827.741	26982
827.88	26864
828.02	26773
828.159	27036
828.298	26883
828.437	27005
828.577	26861
828.716	26899
828.855	26842
828.994	26785
829.134	26617
829.273	26686
829.412	26556
829.551	26526
829.69	26648
829.829	26663
829.968	26636
830.107	26693
830.246	26503
830.385	26571
830.524	26465
830.663	26457
830.802	26492
830.941	26199
831.08	26229
831.219	26183
831.357	26267
831.496	26385
831.635	26282
831.774	26180
831.913	26050
832.051	26062
832.19	25925
832.329	26054
832.467	25879
832.606	25860
832.744	25734
832.883	25807
833.022	25761
833.16	25860
833.299	25913
833.437	25830
833.576	25932
833.714	25928
833.852	25902
833.991	25871
834.129	25966
834.267	25906
834.406	25841
834.544	25826
834.682	25845
834.821	25799
834.959	25997
835.097	25807
835.235	25734
835.373	25807
835.511	25708
835.65	25552
835.788	25594
835.926	25658
836.064	25479
836.202	25514
836.34	25670
836.478	25677
836.615	25632
836.753	25704
836.891	25613
837.029	25635
837.167	25677
837.305	25635
837.443	25441
837.58	25594
837.718	25544
837.856	25510
837.993	25575
838.131	25434
838.269	25350
838.406	25464
838.544	25240
838.681	24966
838.819	25031
838.956	24939
839.094	24875
839.231	24932
839.369	25019
839.506	25190
839.643	25145
839.781	24863
839.918	24757
840.055	24852
840.193	24810
840.33	24764
840.467	24852
840.604	25019
840.742	25126
840.879	24616
841.016	24654
841.153	24521
841.29	24863
841.427	24741
841.564	24798
841.701	24646
841.838	24821
841.975	24532
842.112	24829
842.249	24460
842.385	24490
842.522	24593
842.659	24570
842.796	24475
842.933	24494
843.069	24350
843.206	24395
843.343	24517
843.479	24486
843.616	24471
843.752	24041
843.889	24346
844.025	24372
844.162	24304
844.298	24277
844.435	24391
844.571	24060
844.708	24315
844.844	24376
844.98	24346
845.117	24289
845.253	24129
845.389	24136
845.525	24209
845.661	24030
845.798	23965
845.934	23897
846.07	23935
846.206	24026
846.342	24045
846.478	23847
846.614	23798
846.75	23627
846.886	23672
847.022	23843
847.158	23687
847.294	23604
847.429	23630
847.565	23684
847.701	23904
847.837	23322
847.972	23368
848.108	23410
848.244	23474
848.379	23246
848.515	23037
848.65	23254
848.786	23227
848.921	23124
849.057	23227
849.192	23292
849.328	23246
849.463	23155
849.598	23105
849.734	23014
849.869	22930
850.004	22976
850.14	23071
850.275	23083
850.41	22957
850.545	22782
850.68	22858
850.815	23010
850.95	22946
851.085	23022
851.22	22991
851.355	22984
851.49	22854
851.625	22972
851.76	23025
851.895	22790
852.03	22900
852.165	22946
852.299	23102
852.434	23044
852.569	22965
852.703	22889
852.838	22991
852.973	23124
853.107	23048
853.242	22854
853.376	22759
853.511	22649
853.645	22664
853.78	22919
853.914	22702
854.048	22679
854.183	22630
854.317	22831
854.451	22930
854.585	22702
854.72	22763
854.854	22904
854.988	22691
855.122	22698
855.256	22615
855.39	22744
855.524	22828
855.658	22679
855.792	22721
855.926	22782
856.06	22824
856.194	22911
856.327	22835
856.461	22611
856.595	22736
856.729	22637
856.862	22858
856.996	22778
857.13	22706
857.263	22862
857.397	22797
857.53	22702
857.664	22656
857.797	22809
857.931	22790
858.064	22752
858.197	22850
858.331	22649
858.464	22599
858.597	22542
858.731	22557
858.864	22645
858.997	22672
859.13	22725
859.263	22691
859.396	22725
859.529	22615
859.662	22679
859.795	22577
859.928	22660
860.061	22725
860.194	22927
860.327	22725
860.46	22713
860.592	22752
860.725	22809
860.858	22862
860.99	22687
861.123	22771
861.256	22592
861.388	22801
861.521	23379
861.653	22603
861.786	22466
861.918	22542
862.05	22767
862.183	22656
862.315	22557
862.447	22759
862.58	22687
862.712	22516
862.844	22436
862.976	22443
863.108	22436
863.24	22721
863.372	22310
863.504	22405
863.636	22386
863.768	22405
863.9	22337
864.032	22249
864.164	22348
864.296	22318
864.428	22451
864.559	22436
864.691	22455
864.823	22306
864.954	22375
865.086	22265
865.217	22360
865.349	22303
865.48	22192
865.612	22341
865.743	22318
865.875	22166
866.006	22185
866.137	22333
866.269	22128
866.4	22405
866.531	22219
866.662	22025
866.793	22215
866.924	22109
867.055	22329
867.186	22166
867.317	22242
867.448	22143
867.579	21998
867.71	22200
867.841	22158
867.972	22188
868.103	22086
868.233	22116
868.364	22147
868.495	22215
868.625	22344
868.756	22421
868.886	22219
869.017	22287
869.147	22405
869.278	22508
869.408	22447
869.539	22485
869.669	22561
869.799	22405
869.929	22622
870.06	22538
870.19	22744
870.32	22786
870.45	22767
870.58	22713
870.71	22961
870.84	22877
870.97	22805
871.1	22767
871.23	22995
871.36	22900
871.489	22816
871.619	22866
871.749	23025
871.879	23041
872.008	22987
872.138	23022
872.267	23113
872.397	22877
872.526	22831
872.656	22938
872.785	22793
872.915	22961
873.044	23094
873.173	22995
873.303	23010
873.432	23090
873.561	23140
873.69	23006
873.819	23079
873.948	23124
874.077	23090
874.206	22869
874.335	23117
874.464	23128
874.593	23223
874.722	23151
874.851	23220
874.979	23159
875.108	23326
875.237	23109
875.365	23003
875.494	23113
875.623	23250
875.751	23197
875.88	23239
876.008	23254
876.136	23364
876.265	23722
876.393	23726
876.521	23665
876.65	23524
876.778	23630
876.906	23398
877.034	23611
877.162	23516
877.29	23535
877.418	23551
877.546	23573
877.674	23661
877.802	23493
877.93	23471
878.058	23387
878.185	23539
878.313	23516
878.441	23573
878.568	23448
878.696	23436
878.824	23535
878.951	23703
879.079	23665
879.206	23843
879.333	23733
879.461	23551
879.588	23695
879.715	23866
879.842	23775
879.97	23623
880.097	23292
880.224	23303
880.351	23524
880.478	23356
880.605	23356
880.732	23292
880.859	23642
880.986	23345
881.112	23433
881.239	23155
881.366	23159
881.493	23090
881.619	22972
881.746	22999
881.872	22987
881.999	22858
882.125	22911
882.252	22972
882.378	22995
882.505	23098
882.631	22793
882.757	22672
882.883	22717
883.01	22664
883.136	22603
883.262	22485
883.388	22390
883.514	22767
883.64	22755
883.766	22436
883.892	22360
884.018	22322
884.143	22546
884.269	22721
884.395	22367
884.52	22150
884.646	22318
884.772	22215
884.897	22093
885.023	22166
885.148	22375
885.274	22481
885.399	22303
885.524	22192
885.65	22272
885.775	22242
885.9	22291
886.025	22242
886.15	22268
886.275	22158
886.4	22105
886.525	22204
886.65	22128
886.775	22112
886.9	22303
887.025	22432
887.149	22154
887.274	22010
887.399	22002
887.523	22055
887.648	22013
887.773	21911
887.897	22063
888.021	22021
888.146	21850
888.27	22048
888.395	21979
888.519	22112
888.643	21949
888.767	21983
888.891	21911
889.015	21713
889.139	21739
889.263	21682
889.387	21884
889.511	22006
889.635	21861
889.759	21770
889.883	21781
890.006	21629
890.13	21857
890.254	21622
890.377	21637
890.501	21534
890.624	21420
890.748	21473
890.871	21332
890.995	21329
891.118	21272
891.241	21245
891.364	21268
891.488	21370
891.611	21340
891.734	21279
891.857	21428
891.98	21279
892.103	21302
892.226	21291
892.349	21237
892.471	21195
892.594	21264
892.717	21237
892.839	21146
892.962	21249
893.085	21214
893.207	21287
893.33	21173
893.452	21131
893.575	21321
893.697	21070
893.819	21317
893.941	21355
894.064	21363
894.186	21066
894.308	21188
894.43	21203
894.552	21245
894.674	21317
894.796	21024
894.918	21294
895.04	21093
895.161	21199
895.283	21184
895.405	21085
895.526	21207
895.648	21157
895.769	21252
895.891	21180
896.012	21340
896.134	21199
896.255	21176
896.376	21192
896.498	21165
896.619	21321
896.74	21123
896.861	21245
896.982	21587
897.103	21648
897.224	21511
897.345	21389
897.466	21378
897.587	21473
897.708	21583
897.828	21386
897.949	21344
898.07	21256
898.19	21321
898.311	21420
898.431	21321
898.552	21431
898.672	21485
898.792	21443
898.913	21462
899.033	21207
899.153	21070
899.273	21024
899.393	21233
899.513	21173
899.633	21119
899.753	21032
899.873	21043
899.993	21085
900.113	21131
900.232	21024
900.352	21005
900.472	20906
900.591	20857
900.711	20880
900.83	20815
900.95	20994
901.069	20906
901.189	20716
901.308	20514
901.427	20438
901.546	20476
901.665	20587
901.784	20347
901.904	20309
902.023	20237
902.141	19909
902.26	19993
902.379	19894
902.498	19887
902.617	19921
902.735	19959
902.854	19826
902.973	19852
903.091	19449
903.21	19540
903.328	19556
903.446	19472
903.565	19373
903.683	19354
903.801	19206
903.919	19312
904.038	19156
904.156	19088
904.274	19168
904.392	19141
904.51	19000
904.627	19038
904.745	19145
904.863	19247
904.981	18939
905.098	18920
905.216	18817
905.334	18715
905.451	18711
905.569	18688
905.686	18719
905.803	18741
905.921	18623
906.038	18711
906.155	18479
906.272	18350
906.389	18532
906.506	18357
906.623	18308
906.74	18292
906.857	18262
906.974	18083
907.091	18327
907.208	18441
907.324	18239
907.441	18148
907.557	18022
907.674	18106
907.79	17828
907.907	17980
908.023	18095
908.139	18015
908.256	17965
908.372	17813
908.488	17771
908.604	17752
908.72	17634
908.836	17657
908.952	17779
909.068	17710
909.184	17775
909.3	17573
909.415	17707
909.531	17691
909.647	17402
909.762	17345
909.878	17410
909.993	17353
910.108	17307
910.224	17235
910.339	17315
910.454	17197
910.57	17151
910.685	17109
910.8	17368
910.915	17315
911.03	17155
911.145	16923
911.259	16854
911.374	16991
911.489	16858
911.604	16793
911.718	16645
911.833	16759
911.947	16660
912.062	16508
912.176	16706
912.291	16577
912.405	16683
912.519	16854
912.633	16778
912.748	16668
912.862	16630
912.976	16443
913.09	16394
913.204	16443
913.318	16527
913.431	16645
913.545	16558
913.659	16554
913.772	16428
913.886	16268
914	16272
914.113	16379
914.226	16451
914.34	16287
914.453	16158
914.566	16310
914.68	16147
914.793	16044
914.906	15968
915.019	15861
915.132	15789
915.245	15861
915.358	15861
915.47	15804
915.583	15835
915.696	15842
915.809	15975
915.921	15956
916.034	15812
916.146	15751
916.259	15633
916.371	15819
916.483	15797
916.595	15568
916.708	15652
916.82	15584
916.932	15526
917.044	15530
917.156	15622
917.268	15485
917.38	15412
917.491	15435
917.603	15428
917.715	15538
917.826	15526
917.938	15424
918.049	15230
918.161	15344
918.272	15530
918.384	15492
918.495	15469
918.606	15249
918.717	15154
918.828	15268
918.939	15211
919.05	15154
919.161	15119
919.272	15013
919.383	14937
919.494	15135
919.604	15374
919.715	15150
919.826	15116
919.936	15097
920.047	15116
920.157	15195
920.267	15302
920.378	15131
920.488	15009
920.598	15275
920.708	15469
920.818	15123
920.928	15218
921.038	15504
921.148	15378
921.258	15131
921.368	15062
921.477	14880
921.587	14857
921.697	14716
921.806	14918
921.916	14621
922.025	14560
922.134	14427
922.244	14328
922.353	14560
922.462	14370
922.571	14332
922.68	14195
922.789	14092
922.898	14103
923.007	14050
923.116	14126
923.224	14088
923.333	14142
923.442	14024
923.55	13970
923.659	13921
923.767	13986
923.876	13811
923.984	13887
924.092	13822
924.201	13887
924.309	13932
924.417	13811
924.525	13750
924.633	13769
924.741	14552
924.849	13544
924.956	13693
925.064	13525
925.172	13476
925.279	13453
925.387	13571
925.494	13518
925.602	13624
925.709	13521
925.816	13316
925.924	13407
926.031	13472
926.138	13411
926.245	13521
926.352	13331
926.459	13422
926.566	13441
926.673	13358
926.779	13232
926.886	13221
926.993	13080
927.099	13183
927.206	13061
927.312	13038
927.419	13046
927.525	12924
927.631	12977
927.737	12962
927.843	12871
927.95	12779
928.056	12863
928.162	12821
928.267	12882
928.373	13597
928.479	12829
928.585	12631
928.69	12719
928.796	12848
928.901	12616
929.007	12517
929.112	12604
929.218	12608
929.323	12547
929.428	12547
929.533	12646
929.638	12566
929.743	12547
929.848	12604
929.953	12475
930.058	12365
930.163	12194
930.267	12254
930.372	12376
930.477	12175
930.581	12471
930.685	12311
930.79	12117
930.894	12155
930.998	12007
931.103	12117
931.207	11802
931.311	11703
931.415	11596
931.519	11410
931.623	11448
