Data from test_V78500241_3377.txt Node
Date: Fri Mar 25 16:05:11 CST 2022
User: usil
Spectrometer: V785-0024
Trigger mode: 0
Integration Time (sec): 4.000000E-1
Scans to average: 1
Nonlinearity correction enabled: false
Boxcar width: 0
Storing dark spectrum: false
XAxis mode: Wavelengths
Number of Pixels in Spectrum: 1024
>>>>>Begin Spectral Data<<<<<
801.071	28546
801.214	28508
801.356	28375
801.499	28078
801.641	28188
801.783	28010
801.926	28010
802.068	28067
802.211	27960
802.353	27987
802.496	27899
802.638	27876
802.78	27652
802.923	27641
803.065	27698
803.208	27709
803.35	27793
803.492	27934
803.635	28059
803.777	27884
803.919	27960
804.061	28306
804.204	28090
804.346	27991
804.488	27781
804.63	28013
804.773	27983
804.915	28032
805.057	28040
805.199	28013
805.341	28150
805.483	28147
805.626	28242
805.768	28074
805.91	28181
806.052	28200
806.194	28112
806.336	28413
806.478	28257
806.62	27994
806.762	28314
806.904	28386
807.046	28862
807.188	28546
807.33	28535
807.472	28675
807.614	28603
807.756	28554
807.898	28417
808.04	28443
808.182	28424
808.324	28443
808.465	28542
808.607	28809
808.749	28816
808.891	28923
809.033	29056
809.174	28930
809.316	28809
809.458	28778
809.6	28866
809.741	28949
809.883	29029
810.025	29124
810.166	29140
810.308	29056
810.45	29037
810.591	29075
810.733	28866
810.875	28812
811.016	28820
811.158	28816
811.299	29044
811.441	28927
811.582	29014
811.724	28915
811.865	28991
812.007	28888
812.148	28934
812.29	28877
812.431	28957
812.573	29174
812.714	29124
812.855	29379
812.997	29474
813.138	29691
813.279	29493
813.421	29299
813.562	29227
813.703	29105
813.845	29113
813.986	28725
814.127	28660
814.268	28538
814.41	28679
814.551	28504
814.692	28527
814.833	28459
814.974	28459
815.115	28603
815.256	28371
815.397	28481
815.539	28413
815.68	28341
815.821	28455
815.962	28409
816.103	28341
816.244	28120
816.385	28044
816.526	28025
816.666	27934
816.807	27793
816.948	27873
817.089	28017
817.23	28013
817.371	27819
817.512	27899
817.653	27762
817.793	27713
817.934	27850
818.075	27797
818.216	27998
818.356	27819
818.497	27747
818.638	27610
818.778	27667
818.919	27644
819.06	27717
819.2	27922
819.341	27899
819.481	27873
819.622	27964
819.762	28394
819.903	28162
820.043	28078
820.184	28048
820.324	28013
820.465	27960
820.605	28044
820.746	27934
820.886	27869
821.026	27911
821.167	28029
821.307	28036
821.447	27930
821.588	27800
821.728	27694
821.868	27488
822.008	27310
822.149	27534
822.289	27294
822.429	27176
822.569	26948
822.709	27077
822.849	26937
822.99	26876
823.13	26781
823.27	26842
823.41	26693
823.55	26579
823.69	26727
823.83	26655
823.97	26575
824.11	26374
824.25	26446
824.389	26480
824.529	26514
824.669	26412
824.809	26632
824.949	26530
825.089	26602
825.228	26602
825.368	26453
825.508	26381
825.648	26298
825.787	26442
825.927	26480
826.067	26457
826.206	26457
826.346	26415
826.485	26355
826.625	26492
826.765	26492
826.904	26427
827.044	26111
827.183	26119
827.323	26122
827.462	26259
827.601	26157
827.741	26149
827.88	26012
828.02	26077
828.159	25993
828.298	26122
828.437	26271
828.577	26126
828.716	26126
828.855	25906
828.994	25780
829.134	25799
829.273	25879
829.412	25795
829.551	25712
829.69	25814
829.829	25833
829.968	25944
830.107	25856
830.246	25856
830.385	25776
830.524	25715
830.663	25658
830.802	25594
830.941	25449
831.08	25304
831.219	25457
831.357	25544
831.496	25643
831.635	25362
831.774	25228
831.913	25346
832.051	25240
832.19	25194
832.329	25358
832.467	25107
832.606	24970
832.744	25004
832.883	25019
833.022	25080
833.16	25038
833.299	25126
833.437	25099
833.576	25145
833.714	25316
833.852	25156
833.991	25194
834.129	25217
834.267	25198
834.406	25255
834.544	25156
834.682	25168
834.821	25244
834.959	25217
835.097	24996
835.235	25232
835.373	25065
835.511	25076
835.65	25023
835.788	24973
835.926	24844
836.064	24817
836.202	24875
836.34	24989
836.478	25110
836.615	24848
836.753	24992
836.891	25015
837.029	24882
837.167	24909
837.305	24757
837.443	25000
837.58	24730
837.718	24783
837.856	24798
837.993	24779
838.131	24844
838.269	24715
838.406	24768
838.544	24589
838.681	24563
838.819	24429
838.956	24289
839.094	24209
839.231	24315
839.369	24437
839.506	24623
839.643	24448
839.781	24247
839.918	24144
840.055	24334
840.193	24144
840.33	24190
840.467	24209
840.604	24171
840.742	24528
840.879	24045
841.016	24171
841.153	24038
841.29	24311
841.427	24091
841.564	24224
841.701	24174
841.838	24163
841.975	24136
842.112	24038
842.249	24011
842.385	23999
842.522	24114
842.659	23992
842.796	24076
842.933	23950
843.069	23908
843.206	23847
843.343	24174
843.479	23977
843.616	23882
843.752	23665
843.889	23722
844.025	23805
844.162	23714
844.298	23760
844.435	23714
844.571	23672
844.708	23790
844.844	23767
844.98	23866
845.117	23855
845.253	23687
845.389	23657
845.525	23649
845.661	23600
845.798	23554
845.934	23535
846.07	23501
846.206	23471
846.342	23611
846.478	23429
846.614	23261
846.75	23029
846.886	23147
847.022	23349
847.158	23185
847.294	23140
847.429	23269
847.565	22984
847.701	23425
847.837	22904
847.972	22801
848.108	22987
848.244	23037
848.379	22854
848.515	22816
848.65	22729
848.786	22873
848.921	22801
849.057	22980
849.192	22881
849.328	22862
849.463	22820
849.598	22828
849.734	22637
849.869	22554
850.004	22440
850.14	22615
850.275	22550
850.41	22546
850.545	22535
850.68	22538
850.815	22611
850.95	22668
851.085	22755
851.22	22748
851.355	22538
851.49	22519
851.625	22470
851.76	22447
851.895	22443
852.03	22436
852.165	22493
852.299	22523
852.434	22573
852.569	22535
852.703	22478
852.838	22702
852.973	22767
853.107	22664
853.242	22462
853.376	22424
853.511	22367
853.645	22314
853.78	22516
853.914	22527
854.048	22337
854.183	22417
854.317	22459
854.451	22668
854.585	22356
854.72	22443
854.854	22398
854.988	22265
855.122	22382
855.256	22344
855.39	22310
855.524	22455
855.658	22466
855.792	22455
855.926	22333
856.06	22459
856.194	22459
856.327	22344
856.461	22310
856.595	22367
856.729	22291
856.862	22527
856.996	22344
857.13	22459
857.263	22512
857.397	22512
857.53	22352
857.664	22459
857.797	22409
857.931	22504
858.064	22436
858.197	22554
858.331	22322
858.464	22169
858.597	22242
858.731	22329
858.864	22337
858.997	22257
859.13	22371
859.263	22299
859.396	22550
859.529	22428
859.662	22379
859.795	22253
859.928	22337
860.061	22485
860.194	22512
860.327	22413
860.46	22504
860.592	22462
860.725	22512
860.858	22512
860.99	22356
861.123	22306
861.256	22310
861.388	22356
861.521	23121
861.653	22135
861.786	22086
861.918	22070
862.05	22268
862.183	22352
862.315	22249
862.447	22394
862.58	22280
862.712	22070
862.844	21994
862.976	22147
863.108	22192
863.24	22588
863.372	22002
863.504	22036
863.636	22070
863.768	22090
863.9	22105
864.032	22048
864.164	22188
864.296	22044
864.428	22048
864.559	22063
864.691	22131
864.823	22032
864.954	22120
865.086	21972
865.217	21983
865.349	22029
865.48	22017
865.612	21983
865.743	22188
865.875	21934
866.006	21808
866.137	21934
866.269	21899
866.4	22010
866.531	21983
866.662	21892
866.793	21857
866.924	21819
867.055	21895
867.186	21968
867.317	21797
867.448	21838
867.579	21808
867.71	21793
867.841	21743
867.972	21865
868.103	21892
868.233	21956
868.364	21918
868.495	21899
868.625	22063
868.756	22188
868.886	22082
869.017	22135
869.147	22226
869.278	22276
869.408	22207
869.539	22063
869.669	22150
869.799	22162
869.929	22329
870.06	22268
870.19	22493
870.32	22447
870.45	22443
870.58	22618
870.71	22500
870.84	22691
870.97	22535
871.1	22512
871.23	22691
871.36	22694
871.489	22580
871.619	22752
871.749	22672
871.879	22828
872.008	22786
872.138	22698
872.267	22778
872.397	22675
872.526	22577
872.656	22508
872.785	22550
872.915	22664
873.044	22793
873.173	22801
873.303	22885
873.432	22805
873.561	22828
873.69	22847
873.819	22660
873.948	22793
874.077	22725
874.206	22672
874.335	22835
874.464	22854
874.593	23029
874.722	23029
874.851	22949
874.979	22987
875.108	23052
875.237	22885
875.365	22862
875.494	22942
875.623	23060
875.751	22908
875.88	23022
876.008	23170
876.136	23178
876.265	23524
876.393	23383
876.521	23471
876.65	23539
876.778	23292
876.906	23212
877.034	23197
877.162	23242
877.29	23246
877.418	23410
877.546	23440
877.674	23273
877.802	23273
877.93	23353
878.058	23227
878.185	23117
878.313	23269
878.441	23322
878.568	23025
878.696	23208
878.824	23296
878.951	23467
879.079	23391
879.206	23577
879.333	23524
879.461	23425
879.588	23356
879.715	23539
879.842	23642
879.97	23387
880.097	23212
880.224	23124
880.351	23151
880.478	23098
880.605	23124
880.732	23098
880.859	23303
880.986	23121
881.112	23204
881.239	23022
881.366	22908
881.493	22767
881.619	22630
881.746	22672
881.872	22790
881.999	22683
882.125	22706
882.252	22752
882.378	22736
882.505	22778
882.631	22485
882.757	22478
882.883	22478
883.01	22504
883.136	22375
883.262	22200
883.388	22352
883.514	22455
883.64	22318
883.766	22386
883.892	22120
884.018	22002
884.143	22150
884.269	22409
884.395	22078
884.52	21975
884.646	22120
884.772	21953
884.897	21930
885.023	22044
885.148	22070
885.274	22211
885.399	21888
885.524	22040
885.65	21991
885.775	22029
885.9	22002
886.025	22120
886.15	22090
886.275	22002
886.4	22036
886.525	21949
886.65	21846
886.775	21968
886.9	22135
887.025	22067
887.149	21937
887.274	21823
887.399	21713
887.523	21709
887.648	21660
887.773	21648
887.897	21774
888.021	21762
888.146	21682
888.27	21789
888.395	21884
888.519	21861
888.643	21656
888.767	21835
888.891	21701
889.015	21515
889.139	21682
889.263	21439
889.387	21504
889.511	21762
889.635	21660
889.759	21534
889.883	21549
890.006	21561
890.13	21652
890.254	21450
890.377	21439
890.501	21275
890.624	21275
890.748	21268
890.871	21306
890.995	21207
891.118	21089
891.241	21165
891.364	21116
891.488	21264
891.611	21070
891.734	21184
891.857	21108
891.98	21100
892.103	21214
892.226	21165
892.349	21009
892.471	20872
892.594	20986
892.717	21024
892.839	20914
892.962	21028
893.085	21077
893.207	20925
893.33	21009
893.452	20868
893.575	21058
893.697	20921
893.819	21112
893.941	21252
894.064	21176
894.186	20834
894.308	20788
894.43	21150
894.552	21127
894.674	21058
894.796	20963
894.918	21043
895.04	20929
895.161	21104
895.283	21074
895.405	20921
895.526	20948
895.648	20967
895.769	21058
895.891	20990
896.012	21017
896.134	21051
896.255	20895
896.376	20906
896.498	20998
896.619	21017
896.74	20986
896.861	21058
896.982	21332
897.103	21313
897.224	21142
897.345	21199
897.466	21074
897.587	21211
897.708	21310
897.828	21096
897.949	21176
898.07	20929
898.19	21142
898.311	21184
898.431	21173
898.552	21104
898.672	21230
898.792	21211
898.913	21173
899.033	20956
899.153	21036
899.273	20861
899.393	20910
899.513	20929
899.633	20902
899.753	20914
899.873	20819
899.993	20948
900.113	20765
900.232	20857
900.352	20754
900.472	20750
900.591	20674
900.711	20746
900.83	20530
900.95	20712
901.069	20724
901.189	20571
901.308	20305
901.427	20172
901.546	20206
901.665	20305
901.784	20210
901.904	20084
902.023	19944
902.141	19879
902.26	19681
902.379	19753
902.498	19826
902.617	19727
902.735	19830
902.854	19662
902.973	19635
903.091	19419
903.21	19449
903.328	19354
903.446	19327
903.565	19331
903.683	19232
903.801	18996
903.919	19137
904.038	19118
904.156	18970
904.274	18970
904.392	18958
904.51	18996
904.627	18935
904.745	19099
904.863	19023
904.981	18791
905.098	18589
905.216	18673
905.334	18802
905.451	18688
905.569	18502
905.686	18772
905.803	18673
905.921	18388
906.038	18445
906.155	18426
906.272	18258
906.389	18426
906.506	18152
906.623	18167
906.74	18091
906.857	18022
906.974	18015
907.091	18144
907.208	18209
907.324	18224
907.441	18072
907.557	17897
907.674	17969
907.79	17824
907.907	17760
908.023	17973
908.139	17912
908.256	17779
908.372	17748
908.488	17821
908.604	17585
908.72	17524
908.836	17668
908.952	17714
909.068	17581
909.184	17642
909.3	17474
909.415	17665
909.531	17528
909.647	17292
909.762	17307
909.878	17200
909.993	17379
910.108	17315
910.224	17273
910.339	17337
910.454	17178
910.57	17025
910.685	16980
910.8	17368
910.915	17178
911.03	17083
911.145	16816
911.259	16805
911.374	16938
911.489	16809
911.604	16847
911.718	16599
911.833	16615
911.947	16504
912.062	16554
912.176	16577
912.291	16535
912.405	16653
912.519	16725
912.633	16733
912.748	16554
912.862	16580
912.976	16333
913.09	16226
913.204	16447
913.318	16428
913.431	16519
913.545	16481
913.659	16508
913.772	16478
913.886	16257
914	16207
914.113	16181
914.226	16322
914.34	16325
914.453	16112
914.566	16143
914.68	16120
914.793	16032
914.906	15930
915.019	15705
915.132	15724
915.245	15846
915.358	15804
915.47	15778
915.583	15751
915.696	15755
915.809	15869
915.921	15895
916.034	15705
916.146	15720
916.259	15633
916.371	15797
916.483	15823
916.595	15663
916.708	15622
916.82	15599
916.932	15629
917.044	15591
917.156	15488
917.268	15488
917.38	15447
917.491	15447
917.603	15405
917.715	15450
917.826	15507
917.938	15249
918.049	15302
918.161	15401
918.272	15477
918.384	15370
918.495	15298
918.606	15214
918.717	15119
918.828	15214
918.939	15176
919.05	15074
919.161	15119
919.272	14933
919.383	15001
919.494	15226
919.604	15203
919.715	15104
919.826	15055
919.936	15085
920.047	15146
920.157	15100
920.267	15325
920.378	15119
920.488	14986
920.598	15310
920.708	15367
920.818	15268
920.928	15207
921.038	15340
921.148	15306
921.258	14956
921.368	14929
921.477	14849
921.587	14845
921.697	14697
921.806	14724
921.916	14724
922.025	14446
922.134	14434
922.244	14488
922.353	14431
922.462	14317
922.571	14358
922.68	14161
922.789	14100
922.898	14119
923.007	14119
923.116	14164
923.224	14005
923.333	14020
923.442	14077
923.55	13940
923.659	13932
923.767	13928
923.876	13921
923.984	13822
924.092	13818
924.201	13776
924.309	13845
924.417	13875
924.525	13723
924.633	13704
924.741	14716
924.849	13495
924.956	13757
925.064	13590
925.172	13392
925.279	13453
925.387	13476
925.494	13514
925.602	13605
925.709	13510
925.816	13460
925.924	13464
926.031	13556
926.138	13365
926.245	13540
926.352	13354
926.459	13350
926.566	13521
926.673	13365
926.779	13217
926.886	13327
926.993	13103
927.099	13091
927.206	13023
927.312	12981
927.419	13027
927.525	12970
927.631	13091
927.737	12962
927.843	12905
927.95	12760
928.056	12894
928.162	12817
928.267	12954
928.373	13377
928.479	12890
928.585	12696
928.69	12776
928.796	12852
928.901	12669
929.007	12525
929.112	12639
929.218	12642
929.323	12597
929.428	12536
929.533	12635
929.638	12418
929.743	12509
929.848	12551
929.953	12525
930.058	12460
930.163	12247
930.267	12228
930.372	12361
930.477	12224
930.581	12429
930.685	12209
930.79	12167
930.894	12110
930.998	12083
931.103	12235
931.207	11870
931.311	11832
931.415	11783
931.519	11474
931.623	11467
