Data from test_V78500241_3581.txt Node
Date: Fri Mar 25 16:06:36 CST 2022
User: usil
Spectrometer: V785-0024
Trigger mode: 0
Integration Time (sec): 4.000000E-1
Scans to average: 1
Nonlinearity correction enabled: false
Boxcar width: 0
Storing dark spectrum: false
XAxis mode: Wavelengths
Number of Pixels in Spectrum: 1024
>>>>>Begin Spectral Data<<<<<
801.071	28767
801.214	28847
801.356	28561
801.499	28531
801.641	28409
801.783	28276
801.926	28371
802.068	28413
802.211	28363
802.353	28166
802.496	28143
802.638	28192
802.78	28109
802.923	28048
803.065	27907
803.208	28128
803.35	28116
803.492	28200
803.635	28356
803.777	28196
803.919	28272
804.061	28573
804.204	28367
804.346	28173
804.488	28219
804.63	28329
804.773	28230
804.915	28405
805.057	28565
805.199	28417
805.341	28565
805.483	28573
805.626	28550
805.768	28516
805.91	28546
806.052	28500
806.194	28516
806.336	28607
806.478	28535
806.62	28550
806.762	28611
806.904	28771
807.046	29003
807.188	28911
807.33	29025
807.472	29025
807.614	28843
807.756	28888
807.898	28812
808.04	28801
808.182	28744
808.324	28888
808.465	28972
808.607	29018
808.749	29178
808.891	29292
809.033	29235
809.174	29185
809.316	29166
809.458	29208
809.6	29124
809.741	29337
809.883	29398
810.025	29436
810.166	29372
810.308	29531
810.45	29326
810.591	29395
810.733	29235
810.875	29159
811.016	29117
811.158	28972
811.299	29181
811.441	29273
811.582	29398
811.724	29261
811.865	29269
812.007	29143
812.148	29223
812.29	29124
812.431	29433
812.573	29459
812.714	29665
812.855	29767
812.997	29680
813.138	29862
813.279	29904
813.421	29729
813.562	29570
813.703	29551
813.845	29455
813.986	29197
814.127	29029
814.268	28915
814.41	28930
814.551	28850
814.692	28866
814.833	28946
814.974	28839
815.115	28816
815.256	28805
815.397	28763
815.539	28805
815.68	28786
815.821	28538
815.962	28740
816.103	28599
816.244	28767
816.385	28596
816.526	28459
816.666	28253
816.807	28211
816.948	28257
817.089	28390
817.23	28329
817.371	28192
817.512	28215
817.653	28078
817.793	28284
817.934	28238
818.075	28124
818.216	28337
818.356	28249
818.497	28200
818.638	27888
818.778	28051
818.919	28055
819.06	28112
819.2	28135
819.341	28246
819.481	28135
819.622	28542
819.762	28523
819.903	28386
820.043	28436
820.184	28432
820.324	28348
820.465	28303
820.605	28382
820.746	28276
820.886	28242
821.026	28265
821.167	28303
821.307	28421
821.447	28207
821.588	28086
821.728	28013
821.868	27907
822.008	27751
822.149	27701
822.289	27603
822.429	27530
822.569	27443
822.709	27416
822.849	27340
822.99	27135
823.13	27222
823.27	27211
823.41	27070
823.55	26823
823.69	27013
823.83	27043
823.97	26864
824.11	26807
824.25	26807
824.389	26891
824.529	26826
824.669	26902
824.809	26940
824.949	27070
825.089	27077
825.228	26971
825.368	26609
825.508	26743
825.648	26823
825.787	26883
825.927	26743
826.067	26667
826.206	26750
826.346	26872
826.485	26743
826.625	26720
826.765	26960
826.904	26731
827.044	26571
827.183	26609
827.323	26492
827.462	26423
827.601	26446
827.741	26537
827.88	26583
828.02	26427
828.159	26358
828.298	26514
828.437	26549
828.577	26473
828.716	26537
828.855	26423
828.994	26077
829.134	26164
829.273	26324
829.412	26183
829.551	26248
829.69	26221
829.829	26301
829.968	26389
830.107	26084
830.246	26065
830.385	25928
830.524	26149
830.663	25974
830.802	25864
830.941	25784
831.08	25826
831.219	25845
831.357	25780
831.496	26027
831.635	25635
831.774	25613
831.913	25655
832.051	25666
832.19	25552
832.329	25597
832.467	25529
832.606	25400
832.744	25312
832.883	25464
833.022	25312
833.16	25506
833.299	25575
833.437	25479
833.576	25559
833.714	25518
833.852	25647
833.991	25597
834.129	25582
834.267	25693
834.406	25544
834.544	25616
834.682	25533
834.821	25499
834.959	25597
835.097	25415
835.235	25590
835.373	25388
835.511	25460
835.65	25365
835.788	25377
835.926	25213
836.064	25164
836.202	25209
836.34	25354
836.478	25403
836.615	25377
836.753	25255
836.891	25350
837.029	25217
837.167	25373
837.305	25255
837.443	25084
837.58	25206
837.718	25206
837.856	25171
837.993	25160
838.131	25175
838.269	24935
838.406	25038
838.544	24943
838.681	24905
838.819	24837
838.956	24661
839.094	24547
839.231	24703
839.369	24821
839.506	25046
839.643	24798
839.781	24654
839.918	24502
840.055	24650
840.193	24525
840.33	24551
840.467	24563
840.604	24475
840.742	24852
840.879	24220
841.016	24433
841.153	24467
841.29	24608
841.427	24620
841.564	24582
841.701	24380
841.838	24544
841.975	24471
842.112	24350
842.249	24304
842.385	24182
842.522	24513
842.659	24292
842.796	24273
842.933	24194
843.069	24148
843.206	24186
843.343	24251
843.479	24361
843.616	24205
843.752	24133
843.889	24057
844.025	24117
844.162	23958
844.298	24163
844.435	23999
844.571	23980
844.708	24034
844.844	24273
844.98	24155
845.117	24182
845.253	23984
845.389	23901
845.525	24011
845.661	23779
845.798	23840
845.934	23931
846.07	23779
846.206	23992
846.342	23920
846.478	23756
846.614	23566
846.75	23474
846.886	23512
847.022	23528
847.158	23562
847.294	23448
847.429	23501
847.565	23452
847.701	23687
847.837	23208
847.972	23303
848.108	23330
848.244	23360
848.379	23204
848.515	23083
848.65	23098
848.786	22999
848.921	23246
849.057	23170
849.192	23204
849.328	23166
849.463	23060
849.598	23185
849.734	22889
849.869	22881
850.004	22850
850.14	22862
850.275	22782
850.41	22577
850.545	22816
850.68	22721
850.815	22965
850.95	22831
851.085	23064
851.22	22972
851.355	22949
851.49	22820
851.625	22793
851.76	22843
851.895	22862
852.03	22873
852.165	22885
852.299	23006
852.434	22938
852.569	22835
852.703	22949
852.838	22869
852.973	22972
853.107	22949
853.242	22835
853.376	22656
853.511	22557
853.645	22538
853.78	22877
853.914	22713
854.048	22641
854.183	22641
854.317	22736
854.451	22892
854.585	22656
854.72	22668
854.854	22767
854.988	22569
855.122	22641
855.256	22527
855.39	22691
855.524	22771
855.658	22622
855.792	22763
855.926	22683
856.06	22569
856.194	22645
856.327	22656
856.461	22656
856.595	22664
856.729	22603
856.862	22771
856.996	22645
857.13	22672
857.263	22877
857.397	22782
857.53	22656
857.664	22687
857.797	22790
857.931	22729
858.064	22691
858.197	22702
858.331	22653
858.464	22649
858.597	22561
858.731	22527
858.864	22706
858.997	22687
859.13	22615
859.263	22759
859.396	22679
859.529	22672
859.662	22717
859.795	22698
859.928	22519
860.061	22675
860.194	22812
860.327	22634
860.46	22733
860.592	22831
860.725	22911
860.858	22881
860.99	22752
861.123	22702
861.256	22527
861.388	22706
861.521	23429
861.653	22447
861.786	22538
861.918	22500
862.05	22615
862.183	22474
862.315	22561
862.447	22793
862.58	22557
862.712	22226
862.844	22280
862.976	22531
863.108	22436
863.24	22790
863.372	22242
863.504	22470
863.636	22402
863.768	22398
863.9	22409
864.032	22246
864.164	22284
864.296	22242
864.428	22493
864.559	22398
864.691	22481
864.823	22459
864.954	22276
865.086	22348
865.217	22314
865.349	22188
865.48	22238
865.612	22261
865.743	22447
865.875	22352
866.006	22272
866.137	22207
866.269	22390
866.4	22147
866.531	22173
866.662	22143
866.793	22192
866.924	22204
867.055	22169
867.186	22211
867.317	22128
867.448	22101
867.579	22124
867.71	22025
867.841	22078
867.972	22166
868.103	22211
868.233	22169
868.364	22200
868.495	22314
868.625	22405
868.756	22466
868.886	22325
869.017	22398
869.147	22504
869.278	22554
869.408	22478
869.539	22360
869.669	22618
869.799	22516
869.929	22504
870.06	22561
870.19	22702
870.32	22847
870.45	22649
870.58	22793
870.71	22934
870.84	23003
870.97	22805
871.1	22793
871.23	23014
871.36	23067
871.489	22900
871.619	22934
871.749	22946
871.879	22999
872.008	23159
872.138	22904
872.267	23056
872.397	22831
872.526	22927
872.656	22809
872.785	22847
872.915	23094
873.044	23166
873.173	23022
873.303	23048
873.432	23071
873.561	23170
873.69	22980
873.819	22987
873.948	23113
874.077	23083
874.206	23010
874.335	22991
874.464	23159
874.593	23269
874.722	23261
874.851	23189
874.979	23265
875.108	23334
875.237	23086
875.365	23242
875.494	23299
875.623	23280
875.751	23200
875.88	23322
876.008	23379
876.136	23501
876.265	23684
876.393	23722
876.521	23619
876.65	23741
876.778	23707
876.906	23638
877.034	23539
877.162	23566
877.29	23554
877.418	23577
877.546	23642
877.674	23543
877.802	23619
877.93	23589
878.058	23539
878.185	23440
878.313	23539
878.441	23497
878.568	23471
878.696	23406
878.824	23646
878.951	23707
879.079	23699
879.206	23920
879.333	23748
879.461	23699
879.588	23752
879.715	23649
879.842	23817
879.97	23585
880.097	23360
880.224	23406
880.351	23349
880.478	23436
880.605	23444
880.732	23436
880.859	23600
880.986	23345
881.112	23490
881.239	23239
881.366	23151
881.493	23174
881.619	23006
881.746	23056
881.872	22980
881.999	22919
882.125	22839
882.252	22984
882.378	22957
882.505	22946
882.631	22683
882.757	22679
882.883	22683
883.01	22656
883.136	22565
883.262	22485
883.388	22508
883.514	22771
883.64	22675
883.766	22546
883.892	22398
884.018	22443
884.143	22710
884.269	22516
884.395	22295
884.52	22246
884.646	22310
884.772	22135
884.897	22242
885.023	22268
885.148	22284
885.274	22424
885.399	22363
885.524	22291
885.65	22322
885.775	22341
885.9	22291
886.025	22386
886.15	22272
886.275	22173
886.4	22154
886.525	22147
886.65	22150
886.775	22025
886.9	22314
887.025	22440
887.149	22257
887.274	22162
887.399	22010
887.523	22055
887.648	21994
887.773	21907
887.897	22139
888.021	22067
888.146	22048
888.27	22158
888.395	22166
888.519	22036
888.643	21930
888.767	22048
888.891	21895
889.015	21789
889.139	21926
889.263	21838
889.387	21865
889.511	21991
889.635	21972
889.759	21876
889.883	21774
890.006	21850
890.13	21964
890.254	21743
890.377	21808
890.501	21564
890.624	21675
890.748	21576
890.871	21526
890.995	21363
891.118	21325
891.241	21397
891.364	21363
891.488	21378
891.611	21310
891.734	21454
891.857	21405
891.98	21351
892.103	21412
892.226	21389
892.349	21363
892.471	21195
892.594	21279
892.717	21348
892.839	21287
892.962	21264
893.085	21412
893.207	21272
893.33	21184
893.452	21245
893.575	21252
893.697	21226
893.819	21374
893.941	21367
894.064	21340
894.186	21180
894.308	21230
894.43	21222
894.552	21363
894.674	21192
894.796	21127
894.918	21211
895.04	21180
895.161	21275
895.283	21195
895.405	21275
895.526	21192
895.648	21233
895.769	21207
895.891	21233
896.012	21370
896.134	21256
896.255	21313
896.376	21245
896.498	21241
896.619	21165
896.74	21211
896.861	21237
896.982	21492
897.103	21644
897.224	21481
897.345	21511
897.466	21359
897.587	21428
897.708	21606
897.828	21504
897.949	21393
898.07	21306
898.19	21325
898.311	21553
898.431	21233
898.552	21416
898.672	21378
898.792	21511
898.913	21306
899.033	21317
899.153	21195
899.273	21112
899.393	21157
899.513	21199
899.633	21264
899.753	21127
899.873	21176
899.993	21085
900.113	21001
900.232	21104
900.352	20925
900.472	20975
900.591	20952
900.711	20895
900.83	20925
900.95	20887
901.069	21051
901.189	20834
901.308	20530
901.427	20393
901.546	20431
901.665	20374
901.784	20393
901.904	20347
902.023	20233
902.141	20122
902.26	20001
902.379	20195
902.498	19959
902.617	19989
902.735	20027
902.854	19944
902.973	19921
903.091	19567
903.21	19510
903.328	19510
903.446	19514
903.565	19441
903.683	19480
903.801	19282
903.919	19304
904.038	19381
904.156	19244
904.274	19240
904.392	19107
904.51	19179
904.627	19156
904.745	19213
904.863	19301
904.981	19042
905.098	18901
905.216	18802
905.334	18779
905.451	18825
905.569	18825
905.686	18840
905.803	18848
905.921	18665
906.038	18673
906.155	18745
906.272	18521
906.389	18589
906.506	18388
906.623	18448
906.74	18380
906.857	18266
906.974	18304
907.091	18357
907.208	18509
907.324	18448
907.441	18315
907.557	18098
907.674	18034
907.79	17992
907.907	18053
908.023	18007
908.139	18205
908.256	18068
908.372	17965
908.488	18003
908.604	17775
908.72	17745
908.836	17805
908.952	17649
909.068	17760
909.184	17790
909.3	17821
909.415	17859
909.531	17809
909.647	17482
909.762	17547
909.878	17433
909.993	17551
910.108	17467
910.224	17463
910.339	17436
910.454	17429
910.57	17292
910.685	17292
910.8	17543
910.915	17372
911.03	17322
911.145	17090
911.259	17052
911.374	17216
911.489	16999
911.604	16991
911.718	16866
911.833	16889
911.947	16850
912.062	16687
912.176	16835
912.291	16805
912.405	16767
912.519	17033
912.633	16984
912.748	16858
912.862	16736
912.976	16687
913.09	16500
913.204	16603
913.318	16512
913.431	16748
913.545	16729
913.659	16767
913.772	16512
913.886	16356
914	16390
914.113	16519
914.226	16493
914.34	16443
914.453	16268
914.566	16398
914.68	16128
914.793	16272
914.906	16143
915.019	16071
915.132	16055
915.245	15907
915.358	15953
915.47	15930
915.583	16029
915.696	15956
915.809	16116
915.921	16147
916.034	15930
916.146	15827
916.259	15854
916.371	16029
916.483	15823
916.595	15812
916.708	15835
916.82	15880
916.932	15743
917.044	15728
917.156	15694
917.268	15671
917.38	15648
917.491	15534
917.603	15591
917.715	15675
917.826	15686
917.938	15576
918.049	15431
918.161	15481
918.272	15663
918.384	15606
918.495	15595
918.606	15389
918.717	15306
918.828	15283
918.939	15367
919.05	15176
919.161	15298
919.272	15032
919.383	15112
919.494	15401
919.604	15466
919.715	15298
919.826	15283
919.936	15207
920.047	15351
920.157	15355
920.267	15435
920.378	15344
920.488	15336
920.598	15485
920.708	15530
920.818	15439
920.928	15355
921.038	15523
921.148	15428
921.258	15218
921.368	15074
921.477	15032
921.587	15047
921.697	14967
921.806	14944
921.916	14902
922.025	14670
922.134	14678
922.244	14545
922.353	14682
922.462	14560
922.571	14480
922.68	14278
922.789	14282
922.898	14275
923.007	14278
923.116	14225
923.224	14271
923.333	14214
923.442	14115
923.55	14111
923.659	14073
923.767	14218
923.876	14077
923.984	14077
924.092	13955
924.201	14084
924.309	14035
924.417	13986
924.525	13913
924.633	13928
924.741	14979
924.849	13746
924.956	13784
925.064	13685
925.172	13548
925.279	13620
925.387	13651
925.494	13571
925.602	13769
925.709	13704
925.816	13506
925.924	13609
926.031	13704
926.138	13548
926.245	13605
926.352	13521
926.459	13651
926.566	13632
926.673	13487
926.779	13392
926.886	13388
926.993	13209
927.099	13278
927.206	13213
927.312	13034
927.419	13324
927.525	13164
927.631	13221
927.737	13088
927.843	12977
927.95	12909
928.056	13034
928.162	13004
928.267	13091
928.373	13662
928.479	13080
928.585	12833
928.69	12939
928.796	13034
928.901	12882
929.007	12730
929.112	12810
929.218	12753
929.323	12787
929.428	12722
929.533	12821
929.638	12604
929.743	12684
929.848	12711
929.953	12658
930.058	12528
930.163	12376
930.267	12445
930.372	12471
930.477	12308
930.581	12483
930.685	12414
930.79	12273
930.894	12338
930.998	12155
931.103	12319
931.207	12022
931.311	11988
931.415	11874
931.519	11665
931.623	11562
