Data from test_V78500241_2177.txt Node
Date: Fri Mar 25 15:56:52 CST 2022
User: usil
Spectrometer: V785-0024
Trigger mode: 0
Integration Time (sec): 4.000000E-1
Scans to average: 1
Nonlinearity correction enabled: false
Boxcar width: 0
Storing dark spectrum: false
XAxis mode: Wavelengths
Number of Pixels in Spectrum: 1024
>>>>>Begin Spectral Data<<<<<
801.071	29056
801.214	29029
801.356	28706
801.499	28809
801.641	28580
801.783	28622
801.926	28744
802.068	28759
802.211	28580
802.353	28584
802.496	28493
802.638	28272
802.78	28280
802.923	28196
803.065	28074
803.208	28177
803.35	28253
803.492	28303
803.635	28470
803.777	28432
803.919	28577
804.061	28797
804.204	28577
804.346	28485
804.488	28363
804.63	28523
804.773	28379
804.915	28611
805.057	28683
805.199	28516
805.341	28694
805.483	28771
805.626	28687
805.768	28569
805.91	28561
806.052	28850
806.194	28542
806.336	28854
806.478	28740
806.62	28721
806.762	28843
806.904	28946
807.046	29178
807.188	29151
807.33	29044
807.472	29303
807.614	28984
807.756	29056
807.898	29033
808.04	29102
808.182	29140
808.324	29098
808.465	28999
808.607	29269
808.749	29467
808.891	29543
809.033	29562
809.174	29493
809.316	29570
809.458	29341
809.6	29459
809.741	29524
809.883	29596
810.025	29718
810.166	29817
810.308	29600
810.45	29600
810.591	29589
810.733	29414
810.875	29436
811.016	29364
811.158	29307
811.299	29562
811.441	29573
811.582	29566
811.724	29406
811.865	29421
812.007	29337
812.148	29474
812.29	29619
812.431	29661
812.573	29885
812.714	29775
812.855	30011
812.997	29961
813.138	30163
813.279	30007
813.421	29965
813.562	30022
813.703	29885
813.845	29608
813.986	29474
814.127	29261
814.268	29212
814.41	29307
814.551	29128
814.692	29128
814.833	29041
814.974	29113
815.115	29200
815.256	29090
815.397	28972
815.539	29029
815.68	28900
815.821	28729
815.962	28980
816.103	28946
816.244	28782
816.385	28733
816.526	28736
816.666	28493
816.807	28466
816.948	28531
817.089	28432
817.23	28428
817.371	28443
817.512	28443
817.653	28421
817.793	28428
817.934	28401
818.075	28561
818.216	28508
818.356	28519
818.497	28295
818.638	28139
818.778	28230
818.919	28200
819.06	28390
819.2	28341
819.341	28550
819.481	28466
819.622	28584
819.762	28816
819.903	28679
820.043	28546
820.184	28653
820.324	28702
820.465	28831
820.605	28618
820.746	28462
820.886	28485
821.026	28569
821.167	28554
821.307	28516
821.447	28512
821.588	28382
821.728	28265
821.868	28177
822.008	27968
822.149	28067
822.289	27861
822.429	27671
822.569	27561
822.709	27545
822.849	27469
822.99	27469
823.13	27519
823.27	27382
823.41	27302
823.55	27195
823.69	27268
823.83	27294
823.97	27161
824.11	27013
824.25	26994
824.389	27081
824.529	27313
824.669	27161
824.809	27306
824.949	27112
825.089	27074
825.228	27104
825.368	26994
825.508	27001
825.648	27005
825.787	27100
825.927	27036
826.067	26963
826.206	27108
826.346	27104
826.485	27089
826.625	27085
826.765	27058
826.904	27085
827.044	26937
827.183	26785
827.323	26731
827.462	26606
827.601	26697
827.741	26640
827.88	26750
828.02	26678
828.159	26689
828.298	26686
828.437	26720
828.577	26621
828.716	26800
828.855	26560
828.994	26434
829.134	26389
829.273	26530
829.412	26172
829.551	26408
829.69	26320
829.829	26469
829.968	26450
830.107	26461
830.246	26393
830.385	26419
830.524	26199
830.663	26115
830.802	26111
830.941	25963
831.08	26031
831.219	26043
831.357	26096
831.496	26225
831.635	25966
831.774	25913
831.913	25833
832.051	25681
832.19	25780
832.329	25856
832.467	25723
832.606	25605
832.744	25537
832.883	25609
833.022	25613
833.16	25765
833.299	25670
833.437	25738
833.576	25700
833.714	25655
833.852	25803
833.991	25734
834.129	25731
834.267	25879
834.406	25784
834.544	25917
834.682	25799
834.821	25757
834.959	25814
835.097	25616
835.235	25761
835.373	25750
835.511	25719
835.65	25464
835.788	25578
835.926	25510
836.064	25514
836.202	25476
836.34	25632
836.478	25651
836.615	25529
836.753	25533
836.891	25681
837.029	25491
837.167	25476
837.305	25525
837.443	25441
837.58	25373
837.718	25506
837.856	25472
837.993	25247
838.131	25518
838.269	25263
838.406	25202
838.544	25156
838.681	25057
838.819	25019
838.956	24966
839.094	24852
839.231	24848
839.369	24916
839.506	25263
839.643	25031
839.781	24814
839.918	24726
840.055	24772
840.193	24734
840.33	24726
840.467	24753
840.604	24768
840.742	25031
840.879	24681
841.016	24779
841.153	24639
841.29	24741
841.427	24779
841.564	24856
841.701	24593
841.838	24585
841.975	24441
842.112	24696
842.249	24536
842.385	24437
842.522	24658
842.659	24677
842.796	24502
842.933	24429
843.069	24547
843.206	24456
843.343	24544
843.479	24376
843.616	24612
843.752	24235
843.889	24178
844.025	24456
844.162	24213
844.298	24315
844.435	24186
844.571	24277
844.708	24277
844.844	24369
844.98	24376
845.117	24342
845.253	24251
845.389	24167
845.525	24148
845.661	23996
845.798	23901
845.934	24087
846.07	23969
846.206	23931
846.342	23984
846.478	23866
846.614	23893
846.75	23604
846.886	23710
847.022	23672
847.158	23649
847.294	23737
847.429	23676
847.565	23672
847.701	23977
847.837	23410
847.972	23387
848.108	23471
848.244	23516
848.379	23368
848.515	23417
848.65	23261
848.786	23292
848.921	23322
849.057	23455
849.192	23372
849.328	23364
849.463	23197
849.598	23185
849.734	23193
849.869	23185
850.004	23022
850.14	23018
850.275	23117
850.41	23086
850.545	23010
850.68	23117
850.815	23189
850.95	23018
851.085	23254
851.22	23261
851.355	23010
851.49	23143
851.625	23029
851.76	22953
851.895	23132
852.03	23086
852.165	23098
852.299	23189
852.434	23147
852.569	23067
852.703	23041
852.838	23041
852.973	23189
853.107	23147
853.242	23117
853.376	23003
853.511	22828
853.645	22839
853.78	22949
853.914	22927
854.048	22892
854.183	22866
854.317	22866
854.451	23136
854.585	22904
854.72	22915
854.854	22896
854.988	22816
855.122	22885
855.256	22930
855.39	22820
855.524	23052
855.658	22908
855.792	22953
855.926	23029
856.06	22927
856.194	22949
856.327	22949
856.461	22816
856.595	22790
856.729	22908
856.862	22957
856.996	22862
857.13	22892
857.263	22980
857.397	23056
857.53	22812
857.664	22858
857.797	22953
857.931	23083
858.064	22946
858.197	23109
858.331	22991
858.464	22767
858.597	22717
858.731	22824
858.864	22797
858.997	22843
859.13	22862
859.263	22809
859.396	23056
859.529	23071
859.662	22866
859.795	22847
859.928	22885
860.061	23075
860.194	23102
860.327	22976
860.46	22858
860.592	23033
860.725	23075
860.858	23041
860.99	23029
861.123	22824
861.256	22786
861.388	22908
861.521	23554
861.653	22793
861.786	22584
861.918	22698
862.05	22748
862.183	22729
862.315	22854
862.447	22995
862.58	22877
862.712	22611
862.844	22599
862.976	22630
863.108	22744
863.24	23083
863.372	22440
863.504	22603
863.636	22573
863.768	22588
863.9	22615
864.032	22542
864.164	22485
864.296	22721
864.428	22721
864.559	22702
864.691	22611
864.823	22618
864.954	22645
865.086	22531
865.217	22379
865.349	22394
865.48	22527
865.612	22451
865.743	22668
865.875	22268
866.006	22428
866.137	22569
866.269	22428
866.4	22516
866.531	22360
866.662	22257
866.793	22371
866.924	22390
867.055	22371
867.186	22390
867.317	22390
867.448	22310
867.579	22291
867.71	22363
867.841	22238
867.972	22382
868.103	22356
868.233	22363
868.364	22348
868.495	22500
868.625	22538
868.756	22694
868.886	22641
869.017	22565
869.147	22630
869.278	22748
869.408	22664
869.539	22668
869.669	22755
869.799	22687
869.929	22656
870.06	22809
870.19	22900
870.32	22831
870.45	22949
870.58	22976
870.71	23109
870.84	23113
870.97	22991
871.1	22942
871.23	23250
871.36	23086
871.489	23193
871.619	23124
871.749	23250
871.879	23265
872.008	23246
872.138	23147
872.267	23159
872.397	23121
872.526	23079
872.656	23121
872.785	23147
872.915	23200
873.044	23376
873.173	23307
873.303	23326
873.432	23364
873.561	23326
873.69	23227
873.819	23220
873.948	23296
874.077	23322
874.206	23166
874.335	23216
874.464	23402
874.593	23566
874.722	23433
874.851	23520
874.979	23501
875.108	23577
875.237	23512
875.365	23261
875.494	23383
875.623	23402
875.751	23440
875.88	23463
876.008	23493
876.136	23627
876.265	23847
876.393	23984
876.521	23840
876.65	23996
876.778	23897
876.906	23718
877.034	23859
877.162	23901
877.29	23676
877.418	23748
877.546	23840
877.674	23722
877.802	23817
877.93	23756
878.058	23760
878.185	23661
878.313	23798
878.441	23657
878.568	23668
878.696	23767
878.824	23752
878.951	23908
879.079	23988
879.206	24129
879.333	23954
879.461	23821
879.588	23866
879.715	23980
879.842	24076
879.97	23927
880.097	23710
880.224	23478
880.351	23691
880.478	23695
880.605	23535
880.732	23562
880.859	23821
880.986	23695
881.112	23707
881.239	23535
881.366	23448
881.493	23326
881.619	23128
881.746	23185
881.872	23197
881.999	23006
882.125	23025
882.252	23216
882.378	23014
882.505	23254
882.631	22869
882.757	22831
882.883	22881
883.01	22900
883.136	22908
883.262	22809
883.388	22550
883.514	22717
883.64	22797
883.766	22763
883.892	22630
884.018	22592
884.143	22885
884.269	22858
884.395	22523
884.52	22440
884.646	22436
884.772	22436
884.897	22299
885.023	22455
885.148	22459
885.274	22577
885.399	22592
885.524	22413
885.65	22489
885.775	22516
885.9	22341
886.025	22474
886.15	22554
886.275	22512
886.4	22542
886.525	22428
886.65	22398
886.775	22276
886.9	22432
887.025	22736
887.149	22436
887.274	22333
887.399	22185
887.523	22169
887.648	22101
887.773	22032
887.897	22280
888.021	22291
888.146	22131
888.27	22230
888.395	22306
888.519	22287
888.643	22284
888.767	22226
888.891	22158
889.015	22040
889.139	22097
889.263	22006
889.387	22105
889.511	22188
889.635	21975
889.759	21991
889.883	22006
890.006	22055
890.13	22097
890.254	21869
890.377	21930
890.501	21774
890.624	21690
890.748	21781
890.871	21515
890.995	21538
891.118	21477
891.241	21504
891.364	21496
891.488	21622
891.611	21625
891.734	21530
891.857	21519
891.98	21610
892.103	21568
892.226	21580
892.349	21450
892.471	21336
892.594	21545
892.717	21466
892.839	21477
892.962	21389
893.085	21473
893.207	21321
893.33	21405
893.452	21488
893.575	21603
893.697	21439
893.819	21572
893.941	21641
894.064	21614
894.186	21439
894.308	21405
894.43	21492
894.552	21557
894.674	21420
894.796	21260
894.918	21412
895.04	21397
895.161	21504
895.283	21370
895.405	21325
895.526	21462
895.648	21462
895.769	21542
895.891	21428
896.012	21504
896.134	21306
896.255	21435
896.376	21233
896.498	21496
896.619	21393
896.74	21294
896.861	21496
896.982	21557
897.103	21857
897.224	21629
897.345	21610
897.466	21549
897.587	21622
897.708	21793
897.828	21583
897.949	21488
898.07	21382
898.19	21466
898.311	21538
898.431	21618
898.552	21564
898.672	21641
898.792	21675
898.913	21599
899.033	21443
899.153	21359
899.273	21287
899.393	21306
899.513	21329
899.633	21268
899.753	21321
899.873	21272
899.993	21378
900.113	21256
900.232	21142
900.352	21245
900.472	21020
900.591	21051
900.711	21081
900.83	21047
900.95	21131
901.069	21062
901.189	20986
901.308	20731
901.427	20632
901.546	20735
901.665	20678
901.784	20648
901.904	20431
902.023	20294
902.141	20240
902.26	20202
902.379	20244
902.498	20149
902.617	20126
902.735	20103
902.854	20145
902.973	19997
903.091	19807
903.21	19818
903.328	19757
903.446	19643
903.565	19635
903.683	19658
903.801	19373
903.919	19460
904.038	19544
904.156	19343
904.274	19445
904.392	19285
904.51	19301
904.627	19274
904.745	19388
904.863	19381
904.981	19110
905.098	19088
905.216	18973
905.334	19072
905.451	19065
905.569	18996
905.686	18973
905.803	19080
905.921	18810
906.038	18829
906.155	18802
906.272	18597
906.389	18677
906.506	18517
906.623	18593
906.74	18566
906.857	18395
906.974	18361
907.091	18513
907.208	18616
907.324	18589
907.441	18528
907.557	18228
907.674	18285
907.79	18197
907.907	18174
908.023	18281
908.139	18285
908.256	18136
908.372	18140
908.488	18076
908.604	18030
908.72	17897
908.836	18030
908.952	17863
909.068	17931
909.184	18079
909.3	17977
909.415	18038
909.531	17923
909.647	17817
909.762	17668
909.878	17619
909.993	17600
910.108	17657
910.224	17611
910.339	17627
910.454	17474
910.57	17528
910.685	17402
910.8	17714
910.915	17630
911.03	17398
911.145	17204
911.259	17204
911.374	17216
911.489	17010
911.604	17064
911.718	16980
911.833	16976
911.947	16774
912.062	16820
912.176	16984
912.291	16854
912.405	16968
912.519	17140
912.633	17098
912.748	17086
912.862	16942
912.976	16649
913.09	16630
913.204	16637
913.318	16828
913.431	16831
913.545	16809
913.659	16820
913.772	16710
913.886	16596
914	16542
914.113	16649
914.226	16535
914.34	16645
914.453	16352
914.566	16603
914.68	16394
914.793	16310
914.906	16219
915.019	16173
915.132	16097
915.245	16158
915.358	16147
915.47	16105
915.583	16040
915.696	16128
915.809	16341
915.921	16211
916.034	15983
916.146	16078
916.259	15922
916.371	16071
916.483	16051
916.595	15991
916.708	15915
916.82	15968
916.932	15975
917.044	15907
917.156	15915
917.268	15648
917.38	15728
917.491	15675
917.603	15770
917.715	15903
917.826	15880
917.938	15736
918.049	15496
918.161	15667
918.272	15732
918.384	15755
918.495	15698
918.606	15519
918.717	15462
918.828	15576
918.939	15576
919.05	15317
919.161	15481
919.272	15157
919.383	15325
919.494	15542
919.604	15663
919.715	15469
919.826	15287
919.936	15317
920.047	15504
920.157	15397
920.267	15568
920.378	15428
920.488	15355
920.598	15496
920.708	15766
920.818	15523
920.928	15507
921.038	15660
921.148	15644
921.258	15389
921.368	15256
921.477	15150
921.587	15097
921.697	14910
921.806	15024
921.916	14952
922.025	14800
922.134	14746
922.244	14659
922.353	14777
922.462	14701
922.571	14533
922.68	14446
922.789	14434
922.898	14484
923.007	14275
923.116	14343
923.224	14400
923.333	14328
923.442	14161
923.55	14172
923.659	14210
923.767	14145
923.876	14195
923.984	14278
924.092	14119
924.201	14134
924.309	14161
924.417	14206
924.525	14001
924.633	14088
924.741	14743
924.849	13898
924.956	13887
925.064	13818
925.172	13784
925.279	13780
925.387	13814
925.494	13864
925.602	13917
925.709	13727
925.816	13708
925.924	13772
926.031	13822
926.138	13742
926.245	13826
926.352	13578
926.459	13738
926.566	13727
926.673	13571
926.779	13537
926.886	13514
926.993	13373
927.099	13289
927.206	13301
927.312	13312
927.419	13282
927.525	13369
927.631	13289
927.737	13198
927.843	13118
927.95	13046
928.056	13129
928.162	13198
928.267	13084
928.373	13704
928.479	13206
928.585	12825
928.69	12962
928.796	13126
928.901	12977
929.007	12814
929.112	12916
929.218	12943
929.323	12787
929.428	12753
929.533	12856
929.638	12779
929.743	12802
929.848	12726
929.953	12848
930.058	12654
930.163	12532
930.267	12471
930.372	12646
930.477	12384
930.581	12631
930.685	12486
930.79	12418
930.894	12338
930.998	12277
931.103	12467
931.207	12091
931.311	11965
931.415	11893
931.519	11668
931.623	11741
