Data from test_V78500241_1217.txt Node
Date: Fri Mar 25 15:50:13 CST 2022
User: usil
Spectrometer: V785-0024
Trigger mode: 0
Integration Time (sec): 4.000000E-1
Scans to average: 1
Nonlinearity correction enabled: false
Boxcar width: 0
Storing dark spectrum: false
XAxis mode: Wavelengths
Number of Pixels in Spectrum: 1024
>>>>>Begin Spectral Data<<<<<
801.071	28843
801.214	28721
801.356	28478
801.499	28436
801.641	28177
801.783	28276
801.926	28310
802.068	28329
802.211	28166
802.353	28177
802.496	28090
802.638	28032
802.78	27903
802.923	27945
803.065	27953
803.208	27880
803.35	28013
803.492	28147
803.635	28177
803.777	28086
803.919	28417
804.061	28557
804.204	28379
804.346	28192
804.488	28048
804.63	28268
804.773	28154
804.915	28181
805.057	28287
805.199	28185
805.341	28226
805.483	28367
805.626	28322
805.768	28188
805.91	28428
806.052	28436
806.194	28257
806.336	28519
806.478	28401
806.62	28436
806.762	28474
806.904	28653
807.046	29003
807.188	28812
807.33	28820
807.472	28847
807.614	28679
807.756	28774
807.898	28660
808.04	28622
808.182	28645
808.324	28611
808.465	28729
808.607	28930
808.749	29174
808.891	29155
809.033	29280
809.174	29075
809.316	29003
809.458	29083
809.6	29121
809.741	29105
809.883	29140
810.025	29440
810.166	29299
810.308	29280
810.45	29155
810.591	29330
810.733	29174
810.875	29086
811.016	28938
811.158	28976
811.299	29235
811.441	29208
811.582	29185
811.724	29060
811.865	29083
812.007	29033
812.148	29079
812.29	29235
812.431	29204
812.573	29341
812.714	29436
812.855	29623
812.997	29786
813.138	29980
813.279	29710
813.421	29585
813.562	29611
813.703	29414
813.845	29288
813.986	29060
814.127	28896
814.268	28824
814.41	28900
814.551	28793
814.692	28866
814.833	28927
814.974	28721
815.115	28892
815.256	28554
815.397	28493
815.539	28626
815.68	28702
815.821	28523
815.962	28622
816.103	28504
816.244	28413
816.385	28516
816.526	28363
816.666	28299
816.807	28070
816.948	28230
817.089	28242
817.23	28219
817.371	28090
817.512	28063
817.653	28082
817.793	28036
817.934	28070
818.075	28021
818.216	28006
818.356	28086
818.497	28036
818.638	27892
818.778	27789
818.919	27922
819.06	27972
819.2	28044
819.341	28211
819.481	28158
819.622	28154
819.762	28535
819.903	28428
820.043	28204
820.184	28192
820.324	28188
820.465	28314
820.605	28246
820.746	28265
820.886	28021
821.026	28303
821.167	28196
821.307	28116
821.447	28242
821.588	28074
821.728	27983
821.868	27705
822.008	27580
822.149	27648
822.289	27686
822.429	27340
822.569	27313
822.709	27302
822.849	27180
822.99	27142
823.13	27081
823.27	26998
823.41	26838
823.55	26872
823.69	26940
823.83	27047
823.97	26811
824.11	26724
824.25	26655
824.389	26640
824.529	26750
824.669	26735
824.809	26891
824.949	26807
825.089	26819
825.228	26876
825.368	26682
825.508	26674
825.648	26613
825.787	26568
825.927	26834
826.067	26465
826.206	26617
826.346	26609
826.485	26853
826.625	26644
826.765	26788
826.904	26682
827.044	26423
827.183	26358
827.323	26389
827.462	26400
827.601	26423
827.741	26374
827.88	26366
828.02	26301
828.159	26396
828.298	26438
828.437	26469
828.577	26145
828.716	26408
828.855	26252
828.994	26062
829.134	26001
829.273	26069
829.412	25955
829.551	25902
829.69	26107
829.829	26100
829.968	26225
830.107	26134
830.246	25959
830.385	25940
830.524	25947
830.663	25871
830.802	25738
830.941	25731
831.08	25601
831.219	25841
831.357	25727
831.496	25875
831.635	25830
831.774	25609
831.913	25594
832.051	25575
832.19	25525
832.329	25613
832.467	25377
832.606	25278
832.744	25304
832.883	25396
833.022	25407
833.16	25327
833.299	25441
833.437	25510
833.576	25491
833.714	25422
833.852	25453
833.991	25525
834.129	25506
834.267	25373
834.406	25411
834.544	25396
834.682	25388
834.821	25426
834.959	25533
835.097	25449
835.235	25358
835.373	25449
835.511	25396
835.65	25114
835.788	25198
835.926	25160
836.064	25027
836.202	25133
836.34	25335
836.478	25244
836.615	25293
836.753	25297
836.891	25293
837.029	25251
837.167	25156
837.305	25187
837.443	25031
837.58	25004
837.718	25103
837.856	25080
837.993	25015
838.131	25084
838.269	24863
838.406	24966
838.544	24905
838.681	24741
838.819	24623
838.956	24601
839.094	24471
839.231	24460
839.369	24631
839.506	24981
839.643	24696
839.781	24547
839.918	24490
840.055	24407
840.193	24475
840.33	24410
840.467	24509
840.604	24422
840.742	24692
840.879	24357
841.016	24467
841.153	24270
841.29	24593
841.427	24395
841.564	24467
841.701	24357
841.838	24418
841.975	24216
842.112	24235
842.249	24319
842.385	24281
842.522	24437
842.659	24220
842.796	24057
842.933	24121
843.069	24091
843.206	24152
843.343	24159
843.479	24133
843.616	24144
843.752	23969
843.889	24098
844.025	24079
844.162	23904
844.298	24144
844.435	23946
844.571	23935
844.708	23863
844.844	24121
844.98	24110
845.117	23992
845.253	23760
845.389	23790
845.525	23927
845.661	23779
845.798	23684
845.934	23897
846.07	23604
846.206	23608
846.342	23729
846.478	23672
846.614	23509
846.75	23318
846.886	23410
847.022	23383
847.158	23349
847.294	23402
847.429	23334
847.565	23455
847.701	23585
847.837	23090
847.972	23037
848.108	23147
848.244	23105
848.379	23003
848.515	23006
848.65	22995
848.786	22892
848.921	22968
849.057	23041
849.192	23003
849.328	22930
849.463	22953
849.598	22991
849.734	22904
849.869	22900
850.004	22771
850.14	22877
850.275	22847
850.41	22542
850.545	22736
850.68	22641
850.815	22721
850.95	22717
851.085	22984
851.22	22881
851.355	22767
851.49	22736
851.625	22664
851.76	22736
851.895	22596
852.03	22641
852.165	22820
852.299	22729
852.434	22820
852.569	22763
852.703	22668
852.838	22771
852.973	22774
853.107	22854
853.242	22672
853.376	22565
853.511	22519
853.645	22538
853.78	22634
853.914	22542
854.048	22546
854.183	22630
854.317	22588
854.451	22729
854.585	22599
854.72	22561
854.854	22641
854.988	22615
855.122	22569
855.256	22386
855.39	22596
855.524	22519
855.658	22653
855.792	22519
855.926	22523
856.06	22588
856.194	22573
856.327	22588
856.461	22569
856.595	22508
856.729	22607
856.862	22721
856.996	22603
857.13	22721
857.263	22664
857.397	22542
857.53	22554
857.664	22527
857.797	22618
857.931	22592
858.064	22527
858.197	22710
858.331	22500
858.464	22512
858.597	22424
858.731	22565
858.864	22535
858.997	22493
859.13	22603
859.263	22660
859.396	22561
859.529	22611
859.662	22584
859.795	22557
859.928	22459
860.061	22752
860.194	22793
860.327	22660
860.46	22542
860.592	22569
860.725	22824
860.858	22713
860.99	22615
861.123	22432
861.256	22497
861.388	22656
861.521	23197
861.653	22443
861.786	22371
861.918	22398
862.05	22470
862.183	22447
862.315	22417
862.447	22497
862.58	22481
862.712	22257
862.844	22181
862.976	22276
863.108	22360
863.24	22637
863.372	22257
863.504	22234
863.636	22249
863.768	22306
863.9	22257
864.032	22097
864.164	22329
864.296	22329
864.428	22261
864.559	22280
864.691	22257
864.823	22272
864.954	22211
865.086	22207
865.217	22211
865.349	22139
865.48	22067
865.612	22181
865.743	22223
865.875	22181
866.006	22097
866.137	22215
866.269	22158
866.4	22048
866.531	22097
866.662	22150
866.793	21991
866.924	22192
867.055	22055
867.186	22086
867.317	22128
867.448	22010
867.579	21907
867.71	21975
867.841	21949
867.972	22078
868.103	21998
868.233	22067
868.364	22051
868.495	22166
868.625	22344
868.756	22497
868.886	22093
869.017	22215
869.147	22261
869.278	22470
869.408	22424
869.539	22310
869.669	22390
869.799	22188
869.929	22432
870.06	22413
870.19	22630
870.32	22672
870.45	22580
870.58	22607
870.71	22740
870.84	22786
870.97	22763
871.1	22683
871.23	22869
871.36	22976
871.489	22801
871.619	22820
871.749	22904
871.879	22923
872.008	23060
872.138	22892
872.267	22923
872.397	22908
872.526	22660
872.656	22721
872.785	22733
872.915	22774
873.044	22987
873.173	22995
873.303	22972
873.432	23090
873.561	23010
873.69	23037
873.819	22885
873.948	22957
874.077	22858
874.206	22930
874.335	22858
874.464	22984
874.593	23124
874.722	22999
874.851	23296
874.979	23147
875.108	23151
875.237	23029
875.365	23079
875.494	22957
875.623	23166
875.751	23064
875.88	23212
876.008	23284
876.136	23330
876.265	23653
876.393	23531
876.521	23608
876.65	23516
876.778	23509
876.906	23516
877.034	23364
877.162	23436
877.29	23376
877.418	23356
877.546	23467
877.674	23433
877.802	23387
877.93	23467
878.058	23368
878.185	23197
878.313	23482
878.441	23471
878.568	23223
878.696	23379
878.824	23429
878.951	23604
879.079	23699
879.206	23680
879.333	23665
879.461	23512
879.588	23684
879.715	23657
879.842	23741
879.97	23505
880.097	23337
880.224	23296
880.351	23307
880.478	23284
880.605	23162
880.732	23170
880.859	23452
880.986	23254
881.112	23303
881.239	23200
881.366	23090
881.493	22961
881.619	22771
881.746	22881
881.872	22858
881.999	22809
882.125	22706
882.252	22904
882.378	22763
882.505	22957
882.631	22615
882.757	22485
882.883	22630
883.01	22535
883.136	22440
883.262	22398
883.388	22386
883.514	22523
883.64	22516
883.766	22459
883.892	22215
884.018	22303
884.143	22440
884.269	22542
884.395	22230
884.52	22036
884.646	22067
884.772	22059
884.897	22086
885.023	22055
885.148	22325
885.274	22299
885.399	22223
885.524	22226
885.65	22192
885.775	22166
885.9	22158
886.025	22287
886.15	22192
886.275	22128
886.4	22017
886.525	22048
886.65	22078
886.775	22078
886.9	22284
887.025	22299
887.149	21987
887.274	21972
887.399	21956
887.523	21941
887.648	21835
887.773	21728
887.897	22002
888.021	21987
888.146	21812
888.27	22025
888.395	21934
888.519	21915
888.643	21873
888.767	21892
888.891	21663
889.015	21705
889.139	21713
889.263	21751
889.387	21759
889.511	21907
889.635	21732
889.759	21663
889.883	21641
890.006	21709
890.13	21739
890.254	21485
890.377	21587
890.501	21431
890.624	21294
890.748	21431
890.871	21317
890.995	21317
891.118	21275
891.241	21237
891.364	21169
891.488	21313
891.611	21268
891.734	21249
891.857	21325
891.98	21226
892.103	21260
892.226	21306
892.349	21192
892.471	21081
892.594	20986
892.717	21116
892.839	21180
892.962	21093
893.085	21169
893.207	21203
893.33	21020
893.452	21039
893.575	21119
893.697	21138
893.819	21325
893.941	21332
894.064	21180
894.186	21020
894.308	21062
894.43	21203
894.552	21275
894.674	21214
894.796	21020
894.918	21028
895.04	21131
895.161	21180
895.283	21005
895.405	21066
895.526	21055
895.648	21032
895.769	21100
895.891	21085
896.012	21146
896.134	21211
896.255	21176
896.376	20967
896.498	21123
896.619	21173
896.74	21005
896.861	21112
896.982	21412
897.103	21572
897.224	21439
897.345	21367
897.466	21123
897.587	21332
897.708	21329
897.828	21397
897.949	21256
898.07	21176
898.19	21188
898.311	21420
898.431	21233
898.552	21302
898.672	21382
898.792	21306
898.913	21313
899.033	21161
899.153	21226
899.273	20967
899.393	21096
899.513	21112
899.633	21131
899.753	21036
899.873	20960
899.993	21024
900.113	20872
900.232	21062
900.352	20899
900.472	20891
900.591	20826
900.711	20937
900.83	20689
900.95	20910
901.069	20853
901.189	20629
901.308	20492
901.427	20244
901.546	20377
901.665	20427
901.784	20294
901.904	20187
902.023	20218
902.141	19921
902.26	19845
902.379	19940
902.498	19967
902.617	19890
902.735	19845
902.854	19818
902.973	19807
903.091	19434
903.21	19624
903.328	19480
903.446	19472
903.565	19381
903.683	19362
903.801	19179
903.919	19213
904.038	19247
904.156	19202
904.274	19175
904.392	19198
904.51	19133
904.627	19069
904.745	19156
904.863	19057
904.981	18913
905.098	18817
905.216	18783
905.334	18779
905.451	18665
905.569	18700
905.686	18802
905.803	18700
905.921	18635
906.038	18623
906.155	18551
906.272	18403
906.389	18445
906.506	18327
906.623	18395
906.74	18247
906.857	18148
906.974	18167
907.091	18380
907.208	18391
907.324	18239
907.441	18110
907.557	18155
907.674	18076
907.79	17927
907.907	18022
908.023	17999
908.139	18064
908.256	17836
908.372	17878
908.488	17851
908.604	17809
908.72	17764
908.836	17611
908.952	17699
909.068	17714
909.184	17893
909.3	17737
909.415	17889
909.531	17703
909.647	17497
909.762	17433
909.878	17337
909.993	17360
910.108	17341
910.224	17288
910.339	17299
910.454	17280
910.57	17178
910.685	17208
910.8	17391
910.915	17334
911.03	17269
911.145	17098
911.259	16976
911.374	17037
911.489	16976
911.604	16828
911.718	16748
911.833	16694
911.947	16679
912.062	16577
912.176	16850
912.291	16725
912.405	16752
912.519	16923
912.633	16923
912.748	16892
912.862	16721
912.976	16561
913.09	16348
913.204	16573
913.318	16478
913.431	16694
913.545	16580
913.659	16634
913.772	16451
913.886	16375
914	16226
914.113	16337
914.226	16451
914.34	16421
914.453	16139
914.566	16337
914.68	16257
914.793	16090
914.906	15998
915.019	15835
915.132	15937
915.245	15884
915.358	16055
915.47	15846
915.583	15857
915.696	15922
915.809	16101
915.921	15945
916.034	15861
916.146	15789
916.259	15842
916.371	15865
916.483	15762
916.595	15587
916.708	15709
916.82	15713
916.932	15671
917.044	15690
917.156	15625
917.268	15606
917.38	15595
917.491	15538
917.603	15633
917.715	15610
917.826	15523
917.938	15462
918.049	15515
918.161	15534
918.272	15523
918.384	15622
918.495	15481
918.606	15351
918.717	15306
918.828	15252
918.939	15317
919.05	15230
919.161	15230
919.272	15047
919.383	15058
919.494	15389
919.604	15584
919.715	15245
919.826	15123
919.936	15241
920.047	15340
920.157	15291
920.267	15473
920.378	15310
920.488	15237
920.598	15408
920.708	15534
920.818	15408
920.928	15245
921.038	15485
921.148	15473
921.258	15214
921.368	15066
921.477	14944
921.587	14982
921.697	14724
921.806	14815
921.916	14883
922.025	14674
922.134	14621
922.244	14587
922.353	14556
922.462	14434
922.571	14305
922.68	14176
922.789	14301
922.898	14218
923.007	14168
923.116	14180
923.224	14164
923.333	14088
923.442	14016
923.55	13944
923.659	14050
923.767	14153
923.876	13947
923.984	14081
924.092	13947
924.201	13967
924.309	13906
924.417	13970
924.525	13860
924.633	13753
924.741	14617
924.849	13525
924.956	13769
925.064	13681
925.172	13578
925.279	13632
925.387	13601
925.494	13582
925.602	13681
925.709	13609
925.816	13491
925.924	13537
926.031	13620
926.138	13540
926.245	13655
926.352	13468
926.459	13590
926.566	13571
926.673	13384
926.779	13320
926.886	13247
926.993	13236
927.099	13198
927.206	13050
927.312	13084
927.419	13175
927.525	13179
927.631	13126
927.737	12966
927.843	12928
927.95	12848
928.056	12913
928.162	12920
928.267	12993
928.373	13670
928.479	13046
928.585	12814
928.69	12894
928.796	12913
928.901	12856
929.007	12669
929.112	12821
929.218	12798
929.323	12730
929.428	12684
929.533	12719
929.638	12593
929.743	12662
929.848	12612
929.953	12623
930.058	12525
930.163	12319
930.267	12304
930.372	12486
930.477	12315
930.581	12525
930.685	12395
930.79	12186
930.894	12262
930.998	12083
931.103	12319
931.207	11916
931.311	12003
931.415	11805
931.519	11646
931.623	11539
