Data from test_V78500241_2182.txt Node
Date: Fri Mar 25 15:56:54 CST 2022
User: usil
Spectrometer: V785-0024
Trigger mode: 0
Integration Time (sec): 4.000000E-1
Scans to average: 1
Nonlinearity correction enabled: false
Boxcar width: 0
Storing dark spectrum: false
XAxis mode: Wavelengths
Number of Pixels in Spectrum: 1024
>>>>>Begin Spectral Data<<<<<
801.071	28911
801.214	28790
801.356	28615
801.499	28592
801.641	28455
801.783	28432
801.926	28683
802.068	28580
802.211	28405
802.353	28367
802.496	28299
802.638	28226
802.78	28253
802.923	28215
803.065	28112
803.208	28109
803.35	28291
803.492	28386
803.635	28367
803.777	28440
803.919	28531
804.061	28744
804.204	28466
804.346	28413
804.488	28432
804.63	28538
804.773	28379
804.915	28474
805.057	28622
805.199	28401
805.341	28462
805.483	28809
805.626	28584
805.768	28462
805.91	28630
806.052	28702
806.194	28523
806.336	28778
806.478	28599
806.62	28580
806.762	28733
806.904	28911
807.046	29204
807.188	29124
807.33	29052
807.472	29159
807.614	29052
807.756	29124
807.898	28820
808.04	28858
808.182	28683
808.324	28892
808.465	29044
808.607	29185
808.749	29231
808.891	29406
809.033	29478
809.174	29414
809.316	29223
809.458	29318
809.6	29315
809.741	29379
809.883	29467
810.025	29657
810.166	29524
810.308	29611
810.45	29509
810.591	29589
810.733	29330
810.875	29334
811.016	29326
811.158	29239
811.299	29421
811.441	29520
811.582	29562
811.724	29326
811.865	29387
812.007	29311
812.148	29292
812.29	29463
812.431	29360
812.573	29714
812.714	29893
812.855	29802
812.997	29889
813.138	30148
813.279	30041
813.421	29942
813.562	29855
813.703	29577
813.845	29482
813.986	29349
814.127	29083
814.268	29022
814.41	29162
814.551	28961
814.692	28957
814.833	29121
814.974	28991
815.115	29010
815.256	28919
815.397	29003
815.539	28923
815.68	28801
815.821	28793
815.962	28923
816.103	28869
816.244	28683
816.385	28664
816.526	28512
816.666	28428
816.807	28432
816.948	28447
817.089	28443
817.23	28341
817.371	28348
817.512	28375
817.653	28306
817.793	28382
817.934	28295
818.075	28268
818.216	28325
818.356	28341
818.497	28291
818.638	28086
818.778	28158
818.919	28128
819.06	28173
819.2	28192
819.341	28409
819.481	28401
819.622	28508
819.762	28634
819.903	28626
820.043	28485
820.184	28500
820.324	28637
820.465	28694
820.605	28577
820.746	28573
820.886	28409
821.026	28546
821.167	28466
821.307	28386
821.447	28436
821.588	28223
821.728	28204
821.868	27998
822.008	28010
822.149	28013
822.289	27770
822.429	27728
822.569	27545
822.709	27496
822.849	27401
822.99	27473
823.13	27268
823.27	27416
823.41	27058
823.55	27039
823.69	27203
823.83	27176
823.97	27062
824.11	27017
824.25	26986
824.389	27032
824.529	27135
824.669	27036
824.809	27127
824.949	27028
825.089	27146
825.228	27077
825.368	26849
825.508	26864
825.648	26815
825.787	26842
825.927	26899
826.067	26826
826.206	26872
826.346	26998
826.485	26910
826.625	26891
826.765	26937
826.904	27013
827.044	26693
827.183	26659
827.323	26598
827.462	26644
827.601	26644
827.741	26602
827.88	26640
828.02	26674
828.159	26571
828.298	26640
828.437	26712
828.577	26648
828.716	26621
828.855	26663
828.994	26282
829.134	26278
829.273	26320
829.412	26248
829.551	26248
829.69	26328
829.829	26320
829.968	26442
830.107	26336
830.246	26328
830.385	26202
830.524	26294
830.663	25997
830.802	26122
830.941	25989
831.08	25955
831.219	25830
831.357	26046
831.496	26134
831.635	25852
831.774	25909
831.913	25784
832.051	25734
832.19	25628
832.329	25681
832.467	25696
832.606	25529
832.744	25578
832.883	25620
833.022	25647
833.16	25639
833.299	25746
833.437	25651
833.576	25605
833.714	25700
833.852	25811
833.991	25715
834.129	25712
834.267	25639
834.406	25689
834.544	25613
834.682	25635
834.821	25769
834.959	25807
835.097	25624
835.235	25681
835.373	25590
835.511	25445
835.65	25400
835.788	25521
835.926	25457
836.064	25190
836.202	25324
836.34	25316
836.478	25544
836.615	25411
836.753	25510
836.891	25544
837.029	25415
837.167	25335
837.305	25362
837.443	25209
837.58	25179
837.718	25301
837.856	25301
837.993	25362
838.131	25259
838.269	25164
838.406	25209
838.544	25213
838.681	24947
838.819	24852
838.956	24783
839.094	24726
839.231	24677
839.369	24932
839.506	25034
839.643	24943
839.781	24760
839.918	24798
840.055	24757
840.193	24692
840.33	24692
840.467	24665
840.604	24661
840.742	24989
840.879	24578
841.016	24601
841.153	24483
841.29	24798
841.427	24677
841.564	24642
841.701	24604
841.838	24559
841.975	24570
842.112	24555
842.249	24555
842.385	24414
842.522	24646
842.659	24437
842.796	24372
842.933	24369
843.069	24384
843.206	24296
843.343	24372
843.479	24369
843.616	24395
843.752	24232
843.889	24186
844.025	24399
844.162	24102
844.298	24224
844.435	24197
844.571	24155
844.708	24064
844.844	24262
844.98	24296
845.117	24334
845.253	24251
845.389	24117
845.525	24129
845.661	24117
845.798	23984
845.934	23866
846.07	23817
846.206	23828
846.342	24060
846.478	23828
846.614	23760
846.75	23528
846.886	23710
847.022	23638
847.158	23596
847.294	23547
847.429	23638
847.565	23566
847.701	23775
847.837	23391
847.972	23250
848.108	23307
848.244	23433
848.379	23239
848.515	23170
848.65	23159
848.786	23235
848.921	23121
849.057	23326
849.192	23303
849.328	23235
849.463	23307
849.598	23136
849.734	23090
849.869	23178
850.004	23090
850.14	22961
850.275	23025
850.41	22923
850.545	22873
850.68	22904
850.815	23037
850.95	22919
851.085	23132
851.22	22987
851.355	22942
851.49	22946
851.625	22923
851.76	23006
851.895	22927
852.03	22968
852.165	22850
852.299	23029
852.434	23041
852.569	22896
852.703	23033
852.838	23041
852.973	23006
853.107	23018
853.242	22820
853.376	22930
853.511	22752
853.645	22919
853.78	22889
853.914	22748
854.048	22729
854.183	22797
854.317	22721
854.451	23060
854.585	22805
854.72	22774
854.854	22938
854.988	22649
855.122	22694
855.256	22656
855.39	22828
855.524	22896
855.658	22820
855.792	22790
855.926	22752
856.06	22721
856.194	22831
856.327	22831
856.461	22710
856.595	22679
856.729	22717
856.862	22862
856.996	22767
857.13	22744
857.263	22850
857.397	22824
857.53	22843
857.664	22824
857.797	22854
857.931	22915
858.064	22763
858.197	22828
858.331	22778
858.464	22774
858.597	22634
858.731	22668
858.864	22561
858.997	22710
859.13	22771
859.263	22881
859.396	22961
859.529	22729
859.662	22801
859.795	22668
859.928	22831
860.061	22839
860.194	22908
860.327	22923
860.46	22869
860.592	22869
860.725	22942
860.858	23010
860.99	22839
861.123	22793
861.256	22835
861.388	22835
861.521	23414
861.653	22626
861.786	22436
861.918	22554
862.05	22634
862.183	22691
862.315	22793
862.447	22649
862.58	22649
862.712	22527
862.844	22455
862.976	22649
863.108	22542
863.24	23075
863.372	22424
863.504	22405
863.636	22390
863.768	22516
863.9	22626
864.032	22436
864.164	22443
864.296	22641
864.428	22603
864.559	22569
864.691	22436
864.823	22588
864.954	22485
865.086	22398
865.217	22417
865.349	22295
865.48	22421
865.612	22390
865.743	22542
865.875	22417
866.006	22329
866.137	22268
866.269	22310
866.4	22166
866.531	22386
866.662	22284
866.793	22329
866.924	22223
867.055	22436
867.186	22337
867.317	22200
867.448	22246
867.579	22219
867.71	22173
867.841	22139
867.972	22291
868.103	22112
868.233	22333
868.364	22242
868.495	22299
868.625	22512
868.756	22645
868.886	22459
869.017	22561
869.147	22599
869.278	22550
869.408	22550
869.539	22626
869.669	22759
869.799	22561
869.929	22713
870.06	22672
870.19	22866
870.32	22824
870.45	22850
870.58	22923
870.71	23006
870.84	22953
870.97	22957
871.1	22858
871.23	23022
871.36	23170
871.489	22965
871.619	22976
871.749	23083
871.879	23178
872.008	23159
872.138	22999
872.267	23109
872.397	23018
872.526	22949
872.656	23022
872.785	23060
872.915	23208
873.044	23204
873.173	23094
873.303	23208
873.432	23246
873.561	23292
873.69	23151
873.819	23102
873.948	23067
874.077	23162
874.206	23071
874.335	23147
874.464	23216
874.593	23288
874.722	23269
874.851	23425
874.979	23410
875.108	23307
875.237	23288
875.365	23239
875.494	23254
875.623	23307
875.751	23292
875.88	23414
876.008	23497
876.136	23497
876.265	23752
876.393	23817
876.521	23855
876.65	23764
876.778	23718
876.906	23745
877.034	23760
877.162	23608
877.29	23691
877.418	23676
877.546	23771
877.674	23665
877.802	23592
877.93	23680
878.058	23684
878.185	23520
878.313	23604
878.441	23699
878.568	23478
878.696	23600
878.824	23634
878.951	23707
879.079	23836
879.206	23984
879.333	23805
879.461	23668
879.588	23707
879.715	23859
879.842	23977
879.97	23745
880.097	23467
880.224	23566
880.351	23436
880.478	23512
880.605	23277
880.732	23482
880.859	23699
880.986	23482
881.112	23505
881.239	23318
881.366	23231
881.493	23174
881.619	23048
881.746	23117
881.872	22949
881.999	23064
882.125	22953
882.252	23033
882.378	23067
882.505	23102
882.631	23064
882.757	22786
882.883	22778
883.01	22740
883.136	22683
883.262	22687
883.388	22565
883.514	22668
883.64	22744
883.766	22557
883.892	22508
884.018	22428
884.143	22626
884.269	22710
884.395	22462
884.52	22360
884.646	22352
884.772	22246
884.897	22177
885.023	22306
885.148	22348
885.274	22561
885.399	22413
885.524	22394
885.65	22268
885.775	22291
885.9	22204
886.025	22352
886.15	22504
886.275	22276
886.4	22257
886.525	22371
886.65	22348
886.775	22280
886.9	22459
887.025	22607
887.149	22200
887.274	22116
887.399	22101
887.523	22177
887.648	22044
887.773	21964
887.897	22196
888.021	22032
888.146	22067
888.27	22120
888.395	22181
888.519	22226
888.643	22211
888.767	22162
888.891	21934
889.015	22036
889.139	21831
889.263	21846
889.387	21960
889.511	22044
889.635	21991
889.759	21808
889.883	21926
890.006	21789
890.13	21972
890.254	21835
890.377	21861
890.501	21648
890.624	21595
890.748	21599
890.871	21587
890.995	21496
891.118	21355
891.241	21435
891.364	21408
891.488	21603
891.611	21511
891.734	21405
891.857	21595
891.98	21511
892.103	21428
892.226	21397
892.349	21405
892.471	21226
892.594	21367
892.717	21298
892.839	21237
892.962	21332
893.085	21416
893.207	21363
893.33	21313
893.452	21275
893.575	21431
893.697	21332
893.819	21416
893.941	21599
894.064	21329
894.186	21287
894.308	21287
894.43	21408
894.552	21492
894.674	21526
894.796	21230
894.918	21287
895.04	21389
895.161	21401
895.283	21298
895.405	21329
895.526	21359
895.648	21302
895.769	21283
895.891	21386
896.012	21416
896.134	21378
896.255	21245
896.376	21275
896.498	21222
896.619	21367
896.74	21306
896.861	21348
896.982	21587
897.103	21751
897.224	21450
897.345	21629
897.466	21443
897.587	21549
897.708	21576
897.828	21530
897.949	21580
898.07	21230
898.19	21450
898.311	21599
898.431	21469
898.552	21545
898.672	21507
898.792	21534
898.913	21454
899.033	21279
899.153	21294
899.273	21142
899.393	21233
899.513	21268
899.633	21154
899.753	21264
899.873	21104
899.993	21199
900.113	20990
900.232	21230
900.352	20998
900.472	21055
900.591	20918
900.711	20990
900.83	20914
900.95	20952
901.069	21020
901.189	20838
901.308	20716
901.427	20408
901.546	20583
901.665	20583
901.784	20533
901.904	20450
902.023	20263
902.141	20282
902.26	20001
902.379	20088
902.498	20054
902.617	19986
902.735	20084
902.854	19970
902.973	20046
903.091	19723
903.21	19670
903.328	19734
903.446	19643
903.565	19533
903.683	19430
903.801	19320
903.919	19460
904.038	19434
904.156	19236
904.274	19331
904.392	19270
904.51	19175
904.627	19175
904.745	19373
904.863	19244
904.981	19118
905.098	18882
905.216	19019
905.334	18939
905.451	18973
905.569	18768
905.686	19004
905.803	18947
905.921	18722
906.038	18856
906.155	18696
906.272	18654
906.389	18620
906.506	18426
906.623	18498
906.74	18448
906.857	18403
906.974	18342
907.091	18441
907.208	18551
907.324	18395
907.441	18258
907.557	18277
907.674	18220
907.79	18064
907.907	18136
908.023	18178
908.139	18114
908.256	18087
908.372	18171
908.488	18045
908.604	17950
908.72	17847
908.836	17840
908.952	17760
909.068	17897
909.184	17958
909.3	17840
909.415	17882
909.531	17855
909.647	17668
909.762	17589
909.878	17528
909.993	17558
910.108	17539
910.224	17558
910.339	17600
910.454	17436
910.57	17398
910.685	17258
910.8	17585
910.915	17486
911.03	17349
911.145	17193
911.259	17136
911.374	17105
911.489	17079
911.604	17018
911.718	16873
911.833	16869
911.947	16805
912.062	16782
912.176	16873
912.291	16885
912.405	16987
912.519	17025
912.633	16938
912.748	16927
912.862	16862
912.976	16653
913.09	16634
913.204	16656
913.318	16736
913.431	16603
913.545	16733
913.659	16831
913.772	16618
913.886	16554
914	16459
914.113	16413
914.226	16596
914.34	16584
914.453	16421
914.566	16523
914.68	16413
914.793	16371
914.906	16188
915.019	16101
915.132	16048
915.245	16086
915.358	16021
915.47	16093
915.583	16017
915.696	16055
915.809	15987
915.921	16238
916.034	16036
916.146	15918
916.259	15911
916.371	16036
916.483	15880
916.595	15831
916.708	15838
916.82	15812
916.932	15823
917.044	15789
917.156	15895
917.268	15553
917.38	15671
917.491	15591
917.603	15732
917.715	15842
917.826	15819
917.938	15477
918.049	15584
918.161	15568
918.272	15644
918.384	15835
918.495	15580
918.606	15496
918.717	15336
918.828	15534
918.939	15469
919.05	15408
919.161	15355
919.272	15245
919.383	15218
919.494	15496
919.604	15469
919.715	15405
919.826	15268
919.936	15291
920.047	15412
920.157	15351
920.267	15469
920.378	15329
920.488	15329
920.598	15519
920.708	15698
920.818	15462
920.928	15458
921.038	15637
921.148	15564
921.258	15370
921.368	15154
921.477	15157
921.587	15028
921.697	14941
921.806	15024
921.916	14819
922.025	14708
922.134	14781
922.244	14743
922.353	14682
922.462	14640
922.571	14522
922.68	14324
922.789	14324
922.898	14275
923.007	14157
923.116	14343
923.224	14221
923.333	14252
923.442	14229
923.55	14138
923.659	14210
923.767	14263
923.876	14024
923.984	14107
924.092	13997
924.201	14062
924.309	14039
924.417	13978
924.525	13993
924.633	14081
924.741	14735
924.849	13761
924.956	13928
925.064	13700
925.172	13723
925.279	13799
925.387	13750
925.494	13670
925.602	13807
925.709	13670
925.816	13529
925.924	13601
926.031	13666
926.138	13571
926.245	13658
926.352	13499
926.459	13575
926.566	13719
926.673	13480
926.779	13476
926.886	13510
926.993	13228
927.099	13324
927.206	13263
927.312	13061
927.419	13297
927.525	13118
927.631	13263
927.737	13091
927.843	13088
927.95	12996
928.056	13034
928.162	13088
928.267	13061
928.373	13689
928.479	13126
928.585	12863
928.69	13091
928.796	12993
928.901	12905
929.007	12779
929.112	12951
929.218	12863
929.323	12757
929.428	12791
929.533	12962
929.638	12684
929.743	12703
929.848	12738
929.953	12783
930.058	12467
930.163	12388
930.267	12353
930.372	12547
930.477	12327
930.581	12707
930.685	12467
930.79	12270
930.894	12407
930.998	12300
931.103	12399
931.207	12038
931.311	11897
931.415	11855
931.519	11680
931.623	11570
