Data from test_V78500241_2618.txt Node
Date: Fri Mar 25 15:59:56 CST 2022
User: usil
Spectrometer: V785-0024
Trigger mode: 0
Integration Time (sec): 4.000000E-1
Scans to average: 1
Nonlinearity correction enabled: false
Boxcar width: 0
Storing dark spectrum: false
XAxis mode: Wavelengths
Number of Pixels in Spectrum: 1024
>>>>>Begin Spectral Data<<<<<
801.071	28953
801.214	28915
801.356	28847
801.499	28675
801.641	28531
801.783	28637
801.926	28607
802.068	28641
802.211	28512
802.353	28363
802.496	28295
802.638	28291
802.78	28207
802.923	28303
803.065	28284
803.208	28356
803.35	28257
803.492	28394
803.635	28508
803.777	28474
803.919	28542
804.061	28850
804.204	28713
804.346	28546
804.488	28554
804.63	28668
804.773	28386
804.915	28527
805.057	28672
805.199	28603
805.341	28607
805.483	28702
805.626	28774
805.768	28523
805.91	28771
806.052	28637
806.194	28710
806.336	28778
806.478	28664
806.62	28736
806.762	28759
806.904	29075
807.046	29250
807.188	29181
807.33	29037
807.472	29296
807.614	29102
807.756	29178
807.898	28984
808.04	28809
808.182	29010
808.324	29109
808.465	29098
808.607	29307
808.749	29296
808.891	29364
809.033	29562
809.174	29455
809.316	29444
809.458	29383
809.6	29406
809.741	29497
809.883	29611
810.025	29707
810.166	29676
810.308	29737
810.45	29726
810.591	29619
810.733	29604
810.875	29436
811.016	29375
811.158	29391
811.299	29471
811.441	29535
811.582	29691
811.724	29452
811.865	29398
812.007	29410
812.148	29463
812.29	29497
812.431	29695
812.573	29767
812.714	29889
812.855	29984
812.997	30007
813.138	30190
813.279	29946
813.421	29935
813.562	29920
813.703	29847
813.845	29570
813.986	29402
814.127	29364
814.268	29025
814.41	29258
814.551	29105
814.692	29075
814.833	29151
814.974	29193
815.115	29277
815.256	28892
815.397	29060
815.539	29033
815.68	28987
815.821	28972
815.962	28976
816.103	29159
816.244	28774
816.385	28713
816.526	28740
816.666	28470
816.807	28432
816.948	28592
817.089	28516
817.23	28493
817.371	28512
817.512	28413
817.653	28394
817.793	28451
817.934	28500
818.075	28398
818.216	28569
818.356	28440
818.497	28333
818.638	28318
818.778	28044
818.919	28124
819.06	28447
819.2	28447
819.341	28447
819.481	28443
819.622	28596
819.762	28881
819.903	28786
820.043	28702
820.184	28618
820.324	28675
820.465	28577
820.605	28577
820.746	28516
820.886	28481
821.026	28535
821.167	28603
821.307	28649
821.447	28504
821.588	28451
821.728	28223
821.868	28223
822.008	27991
822.149	27884
822.289	27934
822.429	27785
822.569	27720
822.709	27610
822.849	27500
822.99	27511
823.13	27450
823.27	27378
823.41	27382
823.55	27108
823.69	27291
823.83	27359
823.97	27157
824.11	27077
824.25	27135
824.389	27051
824.529	27260
824.669	27203
824.809	27313
824.949	27127
825.089	27256
825.228	27237
825.368	26975
825.508	26986
825.648	26971
825.787	27138
825.927	27028
826.067	26979
826.206	27119
826.346	27119
826.485	27070
826.625	26986
826.765	27047
826.904	27096
827.044	26769
827.183	26697
827.323	26579
827.462	26918
827.601	26781
827.741	26712
827.88	26648
828.02	26541
828.159	26659
828.298	26731
828.437	26819
828.577	26575
828.716	26754
828.855	26708
828.994	26511
829.134	26564
829.273	26419
829.412	26347
829.551	26343
829.69	26362
829.829	26533
829.968	26469
830.107	26461
830.246	26442
830.385	26404
830.524	26134
830.663	26126
830.802	26058
830.941	26050
831.08	25974
831.219	26008
831.357	26081
831.496	26252
831.635	26077
831.774	25959
831.913	25913
832.051	25856
832.19	25894
832.329	25864
832.467	25791
832.606	25624
832.744	25620
832.883	25605
833.022	25693
833.16	25700
833.299	25723
833.437	25647
833.576	25826
833.714	25826
833.852	25757
833.991	25742
834.129	25868
834.267	25849
834.406	25841
834.544	25917
834.682	25795
834.821	25830
834.959	25902
835.097	25879
835.235	25803
835.373	25818
835.511	25769
835.65	25495
835.788	25529
835.926	25460
836.064	25263
836.202	25464
836.34	25605
836.478	25586
836.615	25567
836.753	25563
836.891	25635
837.029	25544
837.167	25620
837.305	25487
837.443	25479
837.58	25316
837.718	25373
837.856	25445
837.993	25324
838.131	25559
838.269	25228
838.406	25312
838.544	25251
838.681	24985
838.819	24981
838.956	24829
839.094	24772
839.231	24928
839.369	25084
839.506	25187
839.643	25183
839.781	24871
839.918	24856
840.055	24840
840.193	24833
840.33	24669
840.467	24757
840.604	24844
840.742	25076
840.879	24810
841.016	24798
841.153	24703
841.29	25042
841.427	24760
841.564	24658
841.701	24764
841.838	24783
841.975	24540
842.112	24627
842.249	24604
842.385	24467
842.522	24722
842.659	24563
842.796	24517
842.933	24445
843.069	24441
843.206	24502
843.343	24582
843.479	24570
843.616	24486
843.752	24388
843.889	24308
844.025	24437
844.162	24292
844.298	24418
844.435	24308
844.571	24292
844.708	24311
844.844	24479
844.98	24483
845.117	24429
845.253	24171
845.389	24155
845.525	24403
845.661	24182
845.798	24182
845.934	23992
846.07	24079
846.206	24060
846.342	24125
846.478	24015
846.614	23779
846.75	23687
846.886	23657
847.022	23885
847.158	23764
847.294	23756
847.429	23851
847.565	23672
847.701	24018
847.837	23349
847.972	23478
848.108	23493
848.244	23577
848.379	23337
848.515	23406
848.65	23280
848.786	23387
848.921	23364
849.057	23349
849.192	23356
849.328	23474
849.463	23425
849.598	23231
849.734	23246
849.869	23216
850.004	22987
850.14	23090
850.275	23086
850.41	22938
850.545	23162
850.68	23159
850.815	23193
850.95	23060
851.085	23280
851.22	23216
851.355	23064
851.49	23060
851.625	23079
851.76	23181
851.895	23048
852.03	23018
852.165	22919
852.299	23090
852.434	23056
852.569	23109
852.703	23189
852.838	23208
852.973	23296
853.107	23185
853.242	23105
853.376	23022
853.511	22774
853.645	22972
853.78	23022
853.914	22984
854.048	22771
854.183	22911
854.317	22968
854.451	23277
854.585	23033
854.72	22934
854.854	23033
854.988	22812
855.122	22843
855.256	22733
855.39	23075
855.524	22972
855.658	22949
855.792	22984
855.926	23060
856.06	22885
856.194	23052
856.327	22889
856.461	22839
856.595	22927
856.729	22919
856.862	22953
856.996	23041
857.13	23067
857.263	23094
857.397	23071
857.53	22866
857.664	23048
857.797	22999
857.931	23052
858.064	23014
858.197	23094
858.331	22930
858.464	22927
858.597	22710
858.731	22774
858.864	22995
858.997	22862
859.13	22843
859.263	22869
859.396	22991
859.529	22930
859.662	22858
859.795	23014
859.928	22858
860.061	23041
860.194	23090
860.327	23064
860.46	22908
860.592	23200
860.725	23079
860.858	23140
860.99	22911
861.123	22744
861.256	22847
861.388	22957
861.521	23611
861.653	22809
861.786	22797
861.918	22713
862.05	22885
862.183	22805
862.315	22668
862.447	22900
862.58	22900
862.712	22554
862.844	22630
862.976	22729
863.108	22797
863.24	23041
863.372	22538
863.504	22634
863.636	22584
863.768	22729
863.9	22668
864.032	22584
864.164	22542
864.296	22755
864.428	22603
864.559	22694
864.691	22801
864.823	22637
864.954	22599
865.086	22512
865.217	22538
865.349	22424
865.48	22493
865.612	22413
865.743	22691
865.875	22375
866.006	22386
866.137	22398
866.269	22417
866.4	22531
866.531	22386
866.662	22379
866.793	22329
866.924	22466
867.055	22478
867.186	22542
867.317	22390
867.448	22287
867.579	22428
867.71	22329
867.841	22348
867.972	22443
868.103	22436
868.233	22440
868.364	22344
868.495	22565
868.625	22733
868.756	22759
868.886	22653
869.017	22615
869.147	22771
869.278	22820
869.408	22618
869.539	22645
869.669	22672
869.799	22721
869.929	22915
870.06	22831
870.19	22999
870.32	22980
870.45	23022
870.58	22949
870.71	23060
870.84	23136
870.97	23094
871.1	22984
871.23	23189
871.36	23261
871.489	23166
871.619	23178
871.749	23288
871.879	23307
872.008	23303
872.138	23216
872.267	23170
872.397	23143
872.526	23193
872.656	23124
872.785	23083
872.915	23330
873.044	23554
873.173	23269
873.303	23299
873.432	23280
873.561	23372
873.69	23311
873.819	23288
873.948	23406
874.077	23239
874.206	23292
874.335	23265
874.464	23402
874.593	23547
874.722	23391
874.851	23528
874.979	23562
875.108	23596
875.237	23467
875.365	23379
875.494	23459
875.623	23596
875.751	23402
875.88	23524
876.008	23554
876.136	23710
876.265	23809
876.393	23923
876.521	23931
876.65	23996
876.778	23931
876.906	23775
877.034	23817
877.162	23904
877.29	23927
877.418	23802
877.546	23882
877.674	23783
877.802	23893
877.93	23767
878.058	23855
878.185	23649
878.313	23821
878.441	23729
878.568	23577
878.696	23767
878.824	23828
878.951	23935
879.079	24076
879.206	24091
879.333	23961
879.461	23748
879.588	23939
879.715	23931
879.842	24152
879.97	23912
880.097	23752
880.224	23634
880.351	23699
880.478	23745
880.605	23566
880.732	23687
880.859	23901
880.986	23592
881.112	23703
881.239	23467
881.366	23417
881.493	23368
881.619	23242
881.746	23231
881.872	23094
881.999	23197
882.125	23197
882.252	23284
882.378	23094
882.505	23318
882.631	23151
882.757	22812
882.883	23048
883.01	22797
883.136	22942
883.262	22748
883.388	22694
883.514	22812
883.64	22904
883.766	22801
883.892	22706
884.018	22679
884.143	22717
884.269	22927
884.395	22497
884.52	22474
884.646	22527
884.772	22455
884.897	22333
885.023	22626
885.148	22462
885.274	22618
885.399	22565
885.524	22462
885.65	22527
885.775	22542
885.9	22584
886.025	22531
886.15	22554
886.275	22440
886.4	22443
886.525	22497
886.65	22409
886.775	22386
886.9	22531
887.025	22710
887.149	22405
887.274	22246
887.399	22131
887.523	22398
887.648	22105
887.773	22158
887.897	22272
888.021	22211
888.146	22082
888.27	22417
888.395	22246
888.519	22215
888.643	22246
888.767	22276
888.891	22230
889.015	22040
889.139	22093
889.263	22070
889.387	22143
889.511	22177
889.635	22010
889.759	22093
889.883	22013
890.006	22059
890.13	22128
890.254	21895
890.377	21926
890.501	21759
890.624	21694
890.748	21819
890.871	21656
890.995	21488
891.118	21587
891.241	21549
891.364	21515
891.488	21732
891.611	21690
891.734	21606
891.857	21644
891.98	21610
892.103	21507
892.226	21519
892.349	21458
892.471	21325
892.594	21534
892.717	21515
892.839	21450
892.962	21477
893.085	21504
893.207	21435
893.33	21389
893.452	21393
893.575	21488
893.697	21450
893.819	21606
893.941	21679
894.064	21618
894.186	21363
894.308	21317
894.43	21523
894.552	21618
894.674	21416
894.796	21435
894.918	21302
895.04	21405
895.161	21431
895.283	21454
895.405	21336
895.526	21408
895.648	21447
895.769	21408
895.891	21450
896.012	21561
896.134	21534
896.255	21526
896.376	21416
896.498	21485
896.619	21515
896.74	21443
896.861	21435
896.982	21778
897.103	21899
897.224	21816
897.345	21713
897.466	21553
897.587	21690
897.708	21705
897.828	21720
897.949	21511
898.07	21450
898.19	21424
898.311	21679
898.431	21557
898.552	21686
898.672	21606
898.792	21743
898.913	21713
899.033	21530
899.153	21420
899.273	21207
899.393	21256
899.513	21511
899.633	21359
899.753	21367
899.873	21233
899.993	21332
900.113	21237
900.232	21264
900.352	21135
900.472	21241
900.591	21074
900.711	21161
900.83	21100
900.95	21165
901.069	21180
901.189	20990
901.308	20750
901.427	20678
901.546	20705
901.665	20629
901.784	20674
901.904	20560
902.023	20533
902.141	20275
902.26	20187
902.379	20282
902.498	20107
902.617	20115
902.735	20164
902.854	20157
902.973	20145
903.091	19967
903.21	19788
903.328	19898
903.446	19738
903.565	19578
903.683	19655
903.801	19453
903.919	19632
904.038	19601
904.156	19472
904.274	19480
904.392	19384
904.51	19403
904.627	19293
904.745	19392
904.863	19483
904.981	19160
905.098	18989
905.216	19031
905.334	18962
905.451	19107
905.569	19012
905.686	18954
905.803	18935
905.921	18844
906.038	18897
906.155	18806
906.272	18825
906.389	18757
906.506	18540
906.623	18574
906.74	18517
906.857	18426
906.974	18399
907.091	18616
907.208	18681
907.324	18578
907.441	18445
907.557	18266
907.674	18235
907.79	18262
907.907	18190
908.023	18338
908.139	18304
908.256	18155
908.372	18159
908.488	18034
908.604	18003
908.72	17965
908.836	17939
908.952	17912
909.068	18030
909.184	18136
909.3	17889
909.415	18003
909.531	17996
909.647	17729
909.762	17665
909.878	17615
909.993	17745
910.108	17672
910.224	17691
910.339	17661
910.454	17520
910.57	17551
910.685	17372
910.8	17623
910.915	17714
911.03	17436
911.145	17269
911.259	17242
911.374	17265
911.489	17193
911.604	17124
911.718	17006
911.833	17064
911.947	16881
912.062	16843
912.176	17041
912.291	16984
912.405	16991
912.519	17242
912.633	17231
912.748	16968
912.862	16987
912.976	16786
913.09	16748
913.204	16679
913.318	16778
913.431	16835
913.545	16805
913.659	16831
913.772	16774
913.886	16622
914	16569
914.113	16710
914.226	16713
914.34	16607
914.453	16440
914.566	16546
914.68	16371
914.793	16470
914.906	16204
915.019	16181
915.132	16169
915.245	16090
915.358	16105
915.47	16063
915.583	16166
915.696	16090
915.809	16181
915.921	16253
916.034	16055
916.146	16192
916.259	15994
916.371	16078
916.483	16093
916.595	15835
916.708	16032
916.82	15987
916.932	15937
917.044	16021
917.156	15823
917.268	15736
917.38	15895
917.491	15797
917.603	15736
917.715	15797
917.826	15850
917.938	15728
918.049	15610
918.161	15675
918.272	15895
918.384	15842
918.495	15778
918.606	15538
918.717	15462
918.828	15511
918.939	15568
919.05	15378
919.161	15519
919.272	15313
919.383	15443
919.494	15496
919.604	15641
919.715	15450
919.826	15302
919.936	15477
920.047	15488
920.157	15462
920.267	15595
920.378	15488
920.488	15389
920.598	15652
920.708	15812
920.818	15561
920.928	15606
921.038	15747
921.148	15663
921.258	15466
921.368	15230
921.477	15192
921.587	15051
921.697	15119
921.806	15157
921.916	14982
922.025	14838
922.134	14899
922.244	14758
922.353	14777
922.462	14621
922.571	14708
922.68	14511
922.789	14465
922.898	14537
923.007	14374
923.116	14419
923.224	14412
923.333	14317
923.442	14278
923.55	14252
923.659	14267
923.767	14229
923.876	14183
923.984	14286
924.092	14221
924.201	14142
924.309	14164
924.417	14088
924.525	14065
924.633	14088
924.741	15058
924.849	13860
924.956	13963
925.064	13849
925.172	13715
925.279	13784
925.387	13795
925.494	13868
925.602	13947
925.709	13784
925.816	13761
925.924	13746
926.031	13845
926.138	13715
926.245	13791
926.352	13525
926.459	13803
926.566	13845
926.673	13651
926.779	13495
926.886	13422
926.993	13384
927.099	13346
927.206	13282
927.312	13266
927.419	13400
927.525	13403
927.631	13202
927.737	13228
927.843	13156
927.95	13050
928.056	13194
928.162	13259
928.267	13206
928.373	13651
928.479	13263
928.585	12951
928.69	13080
928.796	13171
928.901	12981
929.007	12779
929.112	13088
929.218	12962
929.323	12958
929.428	12863
929.533	12920
929.638	12768
929.743	12810
929.848	12825
929.953	12806
930.058	12684
930.163	12486
930.267	12498
930.372	12620
930.477	12441
930.581	12703
930.685	12582
930.79	12407
930.894	12330
930.998	12486
931.103	12464
931.207	12110
931.311	12072
931.415	11912
931.519	11798
931.623	11672
