Data from test_V78500241_996.txt Node
Date: Fri Mar 25 15:48:42 CST 2022
User: usil
Spectrometer: V785-0024
Trigger mode: 0
Integration Time (sec): 4.000000E-1
Scans to average: 1
Nonlinearity correction enabled: false
Boxcar width: 0
Storing dark spectrum: false
XAxis mode: Wavelengths
Number of Pixels in Spectrum: 1024
>>>>>Begin Spectral Data<<<<<
801.071	28257
801.214	28280
801.356	27987
801.499	28131
801.641	27766
801.783	27838
801.926	27888
802.068	27968
802.211	27816
802.353	27713
802.496	27542
802.638	27629
802.78	27469
802.923	27504
803.065	27583
803.208	27599
803.35	27564
803.492	27671
803.635	27732
803.777	27568
803.919	27724
804.061	28051
804.204	27724
804.346	27694
804.488	27454
804.63	27698
804.773	27671
804.915	27709
805.057	27979
805.199	27762
805.341	27774
805.483	27869
805.626	27972
805.768	27762
805.91	27819
806.052	27899
806.194	27720
806.336	28063
806.478	27854
806.62	27869
806.762	28048
806.904	28169
807.046	28424
807.188	28436
807.33	28379
807.472	28428
807.614	28238
807.756	28352
807.898	28120
808.04	28139
808.182	28036
808.324	28150
808.465	28314
808.607	28314
808.749	28653
808.891	28626
809.033	28672
809.174	28519
809.316	28523
809.458	28462
809.6	28691
809.741	28710
809.883	28801
810.025	28930
810.166	28908
810.308	28888
810.45	28797
810.591	28782
810.733	28656
810.875	28622
811.016	28516
811.158	28443
811.299	28713
811.441	28771
811.582	28694
811.724	28550
811.865	28500
812.007	28577
812.148	28679
812.29	28645
812.431	28828
812.573	28911
812.714	28896
812.855	29090
812.997	29143
813.138	29425
813.279	29273
813.421	29109
813.562	29140
813.703	28957
813.845	28805
813.986	28504
814.127	28268
814.268	28287
814.41	28367
814.551	28322
814.692	28493
814.833	28177
814.974	28234
815.115	28360
815.256	28276
815.397	28230
815.539	28105
815.68	28135
815.821	28093
815.962	28101
816.103	28063
816.244	27854
816.385	27785
816.526	27941
816.666	27637
816.807	27580
816.948	27671
817.089	27625
817.23	27686
817.371	27720
817.512	27496
817.653	27622
817.793	27401
817.934	27675
818.075	27595
818.216	27633
818.356	27599
818.497	27485
818.638	27325
818.778	27378
818.919	27249
819.06	27302
819.2	27644
819.341	27675
819.481	27610
819.622	27766
819.762	27911
819.903	27774
820.043	27789
820.184	27766
820.324	27587
820.465	27751
820.605	27778
820.746	27698
820.886	27511
821.026	27694
821.167	27633
821.307	27823
821.447	27561
821.588	27583
821.728	27321
821.868	27249
822.008	27157
822.149	27074
822.289	27169
822.429	26883
822.569	26701
822.709	26769
822.849	26587
822.99	26648
823.13	26575
823.27	26492
823.41	26396
823.55	26229
823.69	26537
823.83	26492
823.97	26408
824.11	26202
824.25	26278
824.389	26199
824.529	26298
824.669	26252
824.809	26317
824.949	26336
825.089	26374
825.228	26328
825.368	26073
825.508	26043
825.648	26134
825.787	26153
825.927	26130
826.067	26100
826.206	26088
826.346	26122
826.485	26142
826.625	26035
826.765	26103
826.904	26107
827.044	25852
827.183	25986
827.323	25753
827.462	25715
827.601	25959
827.741	25708
827.88	25833
828.02	25613
828.159	25868
828.298	25799
828.437	25906
828.577	25757
828.716	25894
828.855	25666
828.994	25590
829.134	25422
829.273	25476
829.412	25704
829.551	25384
829.69	25518
829.829	25624
829.968	25537
830.107	25525
830.246	25518
830.385	25381
830.524	25320
830.663	25308
830.802	25251
830.941	25076
831.08	25031
831.219	25350
831.357	25228
831.496	25285
831.635	25099
831.774	24973
831.913	25023
832.051	24939
832.19	24863
832.329	24734
832.467	24791
832.606	24692
832.744	24848
832.883	24715
833.022	24681
833.16	24897
833.299	24840
833.437	24859
833.576	24791
833.714	24878
833.852	24901
833.991	24943
834.129	25015
834.267	24890
834.406	24802
834.544	24840
834.682	24840
834.821	24878
834.959	24897
835.097	24768
835.235	24768
835.373	24837
835.511	24821
835.65	24646
835.788	24722
835.926	24448
836.064	24570
836.202	24437
836.34	24669
836.478	24734
836.615	24551
836.753	24719
836.891	24749
837.029	24597
837.167	24719
837.305	24650
837.443	24540
837.58	24544
837.718	24559
837.856	24448
837.993	24471
838.131	24452
838.269	24353
838.406	24369
838.544	24194
838.681	24163
838.819	24091
838.956	23969
839.094	23939
839.231	24011
839.369	24144
839.506	24448
839.643	24205
839.781	23946
839.918	23920
840.055	24003
840.193	23923
840.33	23935
840.467	23942
840.604	23946
840.742	24213
840.879	23748
841.016	23756
841.153	23817
841.29	23973
841.427	23961
841.564	23958
841.701	23771
841.838	23851
841.975	23828
842.112	23748
842.249	23752
842.385	23619
842.522	23828
842.659	23752
842.796	23668
842.933	23619
843.069	23539
843.206	23558
843.343	23634
843.479	23684
843.616	23528
843.752	23391
843.889	23376
844.025	23531
844.162	23410
844.298	23505
844.435	23414
844.571	23292
844.708	23398
844.844	23562
844.98	23531
845.117	23554
845.253	23231
845.389	23254
845.525	23372
845.661	23296
845.798	23261
845.934	23166
846.07	23022
846.206	23086
846.342	23197
846.478	23151
846.614	22915
846.75	22736
846.886	22748
847.022	23064
847.158	22942
847.294	22858
847.429	22869
847.565	22771
847.701	23124
847.837	22527
847.972	22660
848.108	22683
848.244	22634
848.379	22527
848.515	22379
848.65	22493
848.786	22405
848.921	22386
849.057	22485
849.192	22538
849.328	22497
849.463	22363
849.598	22371
849.734	22249
849.869	22394
850.004	22162
850.14	22257
850.275	22139
850.41	22150
850.545	22128
850.68	22207
850.815	22219
850.95	22124
851.085	22356
851.22	22238
851.355	22215
851.49	22185
851.625	22246
851.76	22166
851.895	21979
852.03	22143
852.165	22185
852.299	22211
852.434	22276
852.569	22249
852.703	22177
852.838	22261
852.973	22299
853.107	22329
853.242	22143
853.376	22021
853.511	21926
853.645	21972
853.78	22154
853.914	22109
854.048	22150
854.183	22105
854.317	21926
854.451	22150
854.585	21991
854.72	22105
854.854	22101
854.988	21915
855.122	21915
855.256	21838
855.39	22002
855.524	22063
855.658	22055
855.792	22070
855.926	22181
856.06	22021
856.194	22268
856.327	21934
856.461	21991
856.595	22162
856.729	21934
856.862	22230
856.996	21991
857.13	22006
857.263	22192
857.397	22074
857.53	21838
857.664	22021
857.797	22086
857.931	22143
858.064	22017
858.197	22139
858.331	21998
858.464	21964
858.597	21903
858.731	21994
858.864	22097
858.997	21926
859.13	22010
859.263	22013
859.396	22044
859.529	22067
859.662	21960
859.795	21930
859.928	21937
860.061	22101
860.194	22185
860.327	22147
860.46	22128
860.592	22101
860.725	22211
860.858	22177
860.99	22090
861.123	21831
861.256	21956
861.388	22032
861.521	22626
861.653	21918
861.786	21728
861.918	21804
862.05	21846
862.183	21994
862.315	21956
862.447	21854
862.58	21892
862.712	21713
862.844	21812
862.976	21759
863.108	21747
863.24	22112
863.372	21755
863.504	21732
863.636	21759
863.768	21736
863.9	21663
864.032	21690
864.164	21698
864.296	21781
864.428	21766
864.559	21789
864.691	21835
864.823	21770
864.954	21694
865.086	21732
865.217	21637
865.349	21485
865.48	21652
865.612	21671
865.743	21679
865.875	21549
866.006	21549
866.137	21732
866.269	21538
866.4	21610
866.531	21534
866.662	21576
866.793	21507
866.924	21549
867.055	21625
867.186	21507
867.317	21504
867.448	21507
867.579	21420
867.71	21420
867.841	21351
867.972	21568
868.103	21492
868.233	21473
868.364	21443
868.495	21698
868.625	21690
868.756	21926
868.886	21724
869.017	21835
869.147	21869
869.278	21911
869.408	21865
869.539	21819
869.669	21876
869.799	21907
869.929	22013
870.06	21873
870.19	22105
870.32	22135
870.45	22105
870.58	22253
870.71	22257
870.84	22242
870.97	22181
871.1	22162
871.23	22413
871.36	22363
871.489	22249
871.619	22322
871.749	22242
871.879	22382
872.008	22421
872.138	22436
872.267	22360
872.397	22219
872.526	22215
872.656	22211
872.785	22249
872.915	22382
873.044	22550
873.173	22447
873.303	22398
873.432	22386
873.561	22474
873.69	22367
873.819	22413
873.948	22466
874.077	22375
874.206	22402
874.335	22470
874.464	22462
874.593	22660
874.722	22527
874.851	22588
874.979	22622
875.108	22698
875.237	22588
875.365	22459
875.494	22459
875.623	22778
875.751	22455
875.88	22637
876.008	22683
876.136	22774
876.265	22946
876.393	23067
876.521	23105
876.65	23014
876.778	22923
876.906	22820
877.034	22949
877.162	22923
877.29	22831
877.418	23166
877.546	22976
877.674	22984
877.802	22892
877.93	22904
878.058	22908
878.185	22938
878.313	22889
878.441	22778
878.568	22729
878.696	22835
878.824	22972
878.951	22934
879.079	23052
879.206	23189
879.333	23128
879.461	22862
879.588	23083
879.715	22995
879.842	23121
879.97	22915
880.097	22809
880.224	22717
880.351	22744
880.478	22854
880.605	22710
880.732	22733
880.859	23060
880.986	22725
881.112	22763
881.239	22542
881.366	22481
881.493	22451
881.619	22306
881.746	22333
881.872	22344
881.999	22344
882.125	22181
882.252	22253
882.378	22280
882.505	22398
882.631	22147
882.757	22067
882.883	22112
883.01	21975
883.136	22048
883.262	21911
883.388	21808
883.514	21975
883.64	22048
883.766	21854
883.892	21709
884.018	21861
884.143	21918
884.269	21979
884.395	21774
884.52	21545
884.646	21656
884.772	21568
884.897	21576
885.023	21675
885.148	21751
885.274	21736
885.399	21679
885.524	21591
885.65	21713
885.775	21652
885.9	21557
886.025	21751
886.15	21610
886.275	21633
886.4	21458
886.525	21717
886.65	21622
886.775	21576
886.9	21781
887.025	21797
887.149	21591
887.274	21507
887.399	21329
887.523	21450
887.648	21344
887.773	21218
887.897	21458
888.021	21641
888.146	21336
888.27	21542
888.395	21553
888.519	21447
888.643	21287
888.767	21553
888.891	21363
889.015	21245
889.139	21363
889.263	21070
889.387	21256
889.511	21507
889.635	21378
889.759	21123
889.883	21230
890.006	21192
890.13	21386
890.254	21203
890.377	21119
890.501	20906
890.624	20876
890.748	21032
890.871	20864
890.995	20636
891.118	20689
891.241	20682
891.364	20807
891.488	20910
891.611	20762
891.734	20629
891.857	20830
891.98	20727
892.103	20670
892.226	20807
892.349	20678
892.471	20590
892.594	20655
892.717	20754
892.839	20590
892.962	20606
893.085	20701
893.207	20670
893.33	20511
893.452	20514
893.575	20815
893.697	20609
893.819	20724
893.941	20880
894.064	20845
894.186	20655
894.308	20571
894.43	20838
894.552	20796
894.674	20762
894.796	20549
894.918	20621
895.04	20693
895.161	20708
895.283	20655
895.405	20552
895.526	20594
895.648	20541
895.769	20712
895.891	20792
896.012	20792
896.134	20632
896.255	20678
896.376	20609
896.498	20609
896.619	20746
896.74	20659
896.861	20655
896.982	21032
897.103	21150
897.224	20792
897.345	20883
897.466	20777
897.587	20849
897.708	20975
897.828	20800
897.949	20796
898.07	20651
898.19	20781
898.311	20857
898.431	20796
898.552	20941
898.672	20830
898.792	20819
898.913	20864
899.033	20735
899.153	20743
899.273	20454
899.393	20674
899.513	20686
899.633	20556
899.753	20530
899.873	20495
899.993	20708
900.113	20663
900.232	20701
900.352	20465
900.472	20442
900.591	20355
900.711	20473
900.83	20286
900.95	20396
901.069	20419
901.189	20301
901.308	19982
901.427	19928
901.546	19951
901.665	19997
901.784	19959
901.904	19822
902.023	19712
902.141	19609
902.26	19533
902.379	19422
902.498	19571
902.617	19422
902.735	19491
902.854	19365
902.973	19476
903.091	19118
903.21	19107
903.328	19023
903.446	19065
903.565	18833
903.683	19057
903.801	18726
903.919	18878
904.038	18863
904.156	18707
904.274	18802
904.392	18749
904.51	18654
904.627	18730
904.745	18692
904.863	18700
904.981	18467
905.098	18369
905.216	18357
905.334	18403
905.451	18407
905.569	18296
905.686	18273
905.803	18395
905.921	18125
906.038	18144
906.155	18038
906.272	18129
906.389	17999
906.506	17809
906.623	17992
906.74	17904
906.857	17836
906.974	17745
907.091	17901
907.208	17897
907.324	17832
907.441	17710
907.557	17554
907.674	17558
907.79	17478
907.907	17562
908.023	17592
908.139	17600
908.256	17520
908.372	17467
908.488	17463
908.604	17318
908.72	17292
908.836	17318
908.952	17307
909.068	17414
909.184	17402
909.3	17258
909.415	17315
909.531	17315
909.647	17067
909.762	16972
909.878	17003
909.993	17037
910.108	16896
910.224	16877
910.339	16949
910.454	16877
910.57	16900
910.685	16683
910.8	16923
910.915	16850
911.03	16778
911.145	16588
911.259	16500
911.374	16584
911.489	16466
911.604	16542
911.718	16382
911.833	16360
911.947	16158
912.062	16169
912.176	16303
912.291	16337
912.405	16402
912.519	16455
912.633	16577
912.748	16394
912.862	16333
912.976	16158
913.09	16063
913.204	16112
913.318	16109
913.431	16226
913.545	16169
913.659	16185
913.772	16093
913.886	16025
914	15987
914.113	16013
914.226	15956
914.34	16017
914.453	15865
914.566	15907
914.68	15774
914.793	15751
914.906	15603
915.019	15534
915.132	15511
915.245	15492
915.358	15492
915.47	15519
915.583	15587
915.696	15633
915.809	15584
915.921	15660
916.034	15500
916.146	15466
916.259	15340
916.371	15580
916.483	15405
916.595	15306
916.708	15344
916.82	15336
916.932	15340
917.044	15283
917.156	15317
917.268	15203
917.38	15112
917.491	15131
917.603	15154
917.715	15260
917.826	15214
917.938	15089
918.049	15112
918.161	15108
918.272	15241
918.384	15214
918.495	15055
918.606	14982
918.717	14880
918.828	14990
918.939	14952
919.05	14834
919.161	14956
919.272	14769
919.383	14796
919.494	14914
919.604	15047
919.715	14914
919.826	14807
919.936	14880
920.047	14967
920.157	14853
920.267	15055
920.378	14834
920.488	14754
920.598	15017
920.708	15097
920.818	15013
920.928	14941
921.038	15142
921.148	15154
921.258	14777
921.368	14743
921.477	14594
921.587	14659
921.697	14454
921.806	14606
921.916	14404
922.025	14351
922.134	14244
922.244	14145
922.353	14385
922.462	14134
922.571	13993
922.68	13932
922.789	13989
922.898	13925
923.007	13852
923.116	13917
923.224	13890
923.333	13898
923.442	13696
923.55	13624
923.659	13719
923.767	13769
923.876	13609
923.984	13715
924.092	13514
924.201	13643
924.309	13624
924.417	13632
924.525	13510
924.633	13499
924.741	14495
924.849	13339
924.956	13487
925.064	13282
925.172	13251
925.279	13278
925.387	13339
925.494	13289
925.602	13426
925.709	13278
925.816	13137
925.924	13251
926.031	13331
926.138	13171
926.245	13266
926.352	13171
926.459	13266
926.566	13335
926.673	13103
926.779	13103
926.886	12985
926.993	12913
927.099	12806
927.206	12749
927.312	12741
927.419	12913
927.525	12844
927.631	12844
927.737	12738
927.843	12665
927.95	12536
928.056	12650
928.162	12703
928.267	12753
928.373	13255
928.479	12711
928.585	12429
928.69	12551
928.796	12623
928.901	12509
929.007	12266
929.112	12490
929.218	12445
929.323	12388
929.428	12388
929.533	12426
929.638	12201
929.743	12251
929.848	12395
929.953	12266
930.058	12095
930.163	11992
930.267	12083
930.372	12182
930.477	11931
930.581	12247
930.685	12064
930.79	11950
930.894	12007
930.998	11912
931.103	12003
931.207	11646
931.311	11596
931.415	11573
931.519	11273
931.623	11212
