Data from test_V78500241_1501.txt Node
Date: Fri Mar 25 15:52:11 CST 2022
User: usil
Spectrometer: V785-0024
Trigger mode: 0
Integration Time (sec): 4.000000E-1
Scans to average: 1
Nonlinearity correction enabled: false
Boxcar width: 0
Storing dark spectrum: false
XAxis mode: Wavelengths
Number of Pixels in Spectrum: 1024
>>>>>Begin Spectral Data<<<<<
801.071	27918
801.214	27838
801.356	27633
801.499	27705
801.641	27485
801.783	27435
801.926	27511
802.068	27481
802.211	27454
802.353	27359
802.496	27176
802.638	27218
802.78	27165
802.923	26979
803.065	27001
803.208	26933
803.35	27150
803.492	27135
803.635	27374
803.777	27169
803.919	27173
804.061	27622
804.204	27477
804.346	27256
804.488	27157
804.63	27374
804.773	27363
804.915	27230
805.057	27348
805.199	27283
805.341	27401
805.483	27439
805.626	27466
805.768	27408
805.91	27511
806.052	27458
806.194	27325
806.336	27576
806.478	27507
806.62	27561
806.762	27530
806.904	27831
807.046	27968
807.188	27934
807.33	27892
807.472	28006
807.614	27869
807.756	27873
807.898	27766
808.04	27656
808.182	27736
808.324	27785
808.465	27774
808.607	27873
808.749	28162
808.891	28215
809.033	28169
809.174	28223
809.316	28051
809.458	28048
809.6	28150
809.741	28280
809.883	28211
810.025	28348
810.166	28466
810.308	28443
810.45	28348
810.591	28394
810.733	28090
810.875	28029
811.016	27991
811.158	28204
811.299	28242
811.441	28230
811.582	28226
811.724	28181
811.865	27949
812.007	28013
812.148	28059
812.29	28150
812.431	28291
812.573	28405
812.714	28622
812.855	28485
812.997	28713
813.138	28835
813.279	28793
813.421	28763
813.562	28557
813.703	28409
813.845	28249
813.986	27998
814.127	27819
814.268	27869
814.41	27842
814.551	27762
814.692	27964
814.833	27694
814.974	27762
815.115	27778
815.256	27603
815.397	27648
815.539	27789
815.68	27564
815.821	27485
815.962	27606
816.103	27545
816.244	27526
816.385	27466
816.526	27298
816.666	27180
816.807	27077
816.948	27077
817.089	27340
817.23	27150
817.371	26998
817.512	27058
817.653	27077
817.793	26960
817.934	27165
818.075	27211
818.216	27070
818.356	27135
818.497	27001
818.638	26857
818.778	26823
818.919	27017
819.06	26944
819.2	26929
819.341	27131
819.481	27093
819.622	27173
819.762	27462
819.903	27188
820.043	27294
820.184	27256
820.324	27211
820.465	27287
820.605	27302
820.746	27192
820.886	27009
821.026	27302
821.167	27203
821.307	27329
821.447	27081
821.588	27085
821.728	26880
821.868	26724
822.008	26583
822.149	26564
822.289	26609
822.429	26328
822.569	26343
822.709	26355
822.849	26100
822.99	26187
823.13	26206
823.27	26088
823.41	25970
823.55	25826
823.69	25887
823.83	25947
823.97	25769
824.11	25677
824.25	25833
824.389	25742
824.529	25913
824.669	25719
824.809	25883
824.949	25746
825.089	25856
825.228	25769
825.368	25715
825.508	25605
825.648	25605
825.787	25635
825.927	25723
826.067	25662
826.206	25605
826.346	25670
826.485	25712
826.625	25715
826.765	25750
826.904	25613
827.044	25472
827.183	25369
827.323	25365
827.462	25354
827.601	25285
827.741	25278
827.88	25430
828.02	25175
828.159	25343
828.298	25293
828.437	25369
828.577	25183
828.716	25377
828.855	25206
828.994	25129
829.134	25103
829.273	25084
829.412	24977
829.551	24973
829.69	25076
829.829	25015
829.968	25061
830.107	25053
830.246	25122
830.385	24928
830.524	24890
830.663	24802
830.802	24745
830.941	24684
831.08	24635
831.219	24612
831.357	24658
831.496	24753
831.635	24661
831.774	24532
831.913	24448
832.051	24494
832.19	24369
832.329	24475
832.467	24273
832.606	24357
832.744	24319
832.883	24194
833.022	24197
833.16	24372
833.299	24323
833.437	24353
833.576	24361
833.714	24350
833.852	24486
833.991	24304
834.129	24456
834.267	24403
834.406	24433
834.544	24452
834.682	24224
834.821	24117
834.959	24502
835.097	24209
835.235	24254
835.373	24467
835.511	24315
835.65	24330
835.788	24216
835.926	24057
836.064	23946
836.202	24018
836.34	24133
836.478	24308
836.615	24152
836.753	24190
836.891	24148
837.029	24197
837.167	24060
837.305	24144
837.443	24018
837.58	23977
837.718	24224
837.856	24121
837.993	24136
838.131	24003
838.269	23920
838.406	23954
838.544	23870
838.681	23710
838.819	23589
838.956	23627
839.094	23261
839.231	23505
839.369	23764
839.506	23843
839.643	23718
839.781	23471
839.918	23391
840.055	23543
840.193	23512
840.33	23421
840.467	23516
840.604	23531
840.742	23589
840.879	23239
841.016	23395
841.153	23273
841.29	23554
841.427	23425
841.564	23387
841.701	23303
841.838	23349
841.975	23280
842.112	23216
842.249	23353
842.385	23109
842.522	23311
842.659	23231
842.796	23162
842.933	23018
843.069	23060
843.206	23200
843.343	23246
843.479	23155
843.616	23147
843.752	22908
843.889	22995
844.025	23029
844.162	22771
844.298	22999
844.435	22908
844.571	22961
844.708	23083
844.844	23067
844.98	23113
845.117	22949
845.253	22889
845.389	22793
845.525	22862
845.661	22809
845.798	22668
845.934	22698
846.07	22630
846.206	22717
846.342	22679
846.478	22470
846.614	22413
846.75	22432
846.886	22386
847.022	22516
847.158	22409
847.294	22394
847.429	22451
847.565	22322
847.701	22691
847.837	22154
847.972	21987
848.108	22230
848.244	22287
848.379	22093
848.515	21915
848.65	22029
848.786	21994
848.921	22032
849.057	22150
849.192	22112
849.328	22002
849.463	21934
849.598	21941
849.734	21953
849.869	21873
850.004	21762
850.14	21793
850.275	21831
850.41	21701
850.545	21755
850.68	21816
850.815	21732
850.95	21739
851.085	21922
851.22	21895
851.355	21808
851.49	21755
851.625	21717
851.76	21705
851.895	21633
852.03	21732
852.165	21800
852.299	21774
852.434	21816
852.569	21736
852.703	21751
852.838	21804
852.973	21918
853.107	21854
853.242	21732
853.376	21663
853.511	21454
853.645	21530
853.78	21606
853.914	21591
854.048	21599
854.183	21568
854.317	21549
854.451	21728
854.585	21561
854.72	21633
854.854	21587
854.988	21526
855.122	21526
855.256	21450
855.39	21542
855.524	21637
855.658	21667
855.792	21576
855.926	21500
856.06	21709
856.194	21701
856.327	21603
856.461	21534
856.595	21542
856.729	21511
856.862	21766
856.996	21603
857.13	21709
857.263	21660
857.397	21656
857.53	21496
857.664	21675
857.797	21667
857.931	21595
858.064	21667
858.197	21542
858.331	21694
858.464	21458
858.597	21416
858.731	21511
858.864	21557
858.997	21603
859.13	21583
859.263	21610
859.396	21606
859.529	21523
859.662	21637
859.795	21435
859.928	21530
860.061	21686
860.194	21903
860.327	21583
860.46	21561
860.592	21625
860.725	21606
860.858	21846
860.99	21530
861.123	21473
861.256	21519
861.388	21656
861.521	22013
861.653	21447
861.786	21310
861.918	21378
862.05	21618
862.183	21488
862.315	21610
862.447	21405
862.58	21420
862.712	21351
862.844	21260
862.976	21351
863.108	21298
863.24	21888
863.372	21131
863.504	21332
863.636	21291
863.768	21374
863.9	21268
864.032	21123
864.164	21332
864.296	21275
864.428	21260
864.559	21355
864.691	21458
864.823	21363
864.954	21161
865.086	21310
865.217	21245
865.349	21085
865.48	21218
865.612	21176
865.743	21374
865.875	21230
866.006	21184
866.137	21241
866.269	21173
866.4	21211
866.531	21047
866.662	21104
866.793	21116
866.924	20963
867.055	21165
867.186	21150
867.317	21036
867.448	20982
867.579	21089
867.71	21074
867.841	21032
867.972	21199
868.103	21138
868.233	21165
868.364	21032
868.495	21112
868.625	21473
868.756	21458
868.886	21241
869.017	21367
869.147	21466
869.278	21431
869.408	21462
869.539	21348
869.669	21317
869.799	21355
869.929	21466
870.06	21485
870.19	21690
870.32	21561
870.45	21682
870.58	21736
870.71	21842
870.84	21831
870.97	21785
871.1	21682
871.23	21972
871.36	21876
871.489	21907
871.619	21812
871.749	21926
871.879	21873
872.008	22048
872.138	21895
872.267	21934
872.397	21808
872.526	21873
872.656	21812
872.785	21781
872.915	21934
873.044	22112
873.173	21968
873.303	22021
873.432	22078
873.561	21979
873.69	22017
873.819	22040
873.948	21949
874.077	22029
874.206	21945
874.335	21979
874.464	22051
874.593	22207
874.722	22192
874.851	22303
874.979	22242
875.108	22265
875.237	22188
875.365	22177
875.494	22181
875.623	22344
875.751	22234
875.88	22234
876.008	22310
876.136	22462
876.265	22542
876.393	22774
876.521	22717
876.65	22603
876.778	22599
876.906	22577
877.034	22603
877.162	22577
877.29	22447
877.418	22626
877.546	22630
877.674	22573
877.802	22569
877.93	22512
878.058	22428
878.185	22382
878.313	22573
878.441	22580
878.568	22314
878.696	22462
878.824	22523
878.951	22603
879.079	22721
879.206	22900
879.333	22850
879.461	22535
879.588	22615
879.715	22725
879.842	22809
879.97	22523
880.097	22402
880.224	22432
880.351	22451
880.478	22261
880.605	22299
880.732	22348
880.859	22500
880.986	22280
881.112	22481
881.239	22169
881.366	22109
881.493	21998
881.619	21979
881.746	21941
881.872	21880
881.999	21953
882.125	21751
882.252	21888
882.378	21998
882.505	22055
882.631	21823
882.757	21759
882.883	21778
883.01	21542
883.136	21595
883.262	21644
883.388	21367
883.514	21526
883.64	21660
883.766	21629
883.892	21431
884.018	21412
884.143	21557
884.269	21591
884.395	21321
884.52	21291
884.646	21252
884.772	21173
884.897	21207
885.023	21150
885.148	21317
885.274	21443
885.399	21424
885.524	21332
885.65	21252
885.775	21264
885.9	21237
886.025	21359
886.15	21291
886.275	21195
886.4	21241
886.525	21233
886.65	21256
886.775	21180
886.9	21389
887.025	21439
887.149	21222
887.274	21119
887.399	21081
887.523	20887
887.648	21047
887.773	20918
887.897	21070
888.021	21135
888.146	21001
888.27	21264
888.395	21192
888.519	20982
888.643	20975
888.767	21081
888.891	20937
889.015	20811
889.139	20952
889.263	20845
889.387	20800
889.511	20963
889.635	20948
889.759	20720
889.883	20792
890.006	20891
890.13	20937
890.254	20849
890.377	20792
890.501	20594
890.624	20613
890.748	20644
890.871	20541
890.995	20408
891.118	20263
891.241	20419
891.364	20484
891.488	20511
891.611	20400
891.734	20415
891.857	20385
891.98	20400
892.103	20431
892.226	20396
892.349	20317
892.471	20130
892.594	20320
892.717	20259
892.839	20237
892.962	20233
893.085	20324
893.207	20366
893.33	20199
893.452	20278
893.575	20355
893.697	20271
893.819	20389
893.941	20480
894.064	20366
894.186	20282
894.308	20199
894.43	20355
894.552	20492
894.674	20275
894.796	20195
894.918	20263
895.04	20267
895.161	20480
895.283	20317
895.405	20305
895.526	20290
895.648	20248
895.769	20374
895.891	20332
896.012	20415
896.134	20412
896.255	20275
896.376	20313
896.498	20225
896.619	20366
896.74	20332
896.861	20385
896.982	20701
897.103	20765
897.224	20670
897.345	20571
897.466	20495
897.587	20556
897.708	20590
897.828	20583
897.949	20541
898.07	20229
898.19	20427
898.311	20560
898.431	20446
898.552	20590
898.672	20670
898.792	20537
898.913	20503
899.033	20434
899.153	20275
899.273	20233
899.393	20275
899.513	20301
899.633	20294
899.753	20305
899.873	20202
899.993	20240
900.113	20126
900.232	20309
900.352	20187
900.472	20024
900.591	20077
900.711	20134
900.83	19909
900.95	20111
901.069	20046
901.189	20046
901.308	19750
901.427	19632
901.546	19651
901.665	19696
901.784	19647
901.904	19510
902.023	19316
902.141	19232
902.26	19255
902.379	19274
902.498	19206
902.617	19095
902.735	19152
902.854	19183
902.973	19027
903.091	18890
903.21	18753
903.328	18894
903.446	18806
903.565	18578
903.683	18650
903.801	18414
903.919	18635
904.038	18418
904.156	18346
904.274	18353
904.392	18258
904.51	18239
904.627	18361
904.745	18388
904.863	18437
904.981	18197
905.098	18060
905.216	18022
905.334	18049
905.451	18034
905.569	17931
905.686	18064
905.803	17999
905.921	17824
906.038	17904
906.155	17771
906.272	17756
906.389	17767
906.506	17535
906.623	17516
906.74	17573
906.857	17414
906.974	17570
907.091	17585
907.208	17748
907.324	17539
907.441	17455
907.557	17353
907.674	17360
907.79	17235
907.907	17105
908.023	17296
908.139	17200
908.256	17315
908.372	17166
908.488	17140
908.604	17098
908.72	16930
908.836	16968
908.952	16927
909.068	16980
909.184	17086
909.3	16949
909.415	16984
909.531	16904
909.647	16771
909.762	16759
909.878	16641
909.993	16752
910.108	16717
910.224	16710
910.339	16759
910.454	16489
910.57	16474
910.685	16344
910.8	16694
910.915	16653
911.03	16512
911.145	16356
911.259	16314
911.374	16310
911.489	16268
911.604	16177
911.718	15975
911.833	15987
911.947	15934
912.062	15895
912.176	16013
912.291	16169
912.405	16029
912.519	16223
912.633	16291
912.748	16051
912.862	16067
912.976	15899
913.09	15770
913.204	15663
913.318	15869
913.431	15987
913.545	15873
913.659	15892
913.772	15937
913.886	15663
914	15690
914.113	15762
914.226	15835
914.34	15778
914.453	15492
914.566	15736
914.68	15469
914.793	15485
914.906	15264
915.019	15226
915.132	15245
915.245	15294
915.358	15256
915.47	15252
915.583	15195
915.696	15264
915.809	15348
915.921	15378
916.034	15184
916.146	15123
916.259	15116
916.371	15279
916.483	15199
916.595	15066
916.708	15123
916.82	15028
916.932	15123
917.044	15024
917.156	14925
917.268	14864
917.38	14929
917.491	14960
917.603	14826
917.715	15043
917.826	15009
917.938	14807
918.049	14724
918.161	14739
918.272	14910
918.384	14967
918.495	14758
918.606	14724
918.717	14598
918.828	14587
918.939	14640
919.05	14587
919.161	14659
919.272	14503
919.383	14454
919.494	14686
919.604	14830
919.715	14568
919.826	14492
919.936	14629
920.047	14716
920.157	14701
920.267	14773
920.378	14659
920.488	14651
920.598	14716
920.708	14948
920.818	14727
920.928	14777
921.038	14895
921.148	14845
921.258	14617
921.368	14552
921.477	14476
921.587	14313
921.697	14240
921.806	14343
921.916	14210
922.025	14081
922.134	14058
922.244	13940
922.353	14027
922.462	13822
922.571	13791
922.68	13662
922.789	13639
922.898	13651
923.007	13590
923.116	13658
923.224	13540
923.333	13601
923.442	13537
923.55	13381
923.659	13499
923.767	13537
923.876	13411
923.984	13514
924.092	13335
924.201	13384
924.309	13468
924.417	13327
924.525	13274
924.633	13331
924.741	14313
924.849	13091
924.956	13209
925.064	13034
925.172	13015
925.279	12977
925.387	13099
925.494	12981
925.602	13099
925.709	13042
925.816	12973
925.924	12947
926.031	13110
926.138	13031
926.245	13027
926.352	12909
926.459	13103
926.566	13061
926.673	12989
926.779	12840
926.886	12768
926.993	12662
927.099	12555
927.206	12597
927.312	12578
927.419	12646
927.525	12593
927.631	12707
927.737	12517
927.843	12407
927.95	12342
928.056	12460
928.162	12433
928.267	12460
928.373	13046
928.479	12418
928.585	12319
928.69	12418
928.796	12498
928.901	12327
929.007	12152
929.112	12319
929.218	12323
929.323	12235
929.428	12239
929.533	12308
929.638	12102
929.743	12102
929.848	12194
929.953	12152
930.058	11969
930.163	11889
930.267	11878
930.372	12007
930.477	11794
930.581	12068
930.685	11950
930.79	11741
930.894	11790
930.998	11745
931.103	11847
931.207	11364
931.311	11421
931.415	11296
931.519	11201
931.623	11071
