Data from test_V78500241_3749.txt Node
Date: Fri Mar 25 16:07:46 CST 2022
User: usil
Spectrometer: V785-0024
Trigger mode: 0
Integration Time (sec): 4.000000E-1
Scans to average: 1
Nonlinearity correction enabled: false
Boxcar width: 0
Storing dark spectrum: false
XAxis mode: Wavelengths
Number of Pixels in Spectrum: 1024
>>>>>Begin Spectral Data<<<<<
801.071	28280
801.214	28120
801.356	27873
801.499	28070
801.641	27857
801.783	27854
801.926	27949
802.068	27880
802.211	27838
802.353	27698
802.496	27534
802.638	27466
802.78	27591
802.923	27450
803.065	27420
803.208	27416
803.35	27534
803.492	27675
803.635	27831
803.777	27660
803.919	27663
804.061	28093
804.204	27816
804.346	27698
804.488	27629
804.63	27720
804.773	27705
804.915	27618
805.057	27972
805.199	27732
805.341	27835
805.483	27949
805.626	27926
805.768	27759
805.91	27774
806.052	27838
806.194	27880
806.336	28017
806.478	27914
806.62	27835
806.762	27994
806.904	28101
807.046	28390
807.188	28394
807.33	28314
807.472	28352
807.614	28341
807.756	28322
807.898	28204
808.04	28044
808.182	28131
808.324	28185
808.465	28337
808.607	28455
808.749	28508
808.891	28630
809.033	28763
809.174	28763
809.316	28599
809.458	28538
809.6	28523
809.741	28508
809.883	28733
810.025	28721
810.166	28778
810.308	28839
810.45	28634
810.591	28713
810.733	28683
810.875	28538
811.016	28455
811.158	28478
811.299	28611
811.441	28672
811.582	28782
811.724	28592
811.865	28497
812.007	28687
812.148	28687
812.29	28599
812.431	28710
812.573	28824
812.714	28987
812.855	29041
812.997	29223
813.138	29368
813.279	29121
813.421	29079
813.562	28984
813.703	28885
813.845	28790
813.986	28363
814.127	28337
814.268	28325
814.41	28272
814.551	28215
814.692	28280
814.833	28261
814.974	28318
815.115	28177
815.256	28147
815.397	28120
815.539	28048
815.68	27937
815.821	28044
815.962	28059
816.103	28059
816.244	27812
816.385	27781
816.526	27930
816.666	27698
816.807	27530
816.948	27610
817.089	27682
817.23	27462
817.371	27648
817.512	27603
817.653	27576
817.793	27549
817.934	27568
818.075	27595
818.216	27641
818.356	27519
818.497	27412
818.638	27256
818.778	27268
818.919	27386
819.06	27321
819.2	27496
819.341	27599
819.481	27644
819.622	27800
819.762	27759
819.903	27892
820.043	27888
820.184	27629
820.324	27705
820.465	27774
820.605	27698
820.746	27774
820.886	27568
821.026	27663
821.167	27572
821.307	27667
821.447	27526
821.588	27500
821.728	27336
821.868	27233
822.008	27123
822.149	27009
822.289	26960
822.429	26758
822.569	26670
822.709	26708
822.849	26590
822.99	26511
823.13	26453
823.27	26473
823.41	26492
823.55	26206
823.69	26263
823.83	26381
823.97	26271
824.11	26164
824.25	26119
824.389	26305
824.529	26225
824.669	26286
824.809	26225
824.949	26252
825.089	26298
825.228	26153
825.368	26134
825.508	26039
825.648	26103
825.787	26225
825.927	26031
826.067	26050
826.206	25940
826.346	26229
826.485	26088
826.625	26237
826.765	26286
826.904	26149
827.044	25803
827.183	25826
827.323	25677
827.462	25970
827.601	25769
827.741	25818
827.88	25795
828.02	25715
828.159	25719
828.298	25776
828.437	25826
828.577	25769
828.716	25841
828.855	25597
828.994	25430
829.134	25491
829.273	25563
829.412	25495
829.551	25381
829.69	25495
829.829	25422
829.968	25521
830.107	25563
830.246	25400
830.385	25396
830.524	25365
830.663	25274
830.802	25232
830.941	25069
831.08	25084
831.219	25217
831.357	25141
831.496	25228
831.635	25042
831.774	24981
831.913	25008
832.051	24989
832.19	24817
832.329	24962
832.467	24749
832.606	24646
832.744	24707
832.883	24738
833.022	24719
833.16	24825
833.299	24757
833.437	24814
833.576	24821
833.714	24806
833.852	24924
833.991	24916
834.129	25061
834.267	24943
834.406	24833
834.544	24863
834.682	24798
834.821	24802
834.959	24973
835.097	24867
835.235	25004
835.373	24825
835.511	24867
835.65	24642
835.788	24738
835.926	24654
836.064	24418
836.202	24505
836.34	24601
836.478	24802
836.615	24700
836.753	24677
836.891	24753
837.029	24642
837.167	24589
837.305	24597
837.443	24479
837.58	24566
837.718	24608
837.856	24509
837.993	24486
838.131	24327
838.269	24437
838.406	24528
838.544	24365
838.681	24167
838.819	24163
838.956	23916
839.094	24045
839.231	23996
839.369	24060
839.506	24372
839.643	24216
839.781	23923
839.918	23828
840.055	23977
840.193	23859
840.33	23859
840.467	23908
840.604	23824
840.742	24117
840.879	23729
841.016	23786
841.153	23756
841.29	23897
841.427	23783
841.564	23885
841.701	23939
841.838	23901
841.975	23783
842.112	23539
842.249	23661
842.385	23592
842.522	23893
842.659	23741
842.796	23589
842.933	23771
843.069	23558
843.206	23490
843.343	23551
843.479	23684
843.616	23604
843.752	23421
843.889	23398
844.025	23551
844.162	23216
844.298	23372
844.435	23341
844.571	23440
844.708	23364
844.844	23558
844.98	23589
845.117	23471
845.253	23368
845.389	23231
845.525	23315
845.661	23083
845.798	23067
845.934	23261
846.07	23166
846.206	23162
846.342	23303
846.478	23060
846.614	23060
846.75	22725
846.886	22850
847.022	22968
847.158	22809
847.294	22850
847.429	22946
847.565	22812
847.701	22987
847.837	22550
847.972	22546
848.108	22679
848.244	22702
848.379	22485
848.515	22466
848.65	22314
848.786	22432
848.921	22550
849.057	22645
849.192	22428
849.328	22516
849.463	22504
849.598	22409
849.734	22303
849.869	22272
850.004	22192
850.14	22158
850.275	22276
850.41	22162
850.545	22177
850.68	22116
850.815	22238
850.95	22318
851.085	22314
851.22	22352
851.355	22265
851.49	22200
851.625	22200
851.76	22036
851.895	22105
852.03	22162
852.165	22196
852.299	22329
852.434	22348
852.569	22318
852.703	22086
852.838	22306
852.973	22341
853.107	22375
853.242	22124
853.376	22036
853.511	21930
853.645	22032
853.78	22158
853.914	22101
854.048	21922
854.183	21983
854.317	22067
854.451	22314
854.585	21956
854.72	22055
854.854	22166
854.988	21956
855.122	21953
855.256	21918
855.39	22036
855.524	22051
855.658	22090
855.792	22086
855.926	21949
856.06	22051
856.194	22082
856.327	22055
856.461	21930
856.595	22025
856.729	21880
856.862	22223
856.996	22055
857.13	22177
857.263	22177
857.397	22013
857.53	22082
857.664	22059
857.797	22025
857.931	22196
858.064	21979
858.197	22101
858.331	21994
858.464	21979
858.597	21899
858.731	22006
858.864	21975
858.997	22070
859.13	22021
859.263	22131
859.396	22067
859.529	22070
859.662	22048
859.795	22093
859.928	22204
860.061	22036
860.194	22344
860.327	22158
860.46	22055
860.592	22196
860.725	22120
860.858	22109
860.99	22013
861.123	22017
861.256	22032
861.388	21991
861.521	22782
861.653	21857
861.786	21911
861.918	21812
862.05	21884
862.183	21956
862.315	21926
862.447	22101
862.58	21903
862.712	21888
862.844	21720
862.976	21850
863.108	21785
863.24	22299
863.372	21732
863.504	21778
863.636	21660
863.768	21861
863.9	21816
864.032	21705
864.164	21644
864.296	21705
864.428	21816
864.559	21816
864.691	21876
864.823	21781
864.954	21747
865.086	21701
865.217	21793
865.349	21549
865.48	21633
865.612	21606
865.743	21759
865.875	21599
866.006	21595
866.137	21576
866.269	21614
866.4	21603
866.531	21492
866.662	21625
866.793	21515
866.924	21583
867.055	21526
867.186	21534
867.317	21675
867.448	21515
867.579	21504
867.71	21511
867.841	21481
867.972	21561
868.103	21625
868.233	21591
868.364	21557
868.495	21625
868.625	21720
868.756	21888
868.886	21580
869.017	21709
869.147	21842
869.278	21972
869.408	21869
869.539	21842
869.669	21800
869.799	21949
869.929	21934
870.06	21930
870.19	21987
870.32	22055
870.45	22211
870.58	22135
870.71	22226
870.84	22257
870.97	22223
871.1	22318
871.23	22352
871.36	22440
871.489	22322
871.619	22390
871.749	22303
871.879	22470
872.008	22516
872.138	22390
872.267	22470
872.397	22253
872.526	22226
872.656	22242
872.785	22223
872.915	22474
873.044	22531
873.173	22504
873.303	22561
873.432	22493
873.561	22653
873.69	22538
873.819	22546
873.948	22470
874.077	22360
874.206	22459
874.335	22527
874.464	22565
874.593	22599
874.722	22584
874.851	22660
874.979	22634
875.108	22691
875.237	22630
875.365	22550
875.494	22664
875.623	22782
875.751	22672
875.88	22607
876.008	22767
876.136	22854
876.265	23052
876.393	23162
876.521	23083
876.65	23083
876.778	23136
876.906	22999
877.034	22930
877.162	23075
877.29	22847
877.418	22968
877.546	23102
877.674	23048
877.802	23003
877.93	22889
878.058	22805
878.185	22968
878.313	22908
878.441	23033
878.568	22740
878.696	23044
878.824	22980
878.951	23140
879.079	23162
879.206	23364
879.333	23174
879.461	23029
879.588	23136
879.715	23239
879.842	23326
879.97	23094
880.097	22980
880.224	22858
880.351	22862
880.478	22713
880.605	22763
880.732	22843
880.859	23102
880.986	22748
881.112	22729
881.239	22672
881.366	22592
881.493	22500
881.619	22428
881.746	22382
881.872	22337
881.999	22299
882.125	22246
882.252	22402
882.378	22333
882.505	22409
882.631	22116
882.757	22135
882.883	22181
883.01	22051
883.136	21991
883.262	21880
883.388	21930
883.514	22036
883.64	22101
883.766	21903
883.892	21869
884.018	21869
884.143	21994
884.269	22101
884.395	21800
884.52	21846
884.646	21736
884.772	21652
884.897	21667
885.023	21778
885.148	21793
885.274	21884
885.399	21755
885.524	21701
885.65	21778
885.775	21728
885.9	21694
886.025	21732
886.15	21743
886.275	21709
886.4	21644
886.525	21682
886.65	21603
886.775	21637
886.9	21762
887.025	21888
887.149	21709
887.274	21530
887.399	21447
887.523	21439
887.648	21420
887.773	21344
887.897	21523
888.021	21454
888.146	21363
888.27	21469
888.395	21583
888.519	21416
888.643	21454
888.767	21477
888.891	21492
889.015	21458
889.139	21329
889.263	21249
889.387	21287
889.511	21458
889.635	21450
889.759	21302
889.883	21233
890.006	21260
890.13	21344
890.254	21176
890.377	21116
890.501	20963
890.624	21013
890.748	21066
890.871	20948
890.995	20800
891.118	20960
891.241	20796
891.364	20807
891.488	20956
891.611	20842
891.734	20819
891.857	20853
891.98	20830
892.103	20853
892.226	20792
892.349	20842
892.471	20625
892.594	20686
892.717	20632
892.839	20765
892.962	20625
893.085	20720
893.207	20708
893.33	20613
893.452	20552
893.575	20716
893.697	20651
893.819	20872
893.941	20876
894.064	20834
894.186	20625
894.308	20541
894.43	20716
894.552	20857
894.674	20815
894.796	20667
894.918	20716
895.04	20625
895.161	20739
895.283	20720
895.405	20689
895.526	20674
895.648	20682
895.769	20705
895.891	20716
896.012	20804
896.134	20705
896.255	20762
896.376	20636
896.498	20670
896.619	20682
896.74	20640
896.861	20785
896.982	20929
897.103	21188
897.224	20906
897.345	21028
897.466	20902
897.587	20906
897.708	21020
897.828	20948
897.949	20967
898.07	20644
898.19	20895
898.311	20918
898.431	20792
898.552	20952
898.672	20979
898.792	20902
898.913	20967
899.033	20834
899.153	20689
899.273	20682
899.393	20651
899.513	20651
899.633	20708
899.753	20682
899.873	20503
899.993	20705
900.113	20514
900.232	20594
900.352	20571
900.472	20541
900.591	20347
900.711	20473
900.83	20298
900.95	20499
901.069	20526
901.189	20370
901.308	20119
901.427	20001
901.546	20088
901.665	20100
901.784	19959
901.904	19970
902.023	19632
902.141	19567
902.26	19594
902.379	19643
902.498	19445
902.617	19422
902.735	19586
902.854	19594
902.973	19331
903.091	19247
903.21	19145
903.328	19129
903.446	19069
903.565	19015
903.683	18958
903.801	18844
903.919	19031
904.038	18920
904.156	18741
904.274	18703
904.392	18741
904.51	18692
904.627	18757
904.745	18749
904.863	18783
904.981	18570
905.098	18334
905.216	18251
905.334	18410
905.451	18361
905.569	18346
905.686	18372
905.803	18418
905.921	18281
906.038	18266
906.155	18174
906.272	18110
906.389	18102
906.506	17950
906.623	17992
906.74	17908
906.857	17836
906.974	17809
907.091	18034
907.208	17931
907.324	17882
907.441	17824
907.557	17661
907.674	17497
907.79	17623
907.907	17558
908.023	17741
908.139	17707
908.256	17585
908.372	17471
908.488	17558
908.604	17322
908.72	17280
908.836	17368
908.952	17246
909.068	17379
909.184	17364
909.3	17296
909.415	17406
909.531	17288
909.647	17094
909.762	17113
909.878	17064
909.993	17086
910.108	17010
910.224	16976
910.339	17014
910.454	16923
910.57	16957
910.685	16767
910.8	17064
910.915	16980
911.03	16881
911.145	16645
911.259	16561
911.374	16698
911.489	16615
911.604	16459
911.718	16394
911.833	16371
911.947	16318
912.062	16280
912.176	16344
912.291	16280
912.405	16329
912.519	16535
912.633	16436
912.748	16470
912.862	16287
912.976	16192
913.09	16086
913.204	16105
913.318	16242
913.431	16318
913.545	16303
913.659	16249
913.772	16230
913.886	16017
914	15945
914.113	16093
914.226	16128
914.34	16013
914.453	15797
914.566	15975
914.68	15869
914.793	15789
914.906	15610
915.019	15698
915.132	15599
915.245	15572
915.358	15648
915.47	15564
915.583	15564
915.696	15500
915.809	15652
915.921	15667
916.034	15519
916.146	15397
916.259	15519
916.371	15557
916.483	15561
916.595	15477
916.708	15488
916.82	15439
916.932	15329
917.044	15325
917.156	15321
917.268	15252
917.38	15226
917.491	15169
917.603	15245
917.715	15359
917.826	15378
917.938	15123
918.049	15032
918.161	15127
918.272	15241
918.384	15279
918.495	15108
918.606	15001
918.717	14830
918.828	14967
918.939	14979
919.05	14887
919.161	14937
919.272	14758
919.383	14891
919.494	14979
919.604	15214
919.715	14952
919.826	14895
919.936	14902
920.047	15066
920.157	14902
920.267	15077
920.378	15020
920.488	14883
920.598	15058
920.708	15298
920.818	15058
920.928	14986
921.038	15264
921.148	15226
921.258	14876
921.368	14769
921.477	14590
921.587	14590
921.697	14495
921.806	14640
921.916	14522
922.025	14305
922.134	14282
922.244	14221
922.353	14305
922.462	14237
922.571	13970
922.68	14005
922.789	14005
922.898	13887
923.007	13879
923.116	13932
923.224	13894
923.333	13871
923.442	13799
923.55	13689
923.659	13765
923.767	13852
923.876	13704
923.984	13845
924.092	13624
924.201	13761
924.309	13651
924.417	13639
924.525	13601
924.633	13480
924.741	14495
924.849	13381
924.956	13468
925.064	13430
925.172	13430
925.279	13304
925.387	13464
925.494	13354
925.602	13362
925.709	13331
925.816	13304
925.924	13274
926.031	13343
926.138	13160
926.245	13285
926.352	13190
926.459	13327
926.566	13217
926.673	13164
926.779	13149
926.886	13046
926.993	12954
927.099	12856
927.206	12844
927.312	12833
927.419	12905
927.525	12886
927.631	12954
927.737	12825
927.843	12654
927.95	12597
928.056	12768
928.162	12730
928.267	12700
928.373	13354
928.479	12791
928.585	12540
928.69	12608
928.796	12715
928.901	12578
929.007	12517
929.112	12555
929.218	12441
929.323	12448
929.428	12448
929.533	12452
929.638	12304
929.743	12315
929.848	12410
929.953	12319
930.058	12224
930.163	12003
930.267	12068
930.372	12178
930.477	11961
930.581	12254
930.685	12030
930.79	12053
930.894	11935
930.998	11954
931.103	12045
931.207	11775
931.311	11703
931.415	11501
931.519	11273
931.623	11368
