Data from test_V78500241_1356.txt Node
Date: Fri Mar 25 15:51:11 CST 2022
User: usil
Spectrometer: V785-0024
Trigger mode: 0
Integration Time (sec): 4.000000E-1
Scans to average: 1
Nonlinearity correction enabled: false
Boxcar width: 0
Storing dark spectrum: false
XAxis mode: Wavelengths
Number of Pixels in Spectrum: 1024
>>>>>Begin Spectral Data<<<<<
801.071	28059
801.214	28101
801.356	27797
801.499	27717
801.641	27682
801.783	27759
801.926	27728
802.068	27720
802.211	27599
802.353	27682
802.496	27264
802.638	27443
802.78	27249
802.923	27367
803.065	27218
803.208	27142
803.35	27264
803.492	27435
803.635	27481
803.777	27378
803.919	27599
804.061	27884
804.204	27568
804.346	27504
804.488	27412
804.63	27538
804.773	27515
804.915	27477
805.057	27644
805.199	27469
805.341	27606
805.483	27762
805.626	27690
805.768	27526
805.91	27660
806.052	27724
806.194	27618
806.336	27865
806.478	27728
806.62	27660
806.762	27892
806.904	27892
807.046	28086
807.188	28067
807.33	28120
807.472	28207
807.614	27937
807.756	28128
807.898	28002
808.04	27903
808.182	27968
808.324	27941
808.465	28036
808.607	28207
808.749	28360
808.891	28409
809.033	28398
809.174	28310
809.316	28265
809.458	28295
809.6	28306
809.741	28462
809.883	28447
810.025	28584
810.166	28592
810.308	28675
810.45	28546
810.591	28421
810.733	28371
810.875	28299
811.016	28295
811.158	28291
811.299	28421
811.441	28470
811.582	28542
811.724	28280
811.865	28249
812.007	28367
812.148	28303
812.29	28318
812.431	28607
812.573	28596
812.714	28656
812.855	28850
812.997	29018
813.138	29010
813.279	28892
813.421	28771
813.562	28755
813.703	28729
813.845	28535
813.986	28341
814.127	28158
814.268	27937
814.41	28101
814.551	28021
814.692	27975
814.833	27991
814.974	28006
815.115	28017
815.256	27831
815.397	27941
815.539	27835
815.68	27876
815.821	27641
815.962	27850
816.103	27755
816.244	27538
816.385	27701
816.526	27679
816.666	27519
816.807	27199
816.948	27485
817.089	27427
817.23	27332
817.371	27355
817.512	27317
817.653	27195
817.793	27180
817.934	27252
818.075	27275
818.216	27363
818.356	27321
818.497	27332
818.638	27028
818.778	27108
818.919	27077
819.06	27131
819.2	27226
819.341	27260
819.481	27298
819.622	27393
819.762	27526
819.903	27637
820.043	27454
820.184	27477
820.324	27458
820.465	27568
820.605	27473
820.746	27321
820.886	27283
821.026	27519
821.167	27367
821.307	27462
821.447	27363
821.588	27203
821.728	27051
821.868	26902
822.008	26758
822.149	26792
822.289	26895
822.429	26457
822.569	26484
822.709	26438
822.849	26389
822.99	26362
823.13	26290
823.27	26225
823.41	26031
823.55	25970
823.69	26107
823.83	26054
823.97	26027
824.11	25875
824.25	25811
824.389	26043
824.529	25978
824.669	25951
824.809	26001
824.949	26043
825.089	26122
825.228	25993
825.368	25772
825.508	25738
825.648	25841
825.787	25845
825.927	25959
826.067	25689
826.206	25772
826.346	25944
826.485	25753
826.625	25811
826.765	25959
826.904	25719
827.044	25502
827.183	25723
827.323	25563
827.462	25681
827.601	25533
827.741	25464
827.88	25362
828.02	25544
828.159	25457
828.298	25381
828.437	25624
828.577	25514
828.716	25502
828.855	25434
828.994	25183
829.134	25381
829.273	25304
829.412	25164
829.551	25110
829.69	25145
829.829	25247
829.968	25270
830.107	25217
830.246	25129
830.385	25209
830.524	25168
830.663	25107
830.802	24886
830.941	24852
831.08	24806
831.219	24878
831.357	24951
831.496	25031
831.635	24848
831.774	24738
831.913	24585
832.051	24620
832.19	24551
832.329	24456
832.467	24479
832.606	24460
832.744	24422
832.883	24555
833.022	24471
833.16	24464
833.299	24551
833.437	24441
833.576	24700
833.714	24563
833.852	24483
833.991	24582
834.129	24612
834.267	24620
834.406	24475
834.544	24677
834.682	24604
834.821	24395
834.959	24741
835.097	24429
835.235	24597
835.373	24612
835.511	24384
835.65	24342
835.788	24407
835.926	24239
836.064	24213
836.202	24292
836.34	24243
836.478	24521
836.615	24319
836.753	24372
836.891	24490
837.029	24369
837.167	24315
837.305	24262
837.443	24277
837.58	24273
837.718	24292
837.856	24315
837.993	24045
838.131	24159
838.269	24102
838.406	24159
838.544	24076
838.681	23771
838.819	23889
838.956	23646
839.094	23703
839.231	23802
839.369	23863
839.506	23965
839.643	24045
839.781	23771
839.918	23726
840.055	23741
840.193	23642
840.33	23611
840.467	23726
840.604	23676
840.742	23958
840.879	23448
841.016	23478
841.153	23455
841.29	23554
841.427	23566
841.564	23642
841.701	23684
841.838	23543
841.975	23463
842.112	23589
842.249	23414
842.385	23341
842.522	23467
842.659	23436
842.796	23318
842.933	23296
843.069	23159
843.206	23425
843.343	23395
843.479	23345
843.616	23250
843.752	23090
843.889	23151
844.025	23246
844.162	22976
844.298	23231
844.435	23140
844.571	23025
844.708	23288
844.844	23265
844.98	23204
845.117	23307
845.253	22991
845.389	22892
845.525	23052
845.661	22923
845.798	22801
845.934	22987
846.07	22786
846.206	22831
846.342	22934
846.478	22889
846.614	22561
846.75	22557
846.886	22569
847.022	22755
847.158	22645
847.294	22542
847.429	22546
847.565	22485
847.701	22721
847.837	22348
847.972	22246
848.108	22390
848.244	22344
848.379	22192
848.515	22215
848.65	22105
848.786	22177
848.921	22246
849.057	22204
849.192	22169
849.328	22219
849.463	22124
849.598	22226
849.734	22013
849.869	22067
850.004	21926
850.14	21960
850.275	21846
850.41	21960
850.545	21869
850.68	21926
850.815	21972
850.95	21884
851.085	21983
851.22	21941
851.355	21994
851.49	21975
851.625	21831
851.76	21854
851.895	21918
852.03	21945
852.165	21873
852.299	21930
852.434	22067
852.569	22055
852.703	21998
852.838	21937
852.973	22090
853.107	21979
853.242	21922
853.376	21671
853.511	21690
853.645	21739
853.78	21838
853.914	21774
854.048	21686
854.183	21713
854.317	21846
854.451	22021
854.585	21797
854.72	21892
854.854	21846
854.988	21816
855.122	21808
855.256	21717
855.39	21633
855.524	21838
855.658	21770
855.792	21808
855.926	21888
856.06	21854
856.194	21857
856.327	21850
856.461	21774
856.595	21720
856.729	21895
856.862	21831
856.996	21766
857.13	21934
857.263	21979
857.397	21755
857.53	21869
857.664	21819
857.797	21926
857.931	22025
858.064	21732
858.197	21899
858.331	21736
858.464	21854
858.597	21587
858.731	21778
858.864	21656
858.997	21766
859.13	21850
859.263	21854
859.396	21892
859.529	21850
859.662	21816
859.795	21690
859.928	21778
860.061	22021
860.194	22040
860.327	21694
860.46	21846
860.592	21945
860.725	21873
860.858	21953
860.99	21770
861.123	21675
861.256	21641
861.388	21812
861.521	22428
861.653	21800
861.786	21603
861.918	21553
862.05	21641
862.183	21755
862.315	21747
862.447	21739
862.58	21709
862.712	21507
862.844	21466
862.976	21485
863.108	21515
863.24	22017
863.372	21393
863.504	21435
863.636	21420
863.768	21580
863.9	21561
864.032	21298
864.164	21412
864.296	21519
864.428	21580
864.559	21599
864.691	21641
864.823	21485
864.954	21500
865.086	21424
865.217	21428
865.349	21382
865.48	21519
865.612	21294
865.743	21526
865.875	21374
866.006	21408
866.137	21302
866.269	21340
866.4	21473
866.531	21291
866.662	21252
866.793	21214
866.924	21412
867.055	21283
867.186	21359
867.317	21310
867.448	21359
867.579	21370
867.71	21268
867.841	21100
867.972	21268
868.103	21332
868.233	21256
868.364	21218
868.495	21298
868.625	21511
868.756	21686
868.886	21424
869.017	21587
869.147	21656
869.278	21610
869.408	21542
869.539	21477
869.669	21583
869.799	21572
869.929	21736
870.06	21724
870.19	21854
870.32	21724
870.45	21869
870.58	22017
870.71	22097
870.84	22124
870.97	21960
871.1	21892
871.23	22101
871.36	22154
871.489	22082
871.619	22074
871.749	22063
871.879	22154
872.008	22173
872.138	22253
872.267	22177
872.397	22070
872.526	22044
872.656	22006
872.785	21956
872.915	22128
873.044	22135
873.173	22276
873.303	22223
873.432	22150
873.561	22230
873.69	22238
873.819	22192
873.948	22192
874.077	22154
874.206	22207
874.335	22097
874.464	22249
874.593	22466
874.722	22318
874.851	22447
874.979	22344
875.108	22356
875.237	22325
875.365	22280
875.494	22402
875.623	22455
875.751	22314
875.88	22519
876.008	22459
876.136	22557
876.265	22805
876.393	22949
876.521	22900
876.65	22946
876.778	22812
876.906	22805
877.034	22790
877.162	22778
877.29	22637
877.418	22771
877.546	22694
877.674	22748
877.802	22790
877.93	22687
878.058	22744
878.185	22752
878.313	22630
878.441	22759
878.568	22489
878.696	22599
878.824	22786
878.951	22835
879.079	23128
879.206	23044
879.333	22968
879.461	22771
879.588	22942
879.715	22797
879.842	23029
879.97	22713
880.097	22672
880.224	22527
880.351	22523
880.478	22573
880.605	22451
880.732	22546
880.859	22729
880.986	22538
881.112	22481
881.239	22352
881.366	22344
881.493	22234
881.619	21987
881.746	22192
881.872	22154
881.999	22086
882.125	22078
882.252	22238
882.378	22162
882.505	22272
882.631	21937
882.757	21937
882.883	21937
883.01	21804
883.136	21713
883.262	21755
883.388	21736
883.514	21800
883.64	21937
883.766	21648
883.892	21637
884.018	21717
884.143	21720
884.269	21739
884.395	21492
884.52	21428
884.646	21447
884.772	21469
884.897	21408
885.023	21340
885.148	21629
885.274	21519
885.399	21561
885.524	21485
885.65	21435
885.775	21469
885.9	21389
886.025	21576
886.15	21625
886.275	21462
886.4	21310
886.525	21431
886.65	21428
886.775	21344
886.9	21504
887.025	21614
887.149	21348
887.274	21222
887.399	21302
887.523	21180
887.648	21123
887.773	21085
887.897	21207
888.021	21176
888.146	21184
888.27	21226
888.395	21340
888.519	21203
888.643	21222
888.767	21214
888.891	21165
889.015	21005
889.139	21108
889.263	21062
889.387	21062
889.511	21237
889.635	21070
889.759	21005
889.883	21028
890.006	20994
890.13	20994
890.254	20830
890.377	20979
890.501	20807
890.624	20708
890.748	20750
890.871	20663
890.995	20518
891.118	20503
891.241	20632
891.364	20629
891.488	20667
891.611	20606
891.734	20579
891.857	20606
891.98	20663
892.103	20594
892.226	20606
892.349	20434
892.471	20317
892.594	20473
892.717	20526
892.839	20533
892.962	20503
893.085	20625
893.207	20396
893.33	20381
893.452	20385
893.575	20366
893.697	20419
893.819	20655
893.941	20804
894.064	20655
894.186	20343
894.308	20473
894.43	20446
894.552	20552
894.674	20579
894.796	20461
894.918	20366
895.04	20282
895.161	20530
895.283	20488
895.405	20511
895.526	20480
895.648	20404
895.769	20454
895.891	20503
896.012	20632
896.134	20454
896.255	20552
896.376	20427
896.498	20385
896.619	20568
896.74	20454
896.861	20571
896.982	20777
897.103	20925
897.224	20777
897.345	20735
897.466	20621
897.587	20648
897.708	20796
897.828	20746
897.949	20644
898.07	20507
898.19	20579
898.311	20754
898.431	20705
898.552	20716
898.672	20762
898.792	20686
898.913	20705
899.033	20640
899.153	20362
899.273	20332
899.393	20526
899.513	20415
899.633	20400
899.753	20381
899.873	20313
899.993	20408
900.113	20434
900.232	20469
900.352	20233
900.472	20301
900.591	20183
900.711	20210
900.83	20210
900.95	20210
901.069	20248
901.189	20168
901.308	19913
901.427	19811
901.546	19723
901.665	19776
901.784	19742
901.904	19647
902.023	19483
902.141	19514
902.26	19225
902.379	19327
902.498	19266
902.617	19247
902.735	19426
902.854	19247
902.973	19236
903.091	18993
903.21	18882
903.328	19050
903.446	18901
903.565	18707
903.683	18753
903.801	18589
903.919	18741
904.038	18669
904.156	18582
904.274	18661
904.392	18566
904.51	18563
904.627	18426
904.745	18559
904.863	18650
904.981	18300
905.098	18220
905.216	18311
905.334	18247
905.451	18289
905.569	18144
905.686	18167
905.803	18247
905.921	17893
906.038	18060
906.155	17950
906.272	17809
906.389	17954
906.506	17767
906.623	17752
906.74	17745
906.857	17589
906.974	17623
907.091	17817
907.208	17790
907.324	17722
907.441	17608
907.557	17558
907.674	17417
907.79	17330
907.907	17497
908.023	17520
908.139	17379
908.256	17410
908.372	17299
908.488	17273
908.604	17258
908.72	17132
908.836	17296
908.952	17124
909.068	17189
909.184	17341
909.3	17155
909.415	17132
909.531	17102
909.647	16828
909.762	16824
909.878	16866
909.993	16885
910.108	16927
910.224	16797
910.339	16797
910.454	16618
910.57	16653
910.685	16527
910.8	16805
910.915	16820
911.03	16645
911.145	16432
911.259	16451
911.374	16500
911.489	16329
911.604	16287
911.718	16204
911.833	16284
911.947	16059
912.062	16032
912.176	16150
912.291	16265
912.405	16093
912.519	16398
912.633	16386
912.748	16234
912.862	16128
912.976	16006
913.09	15895
913.204	16002
913.318	16021
913.431	16169
913.545	15994
913.659	16021
913.772	15972
913.886	15797
914	15861
914.113	15838
914.226	15926
914.34	15816
914.453	15694
914.566	15789
914.68	15705
914.793	15671
914.906	15439
915.019	15504
915.132	15340
915.245	15420
915.358	15367
915.47	15412
915.583	15298
915.696	15344
915.809	15534
915.921	15496
916.034	15306
916.146	15313
916.259	15252
916.371	15405
916.483	15408
916.595	15161
916.708	15192
916.82	15252
916.932	15264
917.044	15150
917.156	15131
917.268	15028
917.38	15081
917.491	14963
917.603	15051
917.715	15116
917.826	15142
917.938	14918
918.049	14773
918.161	14925
918.272	15131
918.384	15131
918.495	14979
918.606	14868
918.717	14838
918.828	14902
918.939	14785
919.05	14674
919.161	14853
919.272	14530
919.383	14606
919.494	14876
919.604	14906
919.715	14735
919.826	14674
919.936	14731
920.047	14792
920.157	14765
920.267	14956
920.378	14811
920.488	14697
920.598	14899
920.708	14956
920.818	14952
920.928	14891
921.038	15051
921.148	14990
921.258	14674
921.368	14670
921.477	14530
921.587	14541
921.697	14351
921.806	14556
921.916	14328
922.025	14218
922.134	14191
922.244	14027
922.353	14142
922.462	14012
922.571	13913
922.68	13833
922.789	13784
922.898	13738
923.007	13704
923.116	13826
923.224	13769
923.333	13753
923.442	13662
923.55	13567
923.659	13670
923.767	13677
923.876	13499
923.984	13613
924.092	13460
924.201	13563
924.309	13445
924.417	13571
924.525	13495
924.633	13411
924.741	14381
924.849	13327
924.956	13316
925.064	13255
925.172	13164
925.279	13266
925.387	13225
925.494	13247
925.602	13304
925.709	13164
925.816	13088
925.924	13107
926.031	13187
926.138	13187
926.245	13088
926.352	13046
926.459	13126
926.566	13179
926.673	13046
926.779	12993
926.886	12993
926.993	12844
927.099	12806
927.206	12745
927.312	12681
927.419	12745
927.525	12806
927.631	12749
927.737	12662
927.843	12566
927.95	12475
928.056	12563
928.162	12627
928.267	12601
928.373	13194
928.479	12578
928.585	12399
928.69	12475
928.796	12498
928.901	12407
929.007	12346
929.112	12456
929.218	12441
929.323	12388
929.428	12315
929.533	12456
929.638	12228
929.743	12136
929.848	12346
929.953	12239
930.058	12121
930.163	12034
930.267	11965
930.372	12098
930.477	11866
930.581	12190
930.685	11973
930.79	11885
930.894	11843
930.998	11843
931.103	11950
931.207	11558
931.311	11570
931.415	11436
931.519	11261
931.623	11227
