Data from test_V78500241_87.txt Node
Date: Fri Mar 25 15:42:24 CST 2022
User: usil
Spectrometer: V785-0024
Trigger mode: 0
Integration Time (sec): 4.000000E-1
Scans to average: 1
Nonlinearity correction enabled: false
Boxcar width: 0
Storing dark spectrum: false
XAxis mode: Wavelengths
Number of Pixels in Spectrum: 1024
>>>>>Begin Spectral Data<<<<<
801.071	29969
801.214	29961
801.356	29847
801.499	29573
801.641	29486
801.783	29398
801.926	29448
802.068	29474
802.211	29277
802.353	29364
802.496	29223
802.638	29060
802.78	29037
802.923	29117
803.065	29056
803.208	29022
803.35	29261
803.492	29178
803.635	29372
803.777	29197
803.919	29349
804.061	29505
804.204	29315
804.346	29189
804.488	29132
804.63	29086
804.773	29147
804.915	29235
805.057	29364
805.199	29159
805.341	29124
805.483	29258
805.626	29299
805.768	29193
805.91	29425
806.052	29444
806.194	29227
806.336	29566
806.478	29345
806.62	29429
806.762	29539
806.904	29589
807.046	29893
807.188	29729
807.33	29718
807.472	29836
807.614	29596
807.756	29707
807.898	29539
808.04	29440
808.182	29642
808.324	29448
808.465	29634
808.607	29649
808.749	29790
808.891	29961
809.033	29859
809.174	29889
809.316	29973
809.458	30015
809.6	29927
809.741	29904
809.883	29927
810.025	30045
810.166	30171
810.308	30155
810.45	30136
810.591	29931
810.733	29916
810.875	29779
811.016	29691
811.158	29790
811.299	30045
811.441	30102
811.582	30011
811.724	29893
811.865	29855
812.007	29710
812.148	29748
812.29	29794
812.431	29931
812.573	30228
812.714	30182
812.855	30414
812.997	30426
813.138	30608
813.279	30464
813.421	30323
813.562	30213
813.703	30026
813.845	29882
813.986	29771
814.127	29589
814.268	29467
814.41	29448
814.551	29554
814.692	29661
814.833	29528
814.974	29433
815.115	29334
815.256	29353
815.397	29391
815.539	29128
815.68	29174
815.821	29048
815.962	29136
816.103	29124
816.244	28961
816.385	28778
816.526	28888
816.666	28656
816.807	28660
816.948	28588
817.089	28702
817.23	28516
817.371	28371
817.512	28622
817.653	28519
817.793	28508
817.934	28637
818.075	28596
818.216	28607
818.356	28360
818.497	28405
818.638	28375
818.778	28390
818.919	28325
819.06	28394
819.2	28207
819.341	28538
819.481	28512
819.622	28565
819.762	28850
819.903	28546
820.043	28721
820.184	28706
820.324	28557
820.465	28675
820.605	28497
820.746	28478
820.886	28363
821.026	28428
821.167	28455
821.307	28508
821.447	28497
821.588	28333
821.728	28139
821.868	28139
822.008	27930
822.149	28021
822.289	27766
822.429	27561
822.569	27629
822.709	27447
822.849	27313
822.99	27424
823.13	27393
823.27	27325
823.41	27252
823.55	27131
823.69	27150
823.83	27157
823.97	27173
824.11	26918
824.25	26800
824.389	26883
824.529	26952
824.669	26933
824.809	27020
824.949	26990
825.089	27001
825.228	26876
825.368	26762
825.508	26918
825.648	26845
825.787	26811
825.927	26910
826.067	26629
826.206	26727
826.346	26883
826.485	26739
826.625	26735
826.765	26663
826.904	26735
827.044	26499
827.183	26355
827.323	26377
827.462	26431
827.601	26362
827.741	26389
827.88	26526
828.02	26328
828.159	26244
828.298	26419
828.437	26499
828.577	26240
828.716	26396
828.855	26214
828.994	26142
829.134	26183
829.273	26092
829.412	25970
829.551	25947
829.69	25940
829.829	26043
829.968	26145
830.107	26130
830.246	26088
830.385	25913
830.524	25811
830.663	25807
830.802	25681
830.941	25632
831.08	25628
831.219	25658
831.357	25666
831.496	25818
831.635	25613
831.774	25453
831.913	25449
832.051	25247
832.19	25316
832.329	25168
832.467	25289
832.606	25206
832.744	25141
832.883	25228
833.022	25221
833.16	25228
833.299	25137
833.437	25145
833.576	25164
833.714	25171
833.852	25156
833.991	25293
834.129	25304
834.267	25202
834.406	25202
834.544	25148
834.682	25206
834.821	25194
834.959	25266
835.097	25107
835.235	25324
835.373	25137
835.511	25084
835.65	24882
835.788	25023
835.926	24757
836.064	24711
836.202	24802
836.34	24973
836.478	25171
836.615	24909
836.753	24977
836.891	25091
837.029	25065
837.167	24833
837.305	24924
837.443	24741
837.58	24867
837.718	24871
837.856	24829
837.993	24715
838.131	24844
838.269	24555
838.406	24700
838.544	24517
838.681	24410
838.819	24426
838.956	24330
839.094	24144
839.231	24159
839.369	24403
839.506	24544
839.643	24456
839.781	24083
839.918	24102
840.055	24197
840.193	24239
840.33	24060
840.467	24117
840.604	24136
840.742	24513
840.879	23996
841.016	24003
841.153	23965
841.29	24186
841.427	24053
841.564	24060
841.701	24022
841.838	23950
841.975	23832
842.112	23912
842.249	23931
842.385	23821
842.522	23961
842.659	23885
842.796	23642
842.933	23726
843.069	23596
843.206	23699
843.343	23824
843.479	23710
843.616	23726
843.752	23551
843.889	23497
844.025	23665
844.162	23490
844.298	23505
844.435	23490
844.571	23379
844.708	23501
844.844	23539
844.98	23585
845.117	23387
845.253	23410
845.389	23307
845.525	23364
845.661	23364
845.798	23261
845.934	23220
846.07	23109
846.206	23254
846.342	23349
846.478	23162
846.614	23003
846.75	22908
846.886	22828
847.022	22980
847.158	22976
847.294	22877
847.429	23003
847.565	22972
847.701	22976
847.837	22736
847.972	22546
848.108	22615
848.244	22675
848.379	22493
848.515	22455
848.65	22500
848.786	22421
848.921	22466
849.057	22478
849.192	22504
849.328	22500
849.463	22424
849.598	22276
849.734	22371
849.869	22181
850.004	22177
850.14	22356
850.275	22173
850.41	21994
850.545	22010
850.68	21987
850.815	22158
850.95	22169
851.085	22287
851.22	22268
851.355	22219
851.49	22044
851.625	22036
851.76	22025
851.895	22070
852.03	22101
852.165	22109
852.299	22139
852.434	22021
852.569	22158
852.703	22120
852.838	22139
852.973	22131
853.107	22272
853.242	22070
853.376	21781
853.511	21808
853.645	21797
853.78	22105
853.914	21945
854.048	21895
854.183	21983
854.317	22032
854.451	22139
854.585	21991
854.72	21972
854.854	22032
854.988	21873
855.122	21941
855.256	21709
855.39	21876
855.524	22070
855.658	21823
855.792	22010
855.926	21972
856.06	21991
856.194	22055
856.327	21998
856.461	21835
856.595	21823
856.729	21854
856.862	22067
856.996	21915
857.13	21880
857.263	22010
857.397	21991
857.53	21838
857.664	21949
857.797	22006
857.931	22017
858.064	21865
858.197	22051
858.331	21915
858.464	21808
858.597	21690
858.731	21907
858.864	21789
858.997	21842
859.13	21743
859.263	21865
859.396	21964
859.529	21846
859.662	21625
859.795	21705
859.928	21865
860.061	21987
860.194	22040
860.327	21823
860.46	21911
860.592	21835
860.725	21895
860.858	21934
860.99	21823
861.123	21701
861.256	21819
861.388	21797
861.521	22428
861.653	21823
861.786	21641
861.918	21781
862.05	21850
862.183	21972
862.315	21789
862.447	22025
862.58	21892
862.712	21717
862.844	21561
862.976	21656
863.108	21625
863.24	21907
863.372	21447
863.504	21648
863.636	21530
863.768	21656
863.9	21492
864.032	21431
864.164	21557
864.296	21576
864.428	21667
864.559	21534
864.691	21641
864.823	21603
864.954	21545
865.086	21614
865.217	21443
865.349	21389
865.48	21469
865.612	21469
865.743	21466
865.875	21492
866.006	21355
866.137	21488
866.269	21431
866.4	21393
866.531	21435
866.662	21252
866.793	21367
866.924	21435
867.055	21401
867.186	21332
867.317	21237
867.448	21272
867.579	21230
867.71	21272
867.841	21283
867.972	21363
868.103	21336
868.233	21401
868.364	21386
868.495	21408
868.625	21553
868.756	21675
868.886	21504
869.017	21534
869.147	21572
869.278	21622
869.408	21561
869.539	21507
869.669	21679
869.799	21606
869.929	21789
870.06	21614
870.19	21686
870.32	21766
870.45	21964
870.58	21922
870.71	22029
870.84	21979
870.97	21968
871.1	21991
871.23	22139
871.36	22200
871.489	22078
871.619	22154
871.749	22067
871.879	22162
872.008	22204
872.138	22109
872.267	22226
872.397	22036
872.526	21857
872.656	21991
872.785	21994
872.915	22181
873.044	22257
873.173	22120
873.303	22166
873.432	22219
873.561	22215
873.69	22268
873.819	22261
873.948	22162
874.077	22253
874.206	22188
874.335	22230
874.464	22261
874.593	22367
874.722	22352
874.851	22527
874.979	22363
875.108	22447
875.237	22363
875.365	22299
875.494	22367
875.623	22569
875.751	22489
875.88	22455
876.008	22447
876.136	22561
876.265	22866
876.393	22889
876.521	22866
876.65	22892
876.778	22736
876.906	22805
877.034	22710
877.162	22774
877.29	22755
877.418	22702
877.546	22896
877.674	22755
877.802	22801
877.93	22713
878.058	22668
878.185	22740
878.313	22626
878.441	22687
878.568	22481
878.696	22691
878.824	22721
878.951	22759
879.079	22915
879.206	22976
879.333	23048
879.461	22755
879.588	22904
879.715	22946
879.842	23086
879.97	22782
880.097	22508
880.224	22535
880.351	22615
880.478	22588
880.605	22466
880.732	22538
880.859	22862
880.986	22546
881.112	22664
881.239	22474
881.366	22329
881.493	22242
881.619	22303
881.746	22333
881.872	22040
881.999	22135
882.125	22090
882.252	22246
882.378	22078
882.505	22261
882.631	22070
882.757	21808
882.883	22006
883.01	21873
883.136	21808
883.262	21770
883.388	21720
883.514	21941
883.64	21964
883.766	21759
883.892	21713
884.018	21797
884.143	21789
884.269	21865
884.395	21488
884.52	21595
884.646	21481
884.772	21534
884.897	21431
885.023	21515
885.148	21633
885.274	21606
885.399	21694
885.524	21439
885.65	21511
885.775	21416
885.9	21523
886.025	21720
886.15	21732
886.275	21389
886.4	21401
886.525	21443
886.65	21412
886.775	21363
886.9	21599
887.025	21720
887.149	21336
887.274	21332
887.399	21230
887.523	21123
887.648	21218
887.773	21081
887.897	21249
888.021	21233
888.146	21135
888.27	21313
888.395	21367
888.519	21230
888.643	21268
888.767	21214
888.891	21306
889.015	20986
889.139	21096
889.263	21039
889.387	21001
889.511	21279
889.635	21085
889.759	21058
889.883	20963
890.006	21032
890.13	21051
890.254	20914
890.377	20819
890.501	20670
890.624	20746
890.748	20697
890.871	20655
890.995	20568
891.118	20514
891.241	20427
891.364	20640
891.488	20781
891.611	20560
891.734	20598
891.857	20648
891.98	20492
892.103	20579
892.226	20480
892.349	20560
892.471	20370
892.594	20484
892.717	20495
892.839	20454
892.962	20514
893.085	20351
893.207	20499
893.33	20313
893.452	20305
893.575	20575
893.697	20476
893.819	20636
893.941	20686
894.064	20594
894.186	20499
894.308	20431
894.43	20545
894.552	20613
894.674	20606
894.796	20385
894.918	20442
895.04	20362
895.161	20454
895.283	20465
895.405	20484
895.526	20404
895.648	20347
895.769	20514
895.891	20427
896.012	20530
896.134	20495
896.255	20514
896.376	20412
896.498	20541
896.619	20571
896.74	20556
896.861	20613
896.982	20929
897.103	20914
897.224	20796
897.345	20762
897.466	20800
897.587	20724
897.708	20883
897.828	20648
897.949	20575
898.07	20609
898.19	20438
898.311	20716
898.431	20648
898.552	20632
898.672	20739
898.792	20781
898.913	20686
899.033	20533
899.153	20461
899.273	20271
899.393	20305
899.513	20389
899.633	20309
899.753	20332
899.873	20237
899.993	20366
900.113	20240
900.232	20336
900.352	20218
900.472	20225
900.591	20092
900.711	20134
900.83	20001
900.95	20145
901.069	20214
901.189	20138
901.308	19811
901.427	19601
901.546	19700
901.665	19696
901.784	19727
901.904	19575
902.023	19384
902.141	19266
902.26	19179
902.379	19190
902.498	19141
902.617	19019
902.735	19179
902.854	19107
902.973	19202
903.091	18867
903.21	18913
903.328	18875
903.446	18791
903.565	18707
903.683	18601
903.801	18612
903.919	18623
904.038	18578
904.156	18414
904.274	18547
904.392	18407
904.51	18384
904.627	18433
904.745	18471
904.863	18372
904.981	18251
905.098	18083
905.216	18053
905.334	18072
905.451	18155
905.569	18091
905.686	18098
905.803	18095
905.921	17767
906.038	17942
906.155	17961
906.272	17646
906.389	17828
906.506	17707
906.623	17634
906.74	17558
906.857	17566
906.974	17490
907.091	17741
907.208	17779
907.324	17581
907.441	17383
907.557	17387
907.674	17337
907.79	17143
907.907	17220
908.023	17379
908.139	17261
908.256	17162
908.372	17151
908.488	17025
908.604	17048
908.72	16957
908.836	16976
908.952	16972
909.068	16961
909.184	16961
909.3	16995
909.415	16972
909.531	16972
909.647	16744
909.762	16493
909.878	16653
909.993	16645
910.108	16626
910.224	16554
910.339	16660
910.454	16527
910.57	16348
910.685	16318
910.8	16649
910.915	16497
911.03	16382
911.145	16131
911.259	16173
911.374	16181
911.489	16169
911.604	16097
911.718	15960
911.833	15983
911.947	15781
912.062	15915
912.176	15941
912.291	15964
912.405	16025
912.519	16185
912.633	16223
912.748	16139
912.862	15911
912.976	15774
913.09	15698
913.204	15622
913.318	15713
913.431	15789
913.545	15816
913.659	15869
913.772	15755
913.886	15553
914	15614
914.113	15618
914.226	15675
914.34	15641
914.453	15310
914.566	15447
914.68	15477
914.793	15291
914.906	15214
915.019	15275
915.132	15104
915.245	15195
915.358	15199
915.47	15192
915.583	15157
915.696	15180
915.809	15275
915.921	15317
916.034	15169
916.146	15055
916.259	14982
916.371	15116
916.483	15089
916.595	14891
916.708	15005
916.82	15028
916.932	14971
917.044	14948
917.156	14880
917.268	14727
917.38	14792
917.491	14796
917.603	14853
917.715	14906
917.826	14876
917.938	14727
918.049	14629
918.161	14743
918.272	14842
918.384	14792
918.495	14705
918.606	14511
918.717	14564
918.828	14473
918.939	14594
919.05	14480
919.161	14583
919.272	14290
919.383	14438
919.494	14537
919.604	14788
919.715	14526
919.826	14461
919.936	14484
920.047	14640
920.157	14484
920.267	14697
920.378	14355
920.488	14393
920.598	14705
920.708	14750
920.818	14606
920.928	14461
921.038	14773
921.148	14686
921.258	14427
921.368	14320
921.477	14240
921.587	14183
921.697	13955
921.806	14298
921.916	13974
922.025	13917
922.134	13944
922.244	13765
922.353	13909
922.462	13734
922.571	13632
922.68	13544
922.789	13468
922.898	13499
923.007	13430
923.116	13525
923.224	13407
923.333	13396
923.442	13255
923.55	13362
923.659	13365
923.767	13384
923.876	13301
923.984	13312
924.092	13164
924.201	13209
924.309	13263
924.417	13206
924.525	13164
924.633	13202
924.741	13890
924.849	12947
924.956	13137
925.064	12954
925.172	12943
925.279	12844
925.387	12928
925.494	12973
925.602	13095
925.709	12909
925.816	12852
925.924	12897
926.031	12920
926.138	12840
926.245	12890
926.352	12703
926.459	12859
926.566	12909
926.673	12776
926.779	12665
926.886	12608
926.993	12555
927.099	12570
927.206	12475
927.312	12445
927.419	12593
927.525	12414
927.631	12414
927.737	12323
927.843	12361
927.95	12296
928.056	12254
928.162	12285
928.267	12380
928.373	12916
928.479	12403
928.585	12076
928.69	12292
928.796	12342
928.901	12095
929.007	12079
929.112	12106
929.218	12060
929.323	11988
929.428	12007
929.533	12190
929.638	11904
929.743	11980
929.848	12087
929.953	11904
930.058	11878
930.163	11726
930.267	11688
930.372	11790
930.477	11627
930.581	11885
930.685	11821
930.79	11646
930.894	11543
930.998	11490
931.103	11623
931.207	11307
931.311	11273
931.415	11143
931.519	10877
931.623	10885
