Data from test_V78500241_776.txt Node
Date: Fri Mar 25 15:47:10 CST 2022
User: usil
Spectrometer: V785-0024
Trigger mode: 0
Integration Time (sec): 4.000000E-1
Scans to average: 1
Nonlinearity correction enabled: false
Boxcar width: 0
Storing dark spectrum: false
XAxis mode: Wavelengths
Number of Pixels in Spectrum: 1024
>>>>>Begin Spectral Data<<<<<
801.071	28188
801.214	28128
801.356	27816
801.499	27781
801.641	27690
801.783	27698
801.926	27743
802.068	27694
802.211	27408
802.353	27538
802.496	27416
802.638	27363
802.78	27298
802.923	27344
803.065	27268
803.208	27252
803.35	27416
803.492	27447
803.635	27397
803.777	27504
803.919	27561
804.061	27945
804.204	27618
804.346	27469
804.488	27439
804.63	27412
804.773	27553
804.915	27587
805.057	27629
805.199	27561
805.341	27526
805.483	27698
805.626	27625
805.768	27648
805.91	27606
806.052	27717
806.194	27618
806.336	27964
806.478	27644
806.62	27705
806.762	27713
806.904	28013
807.046	28131
807.188	28120
807.33	28120
807.472	28059
807.614	28139
807.756	28097
807.898	27907
808.04	27895
808.182	27876
808.324	27888
808.465	27941
808.607	28154
808.749	28390
808.891	28459
809.033	28569
809.174	28360
809.316	28314
809.458	28356
809.6	28405
809.741	28348
809.883	28474
810.025	28603
810.166	28607
810.308	28611
810.45	28618
810.591	28538
810.733	28394
810.875	28268
811.016	28253
811.158	28303
811.299	28398
811.441	28599
811.582	28508
811.724	28405
811.865	28348
812.007	28363
812.148	28329
812.29	28341
812.431	28493
812.573	28664
812.714	28809
812.855	28809
812.997	28763
813.138	29003
813.279	28839
813.421	28767
813.562	28911
813.703	28748
813.845	28440
813.986	28280
814.127	28192
814.268	28002
814.41	28021
814.551	27960
814.692	28051
814.833	27903
814.974	28048
815.115	27960
815.256	27842
815.397	28017
815.539	27888
815.68	27789
815.821	27660
815.962	27823
816.103	27987
816.244	27675
816.385	27614
816.526	27747
816.666	27435
816.807	27332
816.948	27427
817.089	27439
817.23	27340
817.371	27420
817.512	27431
817.653	27336
817.793	27264
817.934	27545
818.075	27355
818.216	27249
818.356	27348
818.497	27154
818.638	27180
818.778	27005
818.919	27070
819.06	27192
819.2	27188
819.341	27336
819.481	27431
819.622	27367
819.762	27633
819.903	27618
820.043	27431
820.184	27405
820.324	27473
820.465	27496
820.605	27496
820.746	27469
820.886	27245
821.026	27389
821.167	27462
821.307	27443
821.447	27469
821.588	27131
821.728	27154
821.868	27020
822.008	26769
822.149	26769
822.289	26811
822.429	26545
822.569	26564
822.709	26476
822.849	26225
822.99	26332
823.13	26355
823.27	26191
823.41	26180
823.55	25993
823.69	26084
823.83	26145
823.97	26111
824.11	25955
824.25	25925
824.389	25921
824.529	26035
824.669	26134
824.809	26081
824.949	25993
825.089	26092
825.228	26138
825.368	25818
825.508	25898
825.648	25826
825.787	25951
825.927	25898
826.067	25849
826.206	25776
826.346	25750
826.485	25963
826.625	25734
826.765	25906
826.904	25845
827.044	25639
827.183	25521
827.323	25472
827.462	25506
827.601	25529
827.741	25472
827.88	25590
828.02	25449
828.159	25533
828.298	25628
828.437	25639
828.577	25666
828.716	25499
828.855	25540
828.994	25331
829.134	25278
829.273	25278
829.412	25259
829.551	25255
829.69	25217
829.829	25107
829.968	25301
830.107	25270
830.246	25194
830.385	25171
830.524	25069
830.663	24920
830.802	25095
830.941	24886
831.08	24890
831.219	24947
831.357	24970
831.496	24924
831.635	24924
831.774	24749
831.913	24749
832.051	24669
832.19	24635
832.329	24604
832.467	24601
832.606	24422
832.744	24445
832.883	24559
833.022	24528
833.16	24547
833.299	24502
833.437	24532
833.576	24768
833.714	24654
833.852	24540
833.991	24661
834.129	24646
834.267	24692
834.406	24570
834.544	24642
834.682	24513
834.821	24570
834.959	24642
835.097	24623
835.235	24711
835.373	24441
835.511	24597
835.65	24471
835.788	24456
835.926	24266
836.064	24079
836.202	24182
836.34	24319
836.478	24505
836.615	24346
836.753	24311
836.891	24490
837.029	24407
837.167	24357
837.305	24509
837.443	24262
837.58	24308
837.718	24426
837.856	24258
837.993	24201
838.131	24178
838.269	24102
838.406	24072
838.544	24201
838.681	23920
838.819	23916
838.956	23699
839.094	23783
839.231	23745
839.369	23954
839.506	24064
839.643	23965
839.781	23729
839.918	23691
840.055	23783
840.193	23687
840.33	23649
840.467	23596
840.604	23722
840.742	23923
840.879	23505
841.016	23558
841.153	23566
841.29	23783
841.427	23471
841.564	23687
841.701	23524
841.838	23676
841.975	23471
842.112	23490
842.249	23391
842.385	23372
842.522	23467
842.659	23467
842.796	23429
842.933	23398
843.069	23284
843.206	23307
843.343	23452
843.479	23395
843.616	23368
843.752	23159
843.889	23311
844.025	23379
844.162	23197
844.298	23185
844.435	23113
844.571	23121
844.708	23208
844.844	23318
844.98	23250
845.117	23261
845.253	23178
845.389	23044
845.525	23060
845.661	23003
845.798	22927
845.934	22892
846.07	22927
846.206	22911
846.342	23006
846.478	22866
846.614	22679
846.75	22580
846.886	22626
847.022	22713
847.158	22664
847.294	22664
847.429	22641
847.565	22611
847.701	22771
847.837	22344
847.972	22363
848.108	22428
848.244	22386
848.379	22253
848.515	22196
848.65	22215
848.786	22169
848.921	22158
849.057	22280
849.192	22299
849.328	22344
849.463	22013
849.598	22261
849.734	22185
849.869	22101
850.004	22017
850.14	22082
850.275	22211
850.41	21797
850.545	21865
850.68	21880
850.815	21968
850.95	21857
851.085	22181
851.22	21930
851.355	22032
851.49	21895
851.625	22017
851.76	22059
851.895	21899
852.03	21953
852.165	22017
852.299	21930
852.434	22120
852.569	21945
852.703	21930
852.838	21945
852.973	22105
853.107	22192
853.242	21945
853.376	21785
853.511	21652
853.645	21675
853.78	21915
853.914	21835
854.048	21633
854.183	21713
854.317	21903
854.451	21930
854.585	21808
854.72	21876
854.854	21892
854.988	21595
855.122	21800
855.256	21606
855.39	21713
855.524	21956
855.658	21934
855.792	21804
855.926	21888
856.06	21850
856.194	21895
856.327	21808
856.461	21663
856.595	21717
856.729	21751
856.862	21934
856.996	21831
857.13	21888
857.263	21915
857.397	21876
857.53	21835
857.664	21800
857.797	21838
857.931	21770
858.064	21816
858.197	21975
858.331	21698
858.464	21625
858.597	21625
858.731	21838
858.864	21789
858.997	21778
859.13	21831
859.263	21781
859.396	21884
859.529	21713
859.662	21717
859.795	21698
859.928	21755
860.061	21854
860.194	22070
860.327	21747
860.46	21838
860.592	22006
860.725	22006
860.858	21895
860.99	21816
861.123	21747
861.256	21629
861.388	21713
861.521	22329
861.653	21679
861.786	21534
861.918	21587
862.05	21694
862.183	21698
862.315	21732
862.447	21823
862.58	21663
862.712	21443
862.844	21462
862.976	21637
863.108	21485
863.24	21937
863.372	21393
863.504	21580
863.636	21435
863.768	21538
863.9	21538
864.032	21275
864.164	21401
864.296	21519
864.428	21663
864.559	21462
864.691	21622
864.823	21473
864.954	21542
865.086	21485
865.217	21363
865.349	21378
865.48	21374
865.612	21351
865.743	21553
865.875	21386
866.006	21222
866.137	21473
866.269	21348
866.4	21412
866.531	21287
866.662	21272
866.793	21287
866.924	21291
867.055	21275
867.186	21424
867.317	21382
867.448	21252
867.579	21428
867.71	21135
867.841	21268
867.972	21363
868.103	21291
868.233	21264
868.364	21294
868.495	21359
868.625	21698
868.756	21603
868.886	21454
869.017	21587
869.147	21591
869.278	21720
869.408	21545
869.539	21526
869.669	21583
869.799	21663
869.929	21644
870.06	21679
870.19	21846
870.32	21918
870.45	21926
870.58	21915
870.71	22017
870.84	21949
870.97	21937
871.1	22002
871.23	22078
871.36	22154
871.489	22055
871.619	22002
871.749	22097
871.879	22204
872.008	22204
872.138	22154
872.267	22223
872.397	21953
872.526	21987
872.656	21922
872.785	21964
872.915	22143
873.044	22135
873.173	22093
873.303	22219
873.432	22310
873.561	22276
873.69	22112
873.819	22192
873.948	22188
874.077	22200
874.206	22006
874.335	22238
874.464	22280
874.593	22379
874.722	22276
874.851	22394
874.979	22390
875.108	22474
875.237	22363
875.365	22181
875.494	22295
875.623	22371
875.751	22367
875.88	22417
876.008	22398
876.136	22478
876.265	22831
876.393	22976
876.521	22923
876.65	22801
876.778	22793
876.906	22706
877.034	22744
877.162	22801
877.29	22607
877.418	22725
877.546	22774
877.674	22782
877.802	22763
877.93	22698
878.058	22725
878.185	22691
878.313	22793
878.441	22721
878.568	22660
878.696	22637
878.824	22793
878.951	22812
879.079	22885
879.206	23037
879.333	22942
879.461	22694
879.588	22934
879.715	22938
879.842	22957
879.97	22854
880.097	22459
880.224	22588
880.351	22679
880.478	22550
880.605	22451
880.732	22569
880.859	22698
880.986	22611
881.112	22618
881.239	22462
881.366	22356
881.493	22299
881.619	22192
881.746	22173
881.872	22200
881.999	22097
882.125	22112
882.252	22230
882.378	22021
882.505	22325
882.631	21964
882.757	21842
882.883	21873
883.01	21816
883.136	21789
883.262	21622
883.388	21671
883.514	21880
883.64	21785
883.766	21717
883.892	21534
884.018	21530
884.143	21732
884.269	21857
884.395	21530
884.52	21454
884.646	21488
884.772	21408
884.897	21340
885.023	21428
885.148	21530
885.274	21553
885.399	21583
885.524	21424
885.65	21488
885.775	21496
885.9	21367
886.025	21526
886.15	21504
886.275	21492
886.4	21492
886.525	21370
886.65	21313
886.775	21378
886.9	21557
887.025	21629
887.149	21485
887.274	21233
887.399	21203
887.523	21302
887.648	21138
887.773	21070
887.897	21249
888.021	21298
888.146	21093
888.27	21283
888.395	21294
888.519	21317
888.643	21336
888.767	21237
888.891	21214
889.015	21039
889.139	21043
889.263	21043
889.387	21013
889.511	21199
889.635	21100
889.759	21001
889.883	21024
890.006	21135
890.13	21093
890.254	20952
890.377	20872
890.501	20746
890.624	20853
890.748	20937
890.871	20609
890.995	20678
891.118	20465
891.241	20537
891.364	20602
891.488	20708
891.611	20549
891.734	20393
891.857	20575
891.98	20537
892.103	20560
892.226	20518
892.349	20590
892.471	20450
892.594	20404
892.717	20598
892.839	20484
892.962	20450
893.085	20495
893.207	20480
893.33	20381
893.452	20362
893.575	20450
893.697	20412
893.819	20587
893.941	20750
894.064	20549
894.186	20404
894.308	20298
894.43	20476
894.552	20640
894.674	20507
894.796	20252
894.918	20415
895.04	20454
895.161	20450
895.283	20511
895.405	20286
895.526	20389
895.648	20415
895.769	20518
895.891	20545
896.012	20518
896.134	20564
896.255	20533
896.376	20465
896.498	20442
896.619	20454
896.74	20507
896.861	20556
896.982	20788
897.103	20910
897.224	20693
897.345	20674
897.466	20526
897.587	20800
897.708	20826
897.828	20842
897.949	20655
898.07	20503
898.19	20674
898.311	20720
898.431	20686
898.552	20617
898.672	20883
898.792	20716
898.913	20670
899.033	20583
899.153	20488
899.273	20370
899.393	20332
899.513	20514
899.633	20602
899.753	20434
899.873	20358
899.993	20484
900.113	20298
900.232	20461
900.352	20393
900.472	20332
900.591	20107
900.711	20221
900.83	20043
900.95	20332
901.069	20214
901.189	20077
901.308	19913
901.427	19818
901.546	19803
901.665	19818
901.784	19776
901.904	19655
902.023	19567
902.141	19392
902.26	19274
902.379	19346
902.498	19426
902.617	19278
902.735	19388
902.854	19244
902.973	19244
903.091	18962
903.21	18943
903.328	19065
903.446	18871
903.565	18798
903.683	18661
903.801	18749
903.919	18783
904.038	18642
904.156	18452
904.274	18528
904.392	18494
904.51	18517
904.627	18483
904.745	18646
904.863	18532
904.981	18357
905.098	18140
905.216	18220
905.334	18205
905.451	18155
905.569	18068
905.686	18239
905.803	18182
905.921	17973
906.038	18045
906.155	18011
906.272	17843
906.389	17954
906.506	17741
906.623	17824
906.74	17718
906.857	17512
906.974	17581
907.091	17729
907.208	17756
907.324	17623
907.441	17661
907.557	17562
907.674	17383
907.79	17353
907.907	17379
908.023	17482
908.139	17455
908.256	17337
908.372	17315
908.488	17349
908.604	17220
908.72	17105
908.836	17067
908.952	17117
909.068	17162
909.184	17212
909.3	17162
909.415	17113
909.531	17105
909.647	16885
909.762	16812
909.878	16850
909.993	16949
910.108	16862
910.224	16900
910.339	16748
910.454	16782
910.57	16679
910.685	16599
910.8	16930
910.915	16702
911.03	16649
911.145	16546
911.259	16386
911.374	16398
911.489	16409
911.604	16226
911.718	16101
911.833	16230
911.947	16143
912.062	16128
912.176	16192
912.291	16207
912.405	16173
912.519	16375
912.633	16405
912.748	16265
912.862	16078
912.976	15930
913.09	15903
913.204	15987
913.318	15994
913.431	16093
913.545	16067
913.659	16044
913.772	15899
913.886	15895
914	15720
914.113	15785
914.226	15911
914.34	15857
914.453	15732
914.566	15762
914.68	15671
914.793	15686
914.906	15500
915.019	15298
915.132	15325
915.245	15447
915.358	15382
915.47	15401
915.583	15408
915.696	15405
915.809	15485
915.921	15485
916.034	15359
916.146	15321
916.259	15310
916.371	15370
916.483	15367
916.595	15169
916.708	15165
916.82	15268
916.932	15211
917.044	15127
917.156	15169
917.268	15009
917.38	14994
917.491	14842
917.603	15089
917.715	15005
917.826	15020
917.938	14895
918.049	14902
918.161	14941
918.272	15089
918.384	15066
918.495	14910
918.606	14834
918.717	14788
918.828	14792
918.939	14838
919.05	14727
919.161	14754
919.272	14575
919.383	14571
919.494	14811
919.604	14929
919.715	14743
919.826	14659
919.936	14746
920.047	14823
920.157	14807
920.267	14902
920.378	14792
920.488	14861
920.598	14910
920.708	14994
920.818	14823
920.928	14872
921.038	14971
921.148	14975
921.258	14743
921.368	14613
921.477	14469
921.587	14476
921.697	14396
921.806	14579
921.916	14358
922.025	14183
922.134	14161
922.244	14111
922.353	14210
922.462	14084
922.571	13932
922.68	13776
922.789	13734
922.898	13765
923.007	13689
923.116	13772
923.224	13757
923.333	13753
923.442	13651
923.55	13700
923.659	13696
923.767	13822
923.876	13609
923.984	13533
924.092	13464
924.201	13613
924.309	13537
924.417	13529
924.525	13502
924.633	13457
924.741	14427
924.849	13266
924.956	13403
925.064	13190
925.172	13156
925.279	13213
925.387	13126
925.494	13114
925.602	13331
925.709	13244
925.816	13107
925.924	13164
926.031	13206
926.138	13129
926.245	13183
926.352	13027
926.459	13240
926.566	13278
926.673	12993
926.779	12996
926.886	12935
926.993	12840
927.099	12703
927.206	12646
927.312	12760
927.419	12738
927.525	12814
927.631	12791
927.737	12631
927.843	12612
927.95	12467
928.056	12589
928.162	12536
928.267	12593
928.373	13198
928.479	12623
928.585	12433
928.69	12620
928.796	12490
928.901	12479
929.007	12277
929.112	12403
929.218	12410
929.323	12270
929.428	12243
929.533	12422
929.638	12266
929.743	12220
929.848	12239
929.953	12262
930.058	12133
930.163	12026
930.267	12007
930.372	12148
930.477	11927
930.581	12133
930.685	11958
930.79	11843
930.894	11912
930.998	11866
931.103	11977
931.207	11600
931.311	11554
931.415	11486
931.519	11223
931.623	11162
