Data from test_V78500241_3284.txt Node
Date: Fri Mar 25 16:04:33 CST 2022
User: usil
Spectrometer: V785-0024
Trigger mode: 0
Integration Time (sec): 4.000000E-1
Scans to average: 1
Nonlinearity correction enabled: false
Boxcar width: 0
Storing dark spectrum: false
XAxis mode: Wavelengths
Number of Pixels in Spectrum: 1024
>>>>>Begin Spectral Data<<<<<
801.071	28740
801.214	28649
801.356	28485
801.499	28341
801.641	28360
801.783	28303
801.926	28185
802.068	28379
802.211	28314
802.353	28268
802.496	28101
802.638	28036
802.78	28021
802.923	28044
803.065	28002
803.208	28032
803.35	28124
803.492	28112
803.635	28242
803.777	28173
803.919	28207
804.061	28687
804.204	28363
804.346	28257
804.488	28295
804.63	28333
804.773	28154
804.915	28500
805.057	28424
805.199	28185
805.341	28303
805.483	28573
805.626	28455
805.768	28329
805.91	28462
806.052	28451
806.194	28493
806.336	28622
806.478	28421
806.62	28443
806.762	28641
806.904	28687
807.046	28976
807.188	28915
807.33	28892
807.472	28888
807.614	28801
807.756	28862
807.898	28763
808.04	28710
808.182	28801
808.324	28733
808.465	28961
808.607	28961
808.749	29113
808.891	29318
809.033	29299
809.174	29166
809.316	29170
809.458	29181
809.6	29064
809.741	29334
809.883	29337
810.025	29474
810.166	29452
810.308	29562
810.45	29414
810.591	29353
810.733	29265
810.875	29220
811.016	29197
811.158	29174
811.299	29315
811.441	29368
811.582	29345
811.724	29254
811.865	29223
812.007	29147
812.148	29239
812.29	29440
812.431	29398
812.573	29646
812.714	29718
812.855	29684
812.997	29767
813.138	29973
813.279	29862
813.421	29611
813.562	29695
813.703	29493
813.845	29528
813.986	29174
814.127	29025
814.268	28888
814.41	28946
814.551	28972
814.692	29037
814.833	28896
814.974	28923
815.115	28957
815.256	28706
815.397	28812
815.539	28930
815.68	28771
815.821	28664
815.962	28778
816.103	28668
816.244	28615
816.385	28580
816.526	28424
816.666	28242
816.807	28207
816.948	28242
817.089	28192
817.23	28371
817.371	28424
817.512	28363
817.653	28097
817.793	28268
817.934	28192
818.075	28154
818.216	28257
818.356	28223
818.497	27964
818.638	27953
818.778	27850
818.919	27953
819.06	28105
819.2	28093
819.341	28253
819.481	28306
819.622	28356
819.762	28519
819.903	28561
820.043	28424
820.184	28401
820.324	28462
820.465	28462
820.605	28367
820.746	28428
820.886	28382
821.026	28360
821.167	28352
821.307	28428
821.447	28207
821.588	28173
821.728	28147
821.868	27743
822.008	27766
822.149	27876
822.289	27610
822.429	27599
822.569	27424
822.709	27348
822.849	27226
822.99	27264
823.13	27275
823.27	27165
823.41	27142
823.55	27100
823.69	27039
823.83	27020
823.97	26853
824.11	26815
824.25	26918
824.389	26834
824.529	26986
824.669	26906
824.809	27017
824.949	27043
825.089	27036
825.228	26918
825.368	26727
825.508	26697
825.648	26785
825.787	26811
825.927	26853
826.067	26746
826.206	26804
826.346	26876
826.485	26823
826.625	26773
826.765	26902
826.904	26731
827.044	26670
827.183	26511
827.323	26381
827.462	26564
827.601	26480
827.741	26552
827.88	26556
828.02	26324
828.159	26526
828.298	26488
828.437	26518
828.577	26431
828.716	26450
828.855	26400
828.994	26122
829.134	26233
829.273	26145
829.412	26161
829.551	25989
829.69	26199
829.829	26126
829.968	26336
830.107	26282
830.246	26069
830.385	26168
830.524	25993
830.663	26031
830.802	25883
830.941	25875
831.08	25632
831.219	25818
831.357	25913
831.496	26069
831.635	25689
831.774	25712
831.913	25571
832.051	25575
832.19	25670
832.329	25582
832.467	25502
832.606	25324
832.744	25335
832.883	25487
833.022	25392
833.16	25343
833.299	25457
833.437	25388
833.576	25552
833.714	25491
833.852	25578
833.991	25616
834.129	25578
834.267	25704
834.406	25411
834.544	25495
834.682	25552
834.821	25430
834.959	25548
835.097	25487
835.235	25594
835.373	25487
835.511	25369
835.65	25362
835.788	25411
835.926	25225
836.064	25023
836.202	25198
836.34	25312
836.478	25495
836.615	25297
836.753	25327
836.891	25422
837.029	25411
837.167	25179
837.305	25160
837.443	25221
837.58	25301
837.718	25038
837.856	25198
837.993	25015
838.131	25183
838.269	24935
838.406	24958
838.544	24977
838.681	24783
838.819	24817
838.956	24715
839.094	24513
839.231	24749
839.369	24749
839.506	25057
839.643	24840
839.781	24798
839.918	24494
840.055	24654
840.193	24593
840.33	24483
840.467	24528
840.604	24551
840.742	24943
840.879	24437
841.016	24525
841.153	24429
841.29	24642
841.427	24426
841.564	24646
841.701	24513
841.838	24528
841.975	24407
842.112	24426
842.249	24289
842.385	24292
842.522	24429
842.659	24486
842.796	24232
842.933	24418
843.069	24209
843.206	24247
843.343	24441
843.479	24277
843.616	24342
843.752	24171
843.889	24209
844.025	24060
844.162	24125
844.298	24270
844.435	24068
844.571	23988
844.708	24190
844.844	24319
844.98	24235
845.117	24228
845.253	23965
845.389	23893
845.525	23999
845.661	23809
845.798	23836
845.934	23916
846.07	23760
846.206	23920
846.342	23893
846.478	23843
846.614	23585
846.75	23482
846.886	23490
847.022	23604
847.158	23653
847.294	23478
847.429	23573
847.565	23554
847.701	23718
847.837	23250
847.972	23303
848.108	23417
848.244	23452
848.379	23250
848.515	23147
848.65	23102
848.786	22972
848.921	23189
849.057	23181
849.192	23143
849.328	23185
849.463	23056
849.598	23105
849.734	22991
849.869	23010
850.004	22984
850.14	22889
850.275	22816
850.41	22771
850.545	22820
850.68	22790
850.815	22873
850.95	22923
851.085	22919
851.22	22957
851.355	22908
851.49	22862
851.625	22854
851.76	22923
851.895	22713
852.03	22793
852.165	22930
852.299	22873
852.434	22953
852.569	22835
852.703	22885
852.838	22862
852.973	22892
853.107	23025
853.242	22904
853.376	22668
853.511	22596
853.645	22675
853.78	22774
853.914	22702
854.048	22542
854.183	22698
854.317	22763
854.451	22953
854.585	22725
854.72	22850
854.854	22717
854.988	22626
855.122	22588
855.256	22596
855.39	22710
855.524	22771
855.658	22679
855.792	22691
855.926	22653
856.06	22748
856.194	22835
856.327	22603
856.461	22653
856.595	22672
856.729	22596
856.862	22877
856.996	22763
857.13	22733
857.263	22710
857.397	22889
857.53	22767
857.664	22793
857.797	22850
857.931	22774
858.064	22649
858.197	22672
858.331	22672
858.464	22713
858.597	22645
858.731	22660
858.864	22637
858.997	22424
859.13	22771
859.263	22687
859.396	22694
859.529	22729
859.662	22512
859.795	22622
859.928	22786
860.061	22908
860.194	22847
860.327	22790
860.46	22873
860.592	22866
860.725	22820
860.858	22805
860.99	22569
861.123	22603
861.256	22615
861.388	22820
861.521	23292
861.653	22542
861.786	22550
861.918	22565
862.05	22546
862.183	22599
862.315	22634
862.447	22630
862.58	22622
862.712	22394
862.844	22318
862.976	22508
863.108	22611
863.24	22919
863.372	22432
863.504	22398
863.636	22413
863.768	22462
863.9	22489
864.032	22417
864.164	22276
864.296	22538
864.428	22390
864.559	22561
864.691	22493
864.823	22306
864.954	22295
865.086	22337
865.217	22409
865.349	22200
865.48	22162
865.612	22299
865.743	22382
865.875	22325
866.006	22253
866.137	22249
866.269	22249
866.4	22249
866.531	22196
866.662	22070
866.793	22188
866.924	22200
867.055	22215
867.186	22169
867.317	22200
867.448	22051
867.579	22169
867.71	22135
867.841	22017
867.972	22238
868.103	22188
868.233	22135
868.364	22211
868.495	22276
868.625	22428
868.756	22398
868.886	22413
869.017	22333
869.147	22489
869.278	22550
869.408	22550
869.539	22424
869.669	22546
869.799	22447
869.929	22634
870.06	22516
870.19	22790
870.32	22786
870.45	22790
870.58	22847
870.71	22881
870.84	22904
870.97	22774
871.1	22790
871.23	23006
871.36	23090
871.489	22919
871.619	22949
871.749	23025
871.879	23022
872.008	23212
872.138	23056
872.267	23117
872.397	22877
872.526	22835
872.656	22793
872.785	22900
872.915	23200
873.044	23178
873.173	23010
873.303	23056
873.432	23128
873.561	23044
873.69	23140
873.819	23147
873.948	23128
874.077	23132
874.206	23109
874.335	23048
874.464	23155
874.593	23326
874.722	23258
874.851	23379
874.979	23334
875.108	23356
875.237	23299
875.365	23216
875.494	23181
875.623	23322
875.751	23242
875.88	23330
876.008	23364
876.136	23512
876.265	23729
876.393	23775
876.521	23638
876.65	23813
876.778	23657
876.906	23478
877.034	23649
877.162	23585
877.29	23604
877.418	23646
877.546	23695
877.674	23562
877.802	23630
877.93	23562
878.058	23570
878.185	23467
878.313	23471
878.441	23615
878.568	23376
878.696	23516
878.824	23649
878.951	23668
879.079	23699
879.206	23977
879.333	23843
879.461	23627
879.588	23767
879.715	23863
879.842	23878
879.97	23615
880.097	23429
880.224	23486
880.351	23497
880.478	23406
880.605	23490
880.732	23474
880.859	23691
880.986	23512
881.112	23463
881.239	23227
881.366	23124
881.493	23094
881.619	22999
881.746	23086
881.872	23025
881.999	23041
882.125	22991
882.252	23025
882.378	23090
882.505	23044
882.631	22771
882.757	22767
882.883	22645
883.01	22790
883.136	22611
883.262	22599
883.388	22523
883.514	22752
883.64	22721
883.766	22580
883.892	22424
884.018	22523
884.143	22577
884.269	22729
884.395	22440
884.52	22402
884.646	22394
884.772	22090
884.897	22261
885.023	22280
885.148	22421
885.274	22485
885.399	22360
885.524	22325
885.65	22360
885.775	22257
885.9	22402
886.025	22447
886.15	22421
886.275	22291
886.4	22226
886.525	22249
886.65	22276
886.775	22169
886.9	22481
887.025	22478
887.149	22200
887.274	22154
887.399	22139
887.523	22188
887.648	22090
887.773	21968
887.897	22154
888.021	22185
888.146	22063
888.27	22070
888.395	22177
888.519	22090
888.643	22169
888.767	22067
888.891	21869
889.015	21827
889.139	21861
889.263	21873
889.387	21991
889.511	22105
889.635	21922
889.759	21823
889.883	21724
890.006	21899
890.13	21930
890.254	21762
890.377	21755
890.501	21641
890.624	21519
890.748	21728
890.871	21401
890.995	21393
891.118	21389
891.241	21405
891.364	21492
891.488	21515
891.611	21435
891.734	21481
891.857	21370
891.98	21439
892.103	21332
892.226	21393
892.349	21336
892.471	21260
892.594	21374
892.717	21283
892.839	21340
892.962	21378
893.085	21420
893.207	21325
893.33	21184
893.452	21260
893.575	21374
893.697	21222
893.819	21519
893.941	21534
894.064	21431
894.186	21321
894.308	21211
894.43	21374
894.552	21462
894.674	21351
894.796	21169
894.918	21135
895.04	21287
895.161	21283
895.283	21306
895.405	21116
895.526	21382
895.648	21131
895.769	21332
895.891	21268
896.012	21351
896.134	21279
896.255	21169
896.376	21184
896.498	21264
896.619	21214
896.74	21173
896.861	21302
896.982	21705
897.103	21622
897.224	21458
897.345	21443
897.466	21321
897.587	21351
897.708	21583
897.828	21507
897.949	21313
898.07	21287
898.19	21382
898.311	21542
898.431	21287
898.552	21317
898.672	21500
898.792	21648
898.913	21420
899.033	21386
899.153	21313
899.273	21074
899.393	21142
899.513	21435
899.633	21214
899.753	21233
899.873	21108
899.993	21230
900.113	21127
900.232	21127
900.352	21100
900.472	21028
900.591	20921
900.711	20815
900.83	20891
900.95	21032
901.069	21062
901.189	20811
901.308	20632
901.427	20469
901.546	20514
901.665	20507
901.784	20552
901.904	20446
902.023	20328
902.141	20058
902.26	20092
902.379	20130
902.498	20107
902.617	19974
902.735	20073
902.854	19997
902.973	19890
903.091	19696
903.21	19658
903.328	19662
903.446	19559
903.565	19411
903.683	19521
903.801	19426
903.919	19400
904.038	19518
904.156	19217
904.274	19358
904.392	19236
904.51	19266
904.627	19183
904.745	19266
904.863	19198
904.981	19072
905.098	18806
905.216	18916
905.334	18932
905.451	18935
905.569	18890
905.686	18928
905.803	18977
905.921	18654
906.038	18806
906.155	18700
906.272	18551
906.389	18612
906.506	18448
906.623	18407
906.74	18407
906.857	18334
906.974	18372
907.091	18448
907.208	18528
907.324	18384
907.441	18376
907.557	18186
907.674	18205
907.79	17992
907.907	18174
908.023	18148
908.139	18060
908.256	18064
908.372	17897
908.488	18022
908.604	17802
908.72	17851
908.836	17843
908.952	17786
909.068	17802
909.184	17927
909.3	17904
909.415	17863
909.531	17779
909.647	17611
909.762	17516
909.878	17509
909.993	17528
910.108	17433
910.224	17433
910.339	17391
910.454	17311
910.57	17383
910.685	17193
910.8	17505
910.915	17391
911.03	17269
911.145	17090
911.259	17079
911.374	17124
911.489	17098
911.604	16995
911.718	16904
911.833	16858
911.947	16824
912.062	16740
912.176	16850
912.291	16862
912.405	16839
912.519	17018
912.633	16987
912.748	16816
912.862	16839
912.976	16641
913.09	16565
913.204	16603
913.318	16755
913.431	16717
913.545	16805
913.659	16854
913.772	16542
913.886	16504
914	16421
914.113	16535
914.226	16508
914.34	16474
914.453	16306
914.566	16459
914.68	16371
914.793	16379
914.906	16116
915.019	15994
915.132	15945
915.245	16048
915.358	16071
915.47	15979
915.583	16055
915.696	16063
915.809	16048
915.921	16143
916.034	15964
916.146	15937
916.259	15895
916.371	15998
916.483	16002
916.595	15842
916.708	15808
916.82	15808
916.932	15781
917.044	15644
917.156	15831
917.268	15576
917.38	15705
917.491	15641
917.603	15618
917.715	15717
917.826	15679
917.938	15644
918.049	15428
918.161	15591
918.272	15690
918.384	15663
918.495	15511
918.606	15386
918.717	15317
918.828	15382
918.939	15408
919.05	15294
919.161	15370
919.272	15184
919.383	15287
919.494	15401
919.604	15572
919.715	15389
919.826	15154
919.936	15302
920.047	15382
920.157	15313
920.267	15584
920.378	15332
920.488	15283
920.598	15507
920.708	15625
920.818	15462
920.928	15439
921.038	15587
921.148	15584
921.258	15237
921.368	15180
921.477	15077
921.587	15142
921.697	14861
921.806	15009
921.916	14914
922.025	14864
922.134	14659
922.244	14541
922.353	14670
922.462	14552
922.571	14476
922.68	14317
922.789	14305
922.898	14317
923.007	14298
923.116	14358
923.224	14320
923.333	14385
923.442	14229
923.55	14115
923.659	14172
923.767	14172
923.876	14024
923.984	14195
924.092	14065
924.201	14130
924.309	13974
924.417	14081
924.525	13974
924.633	14016
924.741	14697
924.849	13750
924.956	13917
925.064	13746
925.172	13540
925.279	13666
925.387	13708
925.494	13616
925.602	13875
925.709	13681
925.816	13727
925.924	13666
926.031	13734
926.138	13605
926.245	13575
926.352	13514
926.459	13552
926.566	13731
926.673	13495
926.779	13480
926.886	13320
926.993	13335
927.099	13232
927.206	13213
927.312	13160
927.419	13251
927.525	13168
927.631	13206
927.737	13129
927.843	13046
927.95	12993
928.056	12985
928.162	13042
928.267	13129
928.373	13582
928.479	13053
928.585	12878
928.69	12920
928.796	13015
928.901	12859
929.007	12757
929.112	12837
929.218	12890
929.323	12772
929.428	12715
929.533	12882
929.638	12688
929.743	12620
929.848	12703
929.953	12825
930.058	12620
930.163	12414
930.267	12403
930.372	12525
930.477	12330
930.581	12662
930.685	12365
930.79	12239
930.894	12281
930.998	12266
931.103	12369
931.207	12022
931.311	11908
931.415	11794
931.519	11646
931.623	11699
