Data from test_V78500241_1294.txt Node
Date: Fri Mar 25 15:50:45 CST 2022
User: usil
Spectrometer: V785-0024
Trigger mode: 0
Integration Time (sec): 4.000000E-1
Scans to average: 1
Nonlinearity correction enabled: false
Boxcar width: 0
Storing dark spectrum: false
XAxis mode: Wavelengths
Number of Pixels in Spectrum: 1024
>>>>>Begin Spectral Data<<<<<
801.071	28390
801.214	28230
801.356	27918
801.499	28082
801.641	28010
801.783	28010
801.926	28139
802.068	27873
802.211	27816
802.353	27854
802.496	27603
802.638	27515
802.78	27614
802.923	27542
803.065	27534
803.208	27439
803.35	27679
803.492	27743
803.635	27747
803.777	27781
803.919	27854
804.061	28078
804.204	27937
804.346	27667
804.488	27850
804.63	27854
804.773	27701
804.915	27850
805.057	27911
805.199	27698
805.341	27850
805.483	28051
805.626	27945
805.768	27892
805.91	27888
806.052	27941
806.194	27926
806.336	28074
806.478	27945
806.62	27926
806.762	28055
806.904	28261
807.046	28485
807.188	28379
807.33	28421
807.472	28375
807.614	28322
807.756	28432
807.898	28303
808.04	28177
808.182	28185
808.324	28246
808.465	28341
808.607	28455
808.749	28557
808.891	28793
809.033	28767
809.174	28687
809.316	28580
809.458	28618
809.6	28733
809.741	28892
809.883	28934
810.025	29006
810.166	28938
810.308	28809
810.45	28930
810.591	28774
810.733	28782
810.875	28615
811.016	28500
811.158	28615
811.299	28698
811.441	28763
811.582	28744
811.724	28683
811.865	28713
812.007	28569
812.148	28565
812.29	28748
812.431	28904
812.573	28949
812.714	28965
812.855	29212
812.997	29322
813.138	29421
813.279	29296
813.421	29204
813.562	29067
813.703	28892
813.845	28820
813.986	28725
814.127	28523
814.268	28371
814.41	28379
814.551	28489
814.692	28474
814.833	28333
814.974	28234
815.115	28329
815.256	28310
815.397	28303
815.539	28188
815.68	28166
815.821	28074
815.962	28196
816.103	28070
816.244	27975
816.385	27983
816.526	27884
816.666	27838
816.807	27564
816.948	27682
817.089	27648
817.23	27660
817.371	27641
817.512	27557
817.653	27759
817.793	27595
817.934	27663
818.075	27709
818.216	27641
818.356	27583
818.497	27439
818.638	27397
818.778	27370
818.919	27549
819.06	27412
819.2	27637
819.341	27759
819.481	27633
819.622	27914
819.762	27842
819.903	27865
820.043	27736
820.184	27622
820.324	27819
820.465	27751
820.605	27888
820.746	27713
820.886	27622
821.026	27884
821.167	27698
821.307	27838
821.447	27622
821.588	27519
821.728	27443
821.868	27287
822.008	27245
822.149	27112
822.289	27199
822.429	26830
822.569	26823
822.709	26758
822.849	26693
822.99	26659
823.13	26613
823.27	26587
823.41	26366
823.55	26381
823.69	26389
823.83	26541
823.97	26267
824.11	26172
824.25	26355
824.389	26206
824.529	26381
824.669	26298
824.809	26453
824.949	26366
825.089	26271
825.228	26218
825.368	26081
825.508	26050
825.648	26145
825.787	26214
825.927	26210
826.067	26054
826.206	26176
826.346	26233
826.485	26168
826.625	26187
826.765	26164
826.904	26305
827.044	25963
827.183	25860
827.323	25883
827.462	25871
827.601	25921
827.741	25868
827.88	25890
828.02	25689
828.159	25837
828.298	25917
828.437	25845
828.577	25799
828.716	25856
828.855	25894
828.994	25635
829.134	25632
829.273	25525
829.412	25457
829.551	25483
829.69	25613
829.829	25582
829.968	25685
830.107	25689
830.246	25582
830.385	25575
830.524	25438
830.663	25240
830.802	25373
830.941	25042
831.08	25091
831.219	25217
831.357	25179
831.496	25335
831.635	25141
831.774	25236
831.913	25187
832.051	24935
832.19	25004
832.329	24962
832.467	24837
832.606	24734
832.744	24787
832.883	24840
833.022	24817
833.16	24760
833.299	24867
833.437	24894
833.576	24966
833.714	24977
833.852	24901
833.991	24939
834.129	25050
834.267	24943
834.406	24924
834.544	24939
834.682	24901
834.821	24905
834.959	25072
835.097	24734
835.235	24856
835.373	24882
835.511	24863
835.65	24810
835.788	24821
835.926	24612
836.064	24601
836.202	24555
836.34	24726
836.478	24768
836.615	24677
836.753	24715
836.891	24707
837.029	24711
837.167	24650
837.305	24536
837.443	24612
837.58	24460
837.718	24753
837.856	24620
837.993	24517
838.131	24403
838.269	24517
838.406	24464
838.544	24532
838.681	24182
838.819	24327
838.956	23988
839.094	24018
839.231	24098
839.369	24136
839.506	24399
839.643	24182
839.781	24049
839.918	23904
840.055	24026
840.193	23999
840.33	23912
840.467	23939
840.604	23942
840.742	24220
840.879	23874
841.016	23939
841.153	23847
841.29	24022
841.427	23863
841.564	23988
841.701	23958
841.838	23939
841.975	23878
842.112	23836
842.249	23710
842.385	23729
842.522	23996
842.659	23824
842.796	23676
842.933	23661
843.069	23592
843.206	23592
843.343	23714
843.479	23630
843.616	23634
843.752	23463
843.889	23368
844.025	23573
844.162	23486
844.298	23589
844.435	23429
844.571	23376
844.708	23589
844.844	23634
844.98	23520
845.117	23668
845.253	23364
845.389	23391
845.525	23311
845.661	23200
845.798	23227
845.934	23280
846.07	23121
846.206	23185
846.342	23178
846.478	23083
846.614	23067
846.75	22744
846.886	22877
847.022	22980
847.158	22896
847.294	23018
847.429	22900
847.565	22869
847.701	23067
847.837	22626
847.972	22565
848.108	22763
848.244	22630
848.379	22550
848.515	22557
848.65	22592
848.786	22580
848.921	22588
849.057	22588
849.192	22687
849.328	22474
849.463	22523
849.598	22405
849.734	22428
849.869	22428
850.004	22238
850.14	22272
850.275	22413
850.41	22257
850.545	22219
850.68	22135
850.815	22322
850.95	22329
851.085	22459
851.22	22341
851.355	22360
851.49	22276
851.625	22284
851.76	22253
851.895	22196
852.03	22154
852.165	22200
852.299	22181
852.434	22299
852.569	22272
852.703	22131
852.838	22215
852.973	22341
853.107	22519
853.242	22226
853.376	22128
853.511	21945
853.645	22093
853.78	22185
853.914	22025
854.048	21857
854.183	22055
854.317	22017
854.451	22299
854.585	22032
854.72	22143
854.854	22158
854.988	21888
855.122	22105
855.256	21903
855.39	21892
855.524	22055
855.658	22090
855.792	22082
855.926	22139
856.06	21975
856.194	22150
856.327	22051
856.461	22067
856.595	22090
856.729	22101
856.862	22268
856.996	22021
857.13	22177
857.263	22131
857.397	22169
857.53	22040
857.664	22112
857.797	22063
857.931	22090
858.064	22154
858.197	22230
858.331	22055
858.464	21998
858.597	21949
858.731	22013
858.864	22006
858.997	21918
859.13	22059
859.263	22124
859.396	22143
859.529	21964
859.662	22090
859.795	22051
859.928	22097
860.061	22188
860.194	22314
860.327	22097
860.46	21991
860.592	22265
860.725	22287
860.858	22249
860.99	22048
861.123	21975
861.256	21983
861.388	22143
861.521	22691
861.653	21945
861.786	21888
861.918	21873
862.05	21930
862.183	21899
862.315	22040
862.447	22093
862.58	22055
862.712	21812
862.844	21728
862.976	21816
863.108	21899
863.24	22166
863.372	21705
863.504	21911
863.636	21785
863.768	21766
863.9	21759
864.032	21675
864.164	21663
864.296	21755
864.428	22010
864.559	21865
864.691	21793
864.823	21774
864.954	21755
865.086	21728
865.217	21656
865.349	21637
865.48	21633
865.612	21606
865.743	21903
865.875	21701
866.006	21663
866.137	21713
866.269	21511
866.4	21724
866.531	21629
866.662	21538
866.793	21576
866.924	21564
867.055	21587
867.186	21652
867.317	21652
867.448	21564
867.579	21557
867.71	21572
867.841	21553
867.972	21496
868.103	21583
868.233	21603
868.364	21580
868.495	21603
868.625	21854
868.756	21934
868.886	21709
869.017	21781
869.147	21991
869.278	22006
869.408	21808
869.539	21899
869.669	21983
869.799	21812
869.929	22063
870.06	21991
870.19	22135
870.32	22128
870.45	22166
870.58	22272
870.71	22265
870.84	22192
870.97	22314
871.1	22226
871.23	22459
871.36	22436
871.489	22276
871.619	22573
871.749	22398
871.879	22481
872.008	22493
872.138	22523
872.267	22523
872.397	22280
872.526	22303
872.656	22192
872.785	22131
872.915	22512
873.044	22459
873.173	22398
873.303	22557
873.432	22580
873.561	22542
873.69	22390
873.819	22424
873.948	22516
874.077	22546
874.206	22386
874.335	22405
874.464	22554
874.593	22603
874.722	22615
874.851	22740
874.979	22668
875.108	22752
875.237	22748
875.365	22580
875.494	22656
875.623	22733
875.751	22656
875.88	22592
876.008	22824
876.136	22850
876.265	23041
876.393	23208
876.521	23121
876.65	23071
876.778	22999
876.906	22930
877.034	22968
877.162	22850
877.29	22953
877.418	23033
877.546	22942
877.674	22980
877.802	22984
877.93	22999
878.058	22885
878.185	22748
878.313	22949
878.441	22866
878.568	22843
878.696	22927
878.824	23056
878.951	23102
879.079	23189
879.206	23258
879.333	23166
879.461	23056
879.588	23185
879.715	23277
879.842	23200
879.97	23174
880.097	22828
880.224	22778
880.351	22835
880.478	22824
880.605	22839
880.732	22831
880.859	23052
880.986	22976
881.112	22938
881.239	22664
881.366	22611
881.493	22478
881.619	22478
881.746	22436
881.872	22367
881.999	22386
882.125	22291
882.252	22538
882.378	22394
882.505	22535
882.631	22261
882.757	22105
882.883	22128
883.01	22109
883.136	22169
883.262	21945
883.388	22017
883.514	22074
883.64	22070
883.766	22032
883.892	21907
884.018	21895
884.143	22025
884.269	22105
884.395	21755
884.52	21625
884.646	21603
884.772	21686
884.897	21618
885.023	21732
885.148	21804
885.274	21762
885.399	21835
885.524	21637
885.65	21781
885.775	21755
885.9	21614
886.025	21804
886.15	21861
886.275	21705
886.4	21663
886.525	21572
886.65	21557
886.775	21679
886.9	21816
887.025	21907
887.149	21603
887.274	21637
887.399	21530
887.523	21485
887.648	21359
887.773	21454
887.897	21454
888.021	21610
888.146	21424
888.27	21641
888.395	21610
888.519	21428
888.643	21424
888.767	21477
888.891	21325
889.015	21283
889.139	21230
889.263	21222
889.387	21336
889.511	21485
889.635	21275
889.759	21325
889.883	21233
890.006	21249
890.13	21466
890.254	21192
890.377	21188
890.501	21169
890.624	20982
890.748	20967
890.871	21009
890.995	20838
891.118	20727
891.241	20941
891.364	20838
891.488	20986
891.611	20819
891.734	20754
891.857	20952
891.98	20899
892.103	20823
892.226	20834
892.349	20693
892.471	20686
892.594	20727
892.717	20876
892.839	20689
892.962	20743
893.085	20697
893.207	20568
893.33	20697
893.452	20590
893.575	20697
893.697	20701
893.819	20845
893.941	20941
894.064	20910
894.186	20644
894.308	20720
894.43	20910
894.552	20811
894.674	20705
894.796	20568
894.918	20705
895.04	20708
895.161	20910
895.283	20830
895.405	20743
895.526	20678
895.648	20735
895.769	20739
895.891	20644
896.012	20731
896.134	20773
896.255	20678
896.376	20682
896.498	20682
896.619	20754
896.74	20735
896.861	20781
896.982	20925
897.103	21157
897.224	20990
897.345	20921
897.466	20830
897.587	20914
897.708	21017
897.828	20990
897.949	20948
898.07	20682
898.19	20842
898.311	20990
898.431	20765
898.552	20971
898.672	20971
898.792	20998
898.913	20880
899.033	20781
899.153	20697
899.273	20457
899.393	20724
899.513	20670
899.633	20678
899.753	20697
899.873	20594
899.993	20712
900.113	20590
900.232	20545
900.352	20336
900.472	20533
900.591	20415
900.711	20389
900.83	20301
900.95	20629
901.069	20530
901.189	20313
901.308	20111
901.427	19944
901.546	20020
901.665	20065
901.784	20024
901.904	19864
902.023	19811
902.141	19605
902.26	19620
902.379	19594
902.498	19533
902.617	19339
902.735	19495
902.854	19544
902.973	19422
903.091	19194
903.21	19179
903.328	19198
903.446	19095
903.565	18943
903.683	18913
903.801	18829
903.919	18985
904.038	18947
904.156	18734
904.274	18772
904.392	18738
904.51	18623
904.627	18726
904.745	18734
904.863	18779
904.981	18521
905.098	18460
905.216	18334
905.334	18448
905.451	18422
905.569	18502
905.686	18429
905.803	18365
905.921	18136
906.038	18228
906.155	18243
906.272	18155
906.389	18133
906.506	18041
906.623	18019
906.74	17950
906.857	17851
906.974	17855
907.091	17992
907.208	17999
907.324	17980
907.441	17863
907.557	17668
907.674	17665
907.79	17604
907.907	17566
908.023	17619
908.139	17668
908.256	17554
908.372	17471
908.488	17615
908.604	17452
908.72	17395
908.836	17330
908.952	17242
909.068	17334
909.184	17417
909.3	17341
909.415	17334
909.531	17360
909.647	17094
909.762	17071
909.878	17083
909.993	17094
910.108	17048
910.224	16976
910.339	17010
910.454	16873
910.57	16915
910.685	16763
910.8	17083
910.915	16980
911.03	16869
911.145	16675
911.259	16592
911.374	16596
911.489	16596
911.604	16432
911.718	16413
911.833	16386
911.947	16390
912.062	16112
912.176	16470
912.291	16417
912.405	16337
912.519	16584
912.633	16554
912.748	16421
912.862	16356
912.976	16181
913.09	16188
913.204	16128
913.318	16158
913.431	16188
913.545	16325
913.659	16322
913.772	16105
913.886	15945
914	16010
914.113	15979
914.226	16040
914.34	16002
914.453	15770
914.566	16029
914.68	15831
914.793	15720
914.906	15637
915.019	15534
915.132	15496
915.245	15622
915.358	15466
915.47	15675
915.583	15591
915.696	15656
915.809	15694
915.921	15690
916.034	15492
916.146	15462
916.259	15462
916.371	15568
916.483	15454
916.595	15412
916.708	15382
916.82	15336
916.932	15462
917.044	15348
917.156	15321
917.268	15211
917.38	15184
917.491	15188
917.603	15119
917.715	15351
917.826	15203
917.938	15119
918.049	15127
918.161	15192
918.272	15416
918.384	15268
918.495	15093
918.606	15047
918.717	14982
918.828	14929
918.939	15020
919.05	14819
919.161	14971
919.272	14796
919.383	14754
919.494	14986
919.604	15173
919.715	14971
919.826	14868
919.936	14921
920.047	15013
920.157	14967
920.267	15104
920.378	14963
920.488	14861
920.598	15070
920.708	15180
920.818	15032
920.928	15119
921.038	15180
921.148	15135
921.258	14929
921.368	14815
921.477	14743
921.587	14739
921.697	14594
921.806	14705
921.916	14492
922.025	14400
922.134	14278
922.244	14278
922.353	14412
922.462	14172
922.571	14103
922.68	13936
922.789	13913
922.898	13978
923.007	13883
923.116	13989
923.224	13955
923.333	14039
923.442	13776
923.55	13795
923.659	13807
923.767	13837
923.876	13700
923.984	13776
924.092	13651
924.201	13704
924.309	13643
924.417	13727
924.525	13658
924.633	13674
924.741	14526
924.849	13396
924.956	13533
925.064	13472
925.172	13206
925.279	13392
925.387	13396
925.494	13430
925.602	13445
925.709	13449
925.816	13331
925.924	13316
926.031	13403
926.138	13304
926.245	13362
926.352	13187
926.459	13263
926.566	13327
926.673	13259
926.779	13114
926.886	13114
926.993	12973
927.099	12928
927.206	12897
927.312	12840
927.419	12890
927.525	12909
927.631	12973
927.737	12791
927.843	12730
927.95	12620
928.056	12783
928.162	12757
928.267	12700
928.373	13278
928.479	12768
928.585	12494
928.69	12719
928.796	12665
928.901	12627
929.007	12483
929.112	12544
929.218	12452
929.323	12433
929.428	12433
929.533	12642
929.638	12330
929.743	12376
929.848	12418
929.953	12448
930.058	12251
930.163	12144
930.267	12072
930.372	12289
930.477	12091
930.581	12330
930.685	12148
930.79	11927
930.894	11977
930.998	12030
931.103	12026
931.207	11771
931.311	11775
931.415	11627
931.519	11379
931.623	11379
