Data from test_V78500241_2407.txt Node
Date: Fri Mar 25 15:58:28 CST 2022
User: usil
Spectrometer: V785-0024
Trigger mode: 0
Integration Time (sec): 4.000000E-1
Scans to average: 1
Nonlinearity correction enabled: false
Boxcar width: 0
Storing dark spectrum: false
XAxis mode: Wavelengths
Number of Pixels in Spectrum: 1024
>>>>>Begin Spectral Data<<<<<
801.071	28356
801.214	28306
801.356	27991
801.499	27949
801.641	27884
801.783	27960
801.926	27930
802.068	27823
802.211	27941
802.353	27892
802.496	27732
802.638	27690
802.78	27564
802.923	27610
803.065	27542
803.208	27507
803.35	27545
803.492	27728
803.635	27747
803.777	27641
803.919	27720
804.061	27983
804.204	27747
804.346	27816
804.488	27686
804.63	27854
804.773	27736
804.915	27747
805.057	27922
805.199	27846
805.341	27899
805.483	27949
805.626	27876
805.768	27816
805.91	27827
806.052	28006
806.194	27960
806.336	28143
806.478	27972
806.62	27888
806.762	28143
806.904	28173
807.046	28557
807.188	28417
807.33	28504
807.472	28512
807.614	28268
807.756	28341
807.898	28192
808.04	28093
808.182	28147
808.324	28287
808.465	28333
808.607	28405
808.749	28535
808.891	28698
809.033	28694
809.174	28573
809.316	28580
809.458	28778
809.6	28584
809.741	28660
809.883	28831
810.025	28831
810.166	28782
810.308	28923
810.45	28797
810.591	28839
810.733	28451
810.875	28634
811.016	28500
811.158	28519
811.299	28683
811.441	28782
811.582	28820
811.724	28786
811.865	28611
812.007	28535
812.148	28596
812.29	28710
812.431	28809
812.573	29079
812.714	28968
812.855	29113
812.997	29181
813.138	29410
813.279	29330
813.421	29003
813.562	29140
813.703	28968
813.845	28843
813.986	28630
814.127	28405
814.268	28268
814.41	28280
814.551	28299
814.692	28379
814.833	28276
814.974	28314
815.115	28280
815.256	28246
815.397	28150
815.539	28200
815.68	28226
815.821	28135
815.962	28120
816.103	28128
816.244	28044
816.385	27736
816.526	28002
816.666	27736
816.807	27663
816.948	27701
817.089	27724
817.23	27610
817.371	27755
817.512	27496
817.653	27732
817.793	27580
817.934	27648
818.075	27743
818.216	27553
818.356	27671
818.497	27469
818.638	27363
818.778	27427
818.919	27294
819.06	27443
819.2	27500
819.341	27686
819.481	27648
819.622	27679
819.762	28101
819.903	27903
820.043	27880
820.184	27751
820.324	27816
820.465	27869
820.605	27762
820.746	27652
820.886	27629
821.026	27671
821.167	27694
821.307	27800
821.447	27682
821.588	27507
821.728	27447
821.868	27412
822.008	27051
822.149	27001
822.289	26960
822.429	26815
822.569	26777
822.709	26716
822.849	26579
822.99	26632
823.13	26648
823.27	26412
823.41	26317
823.55	26385
823.69	26457
823.83	26473
823.97	26507
824.11	26263
824.25	26202
824.389	26237
824.529	26408
824.669	26225
824.809	26423
824.949	26336
825.089	26339
825.228	26393
825.368	26157
825.508	26024
825.648	26027
825.787	26092
825.927	26294
826.067	26180
826.206	26229
826.346	26122
826.485	26168
826.625	26183
826.765	26214
826.904	26111
827.044	25959
827.183	25982
827.323	25845
827.462	25837
827.601	25959
827.741	25811
827.88	25993
828.02	25841
828.159	25864
828.298	25818
828.437	25909
828.577	25715
828.716	25974
828.855	25795
828.994	25571
829.134	25639
829.273	25445
829.412	25403
829.551	25392
829.69	25506
829.829	25712
829.968	25651
830.107	25620
830.246	25556
830.385	25491
830.524	25468
830.663	25430
830.802	25236
830.941	25038
831.08	25141
831.219	25122
831.357	25179
831.496	25381
831.635	25251
831.774	25053
831.913	25061
832.051	25042
832.19	24886
832.329	24935
832.467	24951
832.606	24814
832.744	24802
832.883	24810
833.022	24863
833.16	24840
833.299	24795
833.437	24852
833.576	24871
833.714	24935
833.852	24920
833.991	24951
834.129	25012
834.267	25008
834.406	24859
834.544	24935
834.682	24932
834.821	25015
834.959	25023
835.097	24928
835.235	25088
835.373	24897
835.511	24924
835.65	24798
835.788	24802
835.926	24585
836.064	24509
836.202	24650
836.34	24734
836.478	24791
836.615	24635
836.753	24802
836.891	24730
837.029	24802
837.167	24738
837.305	24681
837.443	24399
837.58	24502
837.718	24559
837.856	24521
837.993	24498
838.131	24536
838.269	24380
838.406	24315
838.544	24338
838.681	24140
838.819	24174
838.956	24045
839.094	23965
839.231	24049
839.369	24053
839.506	24448
839.643	24273
839.781	24026
839.918	24018
840.055	23984
840.193	24007
840.33	23980
840.467	24026
840.604	24057
840.742	24205
840.879	23832
841.016	23775
841.153	23741
841.29	23946
841.427	23836
841.564	23988
841.701	23870
841.838	23889
841.975	23870
842.112	23805
842.249	23813
842.385	23646
842.522	23935
842.659	23737
842.796	23630
842.933	23657
843.069	23630
843.206	23611
843.343	23726
843.479	23771
843.616	23699
843.752	23531
843.889	23444
844.025	23695
844.162	23512
844.298	23512
844.435	23383
844.571	23459
844.708	23501
844.844	23676
844.98	23566
845.117	23512
845.253	23345
845.389	23277
845.525	23353
845.661	23391
845.798	23246
845.934	23261
846.07	23121
846.206	23159
846.342	23493
846.478	23155
846.614	22923
846.75	22790
846.886	23067
847.022	22908
847.158	22923
847.294	22824
847.429	22904
847.565	22835
847.701	23113
847.837	22626
847.972	22554
848.108	22672
848.244	22645
848.379	22523
848.515	22462
848.65	22341
848.786	22466
848.921	22451
849.057	22672
849.192	22584
849.328	22474
849.463	22512
849.598	22478
849.734	22325
849.869	22299
850.004	22219
850.14	22291
850.275	22234
850.41	22287
850.545	22238
850.68	22230
850.815	22386
850.95	22238
851.085	22447
851.22	22402
851.355	22402
851.49	22207
851.625	22363
851.76	22143
851.895	22120
852.03	22185
852.165	22348
852.299	22314
852.434	22341
852.569	22287
852.703	22207
852.838	22337
852.973	22436
853.107	22371
853.242	22226
853.376	22067
853.511	21922
853.645	22017
853.78	22177
853.914	22059
854.048	22116
854.183	21998
854.317	22124
854.451	22310
854.585	22120
854.72	21968
854.854	22086
854.988	22010
855.122	22105
855.256	21930
855.39	22082
855.524	22112
855.658	22105
855.792	22025
855.926	22116
856.06	22166
856.194	22169
856.327	22044
856.461	22059
856.595	21972
856.729	22109
856.862	22040
856.996	21991
857.13	22173
857.263	22238
857.397	22287
857.53	21991
857.664	22128
857.797	22150
857.931	22211
858.064	22112
858.197	22234
858.331	22070
858.464	21983
858.597	21827
858.731	22055
858.864	22032
858.997	21979
859.13	22105
859.263	22116
859.396	22223
859.529	22025
859.662	21953
859.795	22109
859.928	22101
860.061	22257
860.194	22325
860.327	22101
860.46	22124
860.592	22169
860.725	22265
860.858	22249
860.99	22013
861.123	22070
861.256	21949
861.388	22135
861.521	22850
861.653	21846
861.786	21907
861.918	21937
862.05	21949
862.183	22017
862.315	21949
862.447	22059
862.58	21949
862.712	21755
862.844	21705
862.976	21774
863.108	21812
863.24	22223
863.372	21709
863.504	21789
863.636	21720
863.768	21812
863.9	21804
864.032	21705
864.164	21728
864.296	21895
864.428	21800
864.559	21770
864.691	21972
864.823	21785
864.954	21797
865.086	21698
865.217	21713
865.349	21583
865.48	21572
865.612	21694
865.743	21755
865.875	21705
866.006	21583
866.137	21701
866.269	21713
866.4	21625
866.531	21606
866.662	21549
866.793	21580
866.924	21568
867.055	21660
867.186	21549
867.317	21641
867.448	21488
867.579	21564
867.71	21523
867.841	21561
867.972	21545
868.103	21614
868.233	21713
868.364	21553
868.495	21778
868.625	21888
868.756	21930
868.886	21751
869.017	21804
869.147	21911
869.278	22051
869.408	21926
869.539	21880
869.669	21998
869.799	21907
869.929	22059
870.06	21926
870.19	22200
870.32	22162
870.45	22124
870.58	22249
870.71	22417
870.84	22386
870.97	22204
871.1	22268
871.23	22428
871.36	22466
871.489	22478
871.619	22379
871.749	22360
871.879	22409
872.008	22592
872.138	22272
872.267	22375
872.397	22268
872.526	22276
872.656	22188
872.785	22390
872.915	22493
873.044	22523
873.173	22390
873.303	22402
873.432	22531
873.561	22565
873.69	22390
873.819	22402
873.948	22637
874.077	22538
874.206	22421
874.335	22485
874.464	22497
874.593	22664
874.722	22626
874.851	22710
874.979	22637
875.108	22736
875.237	22645
875.365	22630
875.494	22717
875.623	22660
875.751	22573
875.88	22599
876.008	22790
876.136	22820
876.265	22965
876.393	23136
876.521	23136
876.65	23193
876.778	23090
876.906	23022
877.034	22919
877.162	23033
877.29	23060
877.418	22976
877.546	23025
877.674	23056
877.802	23136
877.93	22934
878.058	22957
878.185	22847
878.313	23010
878.441	22908
878.568	22934
878.696	22923
878.824	23025
878.951	23090
879.079	23181
879.206	23330
879.333	23292
879.461	23124
879.588	23052
879.715	23193
879.842	23337
879.97	23044
880.097	22854
880.224	22885
880.351	22854
880.478	22877
880.605	22702
880.732	22911
880.859	23052
880.986	22839
881.112	22797
881.239	22691
881.366	22519
881.493	22592
881.619	22379
881.746	22390
881.872	22466
881.999	22390
882.125	22367
882.252	22584
882.378	22318
882.505	22508
882.631	22188
882.757	22143
882.883	22196
883.01	22162
883.136	21994
883.262	21994
883.388	21819
883.514	22181
883.64	22093
883.766	22097
883.892	21945
884.018	21907
884.143	22067
884.269	22036
884.395	21774
884.52	21762
884.646	21705
884.772	21675
884.897	21591
885.023	21663
885.148	21854
885.274	21903
885.399	21812
885.524	21736
885.65	21705
885.775	21709
885.9	21709
886.025	21789
886.15	21694
886.275	21629
886.4	21561
886.525	21717
886.65	21675
886.775	21686
886.9	21835
887.025	22006
887.149	21686
887.274	21553
887.399	21507
887.523	21534
887.648	21462
887.773	21367
887.897	21545
888.021	21549
888.146	21325
888.27	21488
888.395	21599
888.519	21405
888.643	21439
888.767	21496
888.891	21241
889.015	21351
889.139	21370
889.263	21268
889.387	21275
889.511	21401
889.635	21386
889.759	21294
889.883	21233
890.006	21131
890.13	21359
890.254	21222
890.377	21207
890.501	21131
890.624	20902
890.748	21173
890.871	20887
890.995	20815
891.118	20830
891.241	20849
891.364	20895
891.488	20994
891.611	20819
891.734	20853
891.857	20975
891.98	20887
892.103	20838
892.226	20792
892.349	20754
892.471	20621
892.594	20636
892.717	20754
892.839	20609
892.962	20644
893.085	20773
893.207	20663
893.33	20613
893.452	20689
893.575	20804
893.697	20758
893.819	20902
893.941	20811
894.064	20826
894.186	20640
894.308	20750
894.43	20880
894.552	20864
894.674	20868
894.796	20739
894.918	20739
895.04	20621
895.161	20781
895.283	20674
895.405	20735
895.526	20815
895.648	20750
895.769	20804
895.891	20716
896.012	20838
896.134	20712
896.255	20712
896.376	20632
896.498	20655
896.619	20697
896.74	20785
896.861	20762
896.982	20979
897.103	21116
897.224	20998
897.345	21051
897.466	20929
897.587	20986
897.708	20918
897.828	20918
897.949	20944
898.07	20743
898.19	20811
898.311	21085
898.431	20845
898.552	21009
898.672	20982
898.792	20891
898.913	20880
899.033	20819
899.153	20678
899.273	20514
899.393	20708
899.513	20712
899.633	20720
899.753	20670
899.873	20594
899.993	20663
900.113	20587
900.232	20629
900.352	20598
900.472	20473
900.591	20351
900.711	20377
900.83	20347
900.95	20560
901.069	20507
901.189	20339
901.308	20012
901.427	20035
901.546	20001
901.665	20103
901.784	20065
901.904	19860
902.023	19814
902.141	19666
902.26	19544
902.379	19708
902.498	19548
902.617	19422
902.735	19407
902.854	19415
902.973	19506
903.091	19259
903.21	19133
903.328	19190
903.446	19012
903.565	18970
903.683	19050
903.801	18837
903.919	18878
904.038	18924
904.156	18779
904.274	18837
904.392	18692
904.51	18738
904.627	18821
904.745	18856
904.863	18787
904.981	18578
905.098	18365
905.216	18407
905.334	18540
905.451	18346
905.569	18490
905.686	18437
905.803	18376
905.921	18216
906.038	18369
906.155	18258
906.272	18072
906.389	18159
906.506	17992
906.623	18019
906.74	17901
906.857	17904
906.974	17824
907.091	17954
907.208	18083
907.324	18057
907.441	17737
907.557	17832
907.674	17611
907.79	17490
907.907	17581
908.023	17646
908.139	17551
908.256	17524
908.372	17581
908.488	17505
908.604	17436
908.72	17364
908.836	17444
908.952	17326
909.068	17414
909.184	17520
909.3	17345
909.415	17406
909.531	17406
909.647	17155
909.762	17132
909.878	17117
909.993	17121
910.108	16972
910.224	17018
910.339	17025
910.454	16911
910.57	16877
910.685	16816
910.8	17029
910.915	17033
911.03	16839
911.145	16691
911.259	16675
911.374	16611
911.489	16516
911.604	16451
911.718	16428
911.833	16443
911.947	16341
912.062	16341
912.176	16455
912.291	16382
912.405	16367
912.519	16660
912.633	16538
912.748	16360
912.862	16325
912.976	16268
913.09	16131
913.204	16211
913.318	16207
913.431	16226
913.545	16192
913.659	16352
913.772	16131
913.886	15884
914	15972
914.113	16162
914.226	16120
914.34	16013
914.453	15755
914.566	16040
914.68	15819
914.793	15785
914.906	15705
915.019	15443
915.132	15473
915.245	15504
915.358	15599
915.47	15561
915.583	15580
915.696	15534
915.809	15663
915.921	15701
916.034	15408
916.146	15412
916.259	15485
916.371	15576
916.483	15466
916.595	15431
916.708	15405
916.82	15439
916.932	15378
917.044	15313
917.156	15279
917.268	15279
917.38	15291
917.491	15237
917.603	15142
917.715	15291
917.826	15245
917.938	15138
918.049	15081
918.161	15260
918.272	15268
918.384	15264
918.495	15077
918.606	14857
918.717	14906
918.828	15066
918.939	14998
919.05	14883
919.161	14971
919.272	14739
919.383	14758
919.494	15062
919.604	15150
919.715	14872
919.826	14921
919.936	14891
920.047	15013
920.157	14914
920.267	15119
920.378	14975
920.488	14834
920.598	15036
920.708	15188
920.818	15077
920.928	15062
921.038	15214
921.148	15089
921.258	14849
921.368	14769
921.477	14720
921.587	14648
921.697	14533
921.806	14739
921.916	14476
922.025	14336
922.134	14286
922.244	14290
922.353	14301
922.462	14138
922.571	13989
922.68	13978
922.789	13906
922.898	14020
923.007	13856
923.116	13894
923.224	13841
923.333	13875
923.442	13841
923.55	13746
923.659	13731
923.767	13875
923.876	13643
923.984	13788
924.092	13655
924.201	13715
924.309	13757
924.417	13696
924.525	13605
924.633	13666
924.741	14256
924.849	13308
924.956	13506
925.064	13377
925.172	13297
925.279	13369
925.387	13362
925.494	13285
925.602	13419
925.709	13301
925.816	13168
925.924	13274
926.031	13308
926.138	13259
926.245	13354
926.352	13126
926.459	13255
926.566	13327
926.673	13114
926.779	13103
926.886	13171
926.993	12882
927.099	12905
927.206	12825
927.312	12821
927.419	12878
927.525	12863
927.631	12875
927.737	12779
927.843	12753
927.95	12642
928.056	12726
928.162	12753
928.267	12757
928.373	13419
928.479	12726
928.585	12490
928.69	12597
928.796	12688
928.901	12627
929.007	12422
929.112	12601
929.218	12498
929.323	12475
929.428	12388
929.533	12608
929.638	12323
929.743	12350
929.848	12342
929.953	12410
930.058	12292
930.163	12083
930.267	12079
930.372	12289
930.477	12045
930.581	12273
930.685	12155
930.79	11965
930.894	11992
930.998	11942
931.103	12083
931.207	11657
931.311	11573
931.415	11524
931.519	11372
931.623	11337
