Data from test_V78500241_2281.txt Node
Date: Fri Mar 25 15:57:36 CST 2022
User: usil
Spectrometer: V785-0024
Trigger mode: 0
Integration Time (sec): 4.000000E-1
Scans to average: 1
Nonlinearity correction enabled: false
Boxcar width: 0
Storing dark spectrum: false
XAxis mode: Wavelengths
Number of Pixels in Spectrum: 1024
>>>>>Begin Spectral Data<<<<<
801.071	29086
801.214	29041
801.356	28763
801.499	28927
801.641	28630
801.783	28721
801.926	28790
802.068	28702
802.211	28649
802.353	28687
802.496	28367
802.638	28462
802.78	28318
802.923	28337
803.065	28242
803.208	28268
803.35	28455
803.492	28470
803.635	28584
803.777	28535
803.919	28710
804.061	28892
804.204	28694
804.346	28603
804.488	28550
804.63	28694
804.773	28447
804.915	28641
805.057	28672
805.199	28736
805.341	28824
805.483	28755
805.626	28744
805.768	28736
805.91	28812
806.052	28828
806.194	28755
806.336	29041
806.478	28778
806.62	28869
806.762	28927
806.904	29060
807.046	29368
807.188	29166
807.33	29337
807.472	29360
807.614	29242
807.756	29227
807.898	29052
808.04	29083
808.182	29022
808.324	29113
808.465	29064
808.607	29372
808.749	29547
808.891	29714
809.033	29687
809.174	29653
809.316	29554
809.458	29543
809.6	29558
809.741	29722
809.883	29646
810.025	29737
810.166	29786
810.308	29733
810.45	29710
810.591	29615
810.733	29562
810.875	29528
811.016	29471
811.158	29406
811.299	29665
811.441	29585
811.582	29733
811.724	29501
811.865	29539
812.007	29608
812.148	29440
812.29	29630
812.431	29771
812.573	29802
812.714	29977
812.855	30015
812.997	30163
813.138	30292
813.279	30186
813.421	30083
813.562	30011
813.703	30091
813.845	29866
813.986	29585
814.127	29269
814.268	29353
814.41	29280
814.551	29254
814.692	29379
814.833	29235
814.974	29204
815.115	29250
815.256	29212
815.397	29162
815.539	29155
815.68	29208
815.821	29064
815.962	29159
816.103	29140
816.244	28957
816.385	28934
816.526	28869
816.666	28550
816.807	28637
816.948	28698
817.089	28675
817.23	28603
817.371	28675
817.512	28577
817.653	28538
817.793	28538
817.934	28626
818.075	28622
818.216	28713
818.356	28561
818.497	28466
818.638	28352
818.778	28459
818.919	28436
819.06	28382
819.2	28573
819.341	28413
819.481	28672
819.622	28713
819.762	29052
819.903	28900
820.043	28862
820.184	28938
820.324	28755
820.465	28774
820.605	28683
820.746	28736
820.886	28626
821.026	28698
821.167	28664
821.307	28679
821.447	28573
821.588	28577
821.728	28470
821.868	28310
822.008	28120
822.149	28086
822.289	27991
822.429	27876
822.569	27778
822.709	27846
822.849	27660
822.99	27561
823.13	27576
823.27	27595
823.41	27386
823.55	27321
823.69	27424
823.83	27386
823.97	27374
824.11	27207
824.25	27237
824.389	27207
824.529	27374
824.669	27256
824.809	27416
824.949	27332
825.089	27321
825.228	27195
825.368	27119
825.508	27085
825.648	27123
825.787	27157
825.927	27241
826.067	27180
826.206	26948
826.346	27055
826.485	27154
826.625	27135
826.765	27233
826.904	27169
827.044	26944
827.183	26918
827.323	26830
827.462	26834
827.601	26933
827.741	26811
827.88	26864
828.02	26689
828.159	26887
828.298	26758
828.437	26929
828.577	26735
828.716	26796
828.855	26609
828.994	26450
829.134	26560
829.273	26514
829.412	26442
829.551	26526
829.69	26541
829.829	26457
829.968	26587
830.107	26617
830.246	26564
830.385	26427
830.524	26579
830.663	26374
830.802	26157
830.941	26107
831.08	26065
831.219	26256
831.357	26240
831.496	26305
831.635	26115
831.774	26107
831.913	26069
832.051	25959
832.19	25898
832.329	25963
832.467	25814
832.606	25822
832.744	25689
832.883	25753
833.022	25723
833.16	25807
833.299	25928
833.437	25784
833.576	25860
833.714	25772
833.852	25830
833.991	25830
834.129	25871
834.267	25978
834.406	25921
834.544	25883
834.682	25955
834.821	25780
834.959	26043
835.097	25788
835.235	25837
835.373	25742
835.511	25811
835.65	25620
835.788	25780
835.926	25670
836.064	25464
836.202	25578
836.34	25723
836.478	25761
836.615	25552
836.753	25791
836.891	25674
837.029	25578
837.167	25685
837.305	25491
837.443	25533
837.58	25518
837.718	25495
837.856	25415
837.993	25460
838.131	25339
838.269	25278
838.406	25316
838.544	25266
838.681	25145
838.819	25076
838.956	25069
839.094	25038
839.231	25019
839.369	25156
839.506	25407
839.643	25320
839.781	25031
839.918	24905
840.055	25012
840.193	25015
840.33	24856
840.467	24977
840.604	24863
840.742	25042
840.879	24783
841.016	24711
841.153	24726
841.29	24935
841.427	24840
841.564	24700
841.701	24837
841.838	24798
841.975	24745
842.112	24795
842.249	24601
842.385	24669
842.522	24760
842.659	24669
842.796	24540
842.933	24544
843.069	24593
843.206	24391
843.343	24646
843.479	24601
843.616	24700
843.752	24270
843.889	24429
844.025	24414
844.162	24281
844.298	24532
844.435	24422
844.571	24369
844.708	24563
844.844	24559
844.98	24437
845.117	24490
845.253	24330
845.389	24315
845.525	24243
845.661	24311
845.798	24140
845.934	24224
846.07	24026
846.206	24114
846.342	24216
846.478	24007
846.614	23950
846.75	23851
846.886	23790
847.022	23931
847.158	23901
847.294	23988
847.429	23840
847.565	23961
847.701	23996
847.837	23619
847.972	23471
848.108	23627
848.244	23512
848.379	23512
848.515	23311
848.65	23406
848.786	23478
848.921	23516
849.057	23528
849.192	23429
849.328	23376
849.463	23387
849.598	23360
849.734	23292
849.869	23208
850.004	23044
850.14	23227
850.275	23204
850.41	23025
850.545	23193
850.68	23022
850.815	23200
850.95	23147
851.085	23330
851.22	23178
851.355	23178
851.49	23170
851.625	23147
851.76	23189
851.895	23094
852.03	23064
852.165	23132
852.299	23033
852.434	23330
852.569	23151
852.703	23208
852.838	23170
852.973	23292
853.107	23261
853.242	23250
853.376	23090
853.511	22995
853.645	23071
853.78	23155
853.914	22984
854.048	23010
854.183	23113
854.317	22999
854.451	23246
854.585	22915
854.72	22980
854.854	23083
854.988	23041
855.122	23048
855.256	22790
855.39	23060
855.524	22911
855.658	23083
855.792	22972
855.926	22991
856.06	23003
856.194	23181
856.327	23018
856.461	22797
856.595	22972
856.729	22896
856.862	23044
856.996	23018
857.13	23056
857.263	23105
857.397	23041
857.53	22972
857.664	23041
857.797	22999
857.931	23044
858.064	23010
858.197	23105
858.331	23006
858.464	22961
858.597	22904
858.731	22797
858.864	22869
858.997	22953
859.13	22927
859.263	22930
859.396	23056
859.529	22965
859.662	22904
859.795	22934
859.928	22949
860.061	23204
860.194	23151
860.327	23159
860.46	22999
860.592	23147
860.725	23143
860.858	23121
860.99	22953
861.123	22934
861.256	22976
861.388	22927
861.521	23691
861.653	22793
861.786	22710
861.918	22801
862.05	22831
862.183	22889
862.315	22984
862.447	22930
862.58	22847
862.712	22615
862.844	22687
862.976	22774
863.108	22733
863.24	23098
863.372	22683
863.504	22740
863.636	22664
863.768	22790
863.9	22816
864.032	22668
864.164	22653
864.296	22850
864.428	22831
864.559	22793
864.691	22691
864.823	22626
864.954	22519
865.086	22569
865.217	22538
865.349	22527
865.48	22565
865.612	22462
865.743	22744
865.875	22611
866.006	22447
866.137	22512
866.269	22706
866.4	22577
866.531	22535
866.662	22519
866.793	22375
866.924	22546
867.055	22592
867.186	22630
867.317	22538
867.448	22360
867.579	22443
867.71	22459
867.841	22451
867.972	22523
868.103	22375
868.233	22527
868.364	22493
868.495	22584
868.625	22660
868.756	22809
868.886	22736
869.017	22717
869.147	22843
869.278	22672
869.408	22778
869.539	22653
869.669	22736
869.799	22706
869.929	22805
870.06	22713
870.19	22911
870.32	23048
870.45	23204
870.58	23208
870.71	23189
870.84	23235
870.97	23128
871.1	23071
871.23	23303
871.36	23277
871.489	23235
871.619	23261
871.749	23353
871.879	23372
872.008	23455
872.138	23265
872.267	23254
872.397	23303
872.526	23121
872.656	23136
872.785	23105
872.915	23280
873.044	23459
873.173	23318
873.303	23292
873.432	23490
873.561	23379
873.69	23315
873.819	23474
873.948	23417
874.077	23318
874.206	23395
874.335	23372
874.464	23543
874.593	23376
874.722	23482
874.851	23729
874.979	23524
875.108	23623
875.237	23573
875.365	23531
875.494	23501
875.623	23726
875.751	23543
875.88	23592
876.008	23893
876.136	23733
876.265	23980
876.393	24102
876.521	23996
876.65	24045
876.778	23980
876.906	23920
877.034	23863
877.162	23939
877.29	23832
877.418	23893
877.546	23954
877.674	23916
877.802	23977
877.93	23889
878.058	23859
878.185	23668
878.313	23840
878.441	23901
878.568	23592
878.696	23874
878.824	23923
878.951	24007
879.079	24079
879.206	24171
879.333	24030
879.461	23939
879.588	24015
879.715	24015
879.842	24258
879.97	23942
880.097	23657
880.224	23733
880.351	23798
880.478	23737
880.605	23699
880.732	23722
880.859	23847
880.986	23775
881.112	23710
881.239	23630
881.366	23421
881.493	23387
881.619	23406
881.746	23448
881.872	23433
881.999	23204
882.125	23220
882.252	23326
882.378	23193
882.505	23337
882.631	23090
882.757	22862
882.883	23075
883.01	22881
883.136	22965
883.262	22854
883.388	22801
883.514	22900
883.64	23048
883.766	22828
883.892	22687
884.018	22725
884.143	22949
884.269	22881
884.395	22641
884.52	22455
884.646	22626
884.772	22500
884.897	22409
885.023	22489
885.148	22618
885.274	22816
885.399	22580
885.524	22542
885.65	22592
885.775	22557
885.9	22443
886.025	22668
886.15	22717
886.275	22596
886.4	22485
886.525	22584
886.65	22478
886.775	22535
886.9	22653
887.025	22862
887.149	22508
887.274	22356
887.399	22382
887.523	22440
887.648	22363
887.773	22181
887.897	22352
888.021	22405
888.146	22143
888.27	22348
888.395	22398
888.519	22413
888.643	22386
888.767	22371
888.891	22314
889.015	22173
889.139	22109
889.263	22131
889.387	22192
889.511	22215
889.635	22188
889.759	22169
889.883	22063
890.006	22021
890.13	22124
890.254	21991
890.377	22112
890.501	21941
890.624	21781
890.748	21789
890.871	21766
890.995	21625
891.118	21587
891.241	21709
891.364	21614
891.488	21759
891.611	21713
891.734	21690
891.857	21652
891.98	21610
892.103	21614
892.226	21686
892.349	21580
892.471	21462
892.594	21614
892.717	21641
892.839	21675
892.962	21625
893.085	21583
893.207	21530
893.33	21507
893.452	21466
893.575	21557
893.697	21545
893.819	21751
893.941	21724
894.064	21671
894.186	21443
894.308	21450
894.43	21572
894.552	21663
894.674	21572
894.796	21519
894.918	21485
895.04	21462
895.161	21572
895.283	21515
895.405	21351
895.526	21549
895.648	21576
895.769	21633
895.891	21538
896.012	21507
896.134	21462
896.255	21507
896.376	21515
896.498	21534
896.619	21515
896.74	21488
896.861	21553
896.982	21762
897.103	21857
897.224	21816
897.345	21816
897.466	21648
897.587	21739
897.708	21876
897.828	21778
897.949	21656
898.07	21473
898.19	21568
898.311	21762
898.431	21690
898.552	21762
898.672	21819
898.792	21709
898.913	21709
899.033	21542
899.153	21488
899.273	21412
899.393	21519
899.513	21450
899.633	21492
899.753	21458
899.873	21351
899.993	21488
900.113	21313
900.232	21355
900.352	21325
900.472	21283
900.591	21074
900.711	21252
900.83	21214
900.95	21169
901.069	21291
901.189	21036
901.308	20769
901.427	20823
901.546	20712
901.665	20693
901.784	20750
901.904	20457
902.023	20518
902.141	20324
902.26	20309
902.379	20271
902.498	20298
902.617	20187
902.735	20278
902.854	20107
902.973	20191
903.091	19921
903.21	19833
903.328	19932
903.446	19791
903.565	19674
903.683	19746
903.801	19552
903.919	19624
904.038	19639
904.156	19384
904.274	19506
904.392	19369
904.51	19453
904.627	19453
904.745	19445
904.863	19594
904.981	19278
905.098	19122
905.216	19084
905.334	19095
905.451	19152
905.569	19084
905.686	19206
905.803	19027
905.921	18962
906.038	18966
906.155	18977
906.272	18783
906.389	18825
906.506	18741
906.623	18677
906.74	18639
906.857	18506
906.974	18513
907.091	18703
907.208	18768
907.324	18669
907.441	18597
907.557	18433
907.674	18171
907.79	18330
907.907	18334
908.023	18277
908.139	18330
908.256	18273
908.372	18232
908.488	18220
908.604	18003
908.72	17996
908.836	17980
908.952	18007
909.068	18110
909.184	18182
909.3	18102
909.415	18091
909.531	18011
909.647	17764
909.762	17748
909.878	17748
909.993	17760
910.108	17665
910.224	17756
910.339	17775
910.454	17543
910.57	17547
910.685	17452
910.8	17741
910.915	17611
911.03	17486
911.145	17341
911.259	17269
911.374	17280
911.489	17269
911.604	17212
911.718	16927
911.833	17060
911.947	16938
912.062	16896
912.176	17166
912.291	17090
912.405	17064
912.519	17242
912.633	17155
912.748	17109
912.862	17113
912.976	16961
913.09	16748
913.204	16748
913.318	16755
913.431	16930
913.545	16930
913.659	16881
913.772	16694
913.886	16752
914	16649
914.113	16755
914.226	16801
914.34	16687
914.453	16390
914.566	16580
914.68	16421
914.793	16424
914.906	16284
915.019	16143
915.132	16219
915.245	16234
915.358	16219
915.47	16265
915.583	16196
915.696	16219
915.809	16325
915.921	16303
916.034	16120
916.146	16093
916.259	16048
916.371	16177
916.483	16093
916.595	16090
916.708	16044
916.82	16086
916.932	15903
917.044	16006
917.156	15793
917.268	15869
917.38	15823
917.491	15816
917.603	15838
917.715	15876
917.826	15895
917.938	15720
918.049	15641
918.161	15755
918.272	15926
918.384	15880
918.495	15770
918.606	15675
918.717	15511
918.828	15648
918.939	15622
919.05	15370
919.161	15591
919.272	15313
919.383	15317
919.494	15511
919.604	15641
919.715	15629
919.826	15420
919.936	15443
920.047	15690
920.157	15526
920.267	15637
920.378	15439
920.488	15477
920.598	15644
920.708	15812
920.818	15690
920.928	15637
921.038	15823
921.148	15793
921.258	15466
921.368	15355
921.477	15298
921.587	15180
921.697	15116
921.806	15226
921.916	15039
922.025	14948
922.134	14823
922.244	14769
922.353	14883
922.462	14785
922.571	14689
922.68	14533
922.789	14507
922.898	14495
923.007	14412
923.116	14492
923.224	14473
923.333	14385
923.442	14385
923.55	14332
923.659	14229
923.767	14343
923.876	14202
923.984	14229
924.092	14191
924.201	14233
924.309	14176
924.417	14157
924.525	14096
924.633	14119
924.741	15108
924.849	13894
924.956	13963
925.064	13909
925.172	13818
925.279	13875
925.387	13849
925.494	13830
925.602	13951
925.709	13826
925.816	13776
925.924	13696
926.031	13887
926.138	13723
926.245	13784
926.352	13723
926.459	13769
926.566	13845
926.673	13708
926.779	13632
926.886	13590
926.993	13403
927.099	13339
927.206	13301
927.312	13304
927.419	13438
927.525	13358
927.631	13369
927.737	13274
927.843	13072
927.95	13076
928.056	13213
928.162	13152
928.267	13225
928.373	13898
928.479	13266
928.585	13034
928.69	13080
928.796	13164
928.901	12932
929.007	12844
929.112	13065
929.218	12905
929.323	12882
929.428	12932
929.533	12981
929.638	12783
929.743	12856
929.848	12821
929.953	12856
930.058	12730
930.163	12601
930.267	12566
930.372	12608
930.477	12525
930.581	12726
930.685	12574
930.79	12460
930.894	12471
930.998	12452
931.103	12475
931.207	12175
931.311	12133
931.415	11927
931.519	11737
931.623	11745
