Data from test_V78500241_3364.txt Node
Date: Fri Mar 25 16:05:06 CST 2022
User: usil
Spectrometer: V785-0024
Trigger mode: 0
Integration Time (sec): 4.000000E-1
Scans to average: 1
Nonlinearity correction enabled: false
Boxcar width: 0
Storing dark spectrum: false
XAxis mode: Wavelengths
Number of Pixels in Spectrum: 1024
>>>>>Begin Spectral Data<<<<<
801.071	28835
801.214	28687
801.356	28596
801.499	28386
801.641	28356
801.783	28440
801.926	28455
802.068	28436
802.211	28230
802.353	28322
802.496	28158
802.638	28116
802.78	28162
802.923	28013
803.065	27975
803.208	28044
803.35	28063
803.492	28143
803.635	28382
803.777	28181
803.919	28417
804.061	28645
804.204	28299
804.346	28223
804.488	28268
804.63	28234
804.773	28284
804.915	28360
805.057	28443
805.199	28322
805.341	28413
805.483	28516
805.626	28603
805.768	28424
805.91	28485
806.052	28565
806.194	28500
806.336	28656
806.478	28455
806.62	28516
806.762	28721
806.904	28774
807.046	29231
807.188	28946
807.33	28999
807.472	29060
807.614	28862
807.756	28911
807.898	28866
808.04	28755
808.182	28805
808.324	28812
808.465	28999
808.607	29185
808.749	29166
808.891	29280
809.033	29337
809.174	29353
809.316	29109
809.458	29307
809.6	29204
809.741	29356
809.883	29429
810.025	29360
810.166	29573
810.308	29467
810.45	29543
810.591	29318
810.733	29258
810.875	29254
811.016	29151
811.158	29155
811.299	29181
811.441	29474
811.582	29455
811.724	29341
811.865	29109
812.007	29216
812.148	29105
812.29	29178
812.431	29387
812.573	29608
812.714	29642
812.855	29764
812.997	29851
813.138	30174
813.279	29813
813.421	29714
813.562	29463
813.703	29649
813.845	29436
813.986	29284
814.127	29143
814.268	28755
814.41	29025
814.551	28942
814.692	29006
814.833	28965
814.974	28831
815.115	29025
815.256	28763
815.397	28748
815.539	28877
815.68	28736
815.821	28637
815.962	28839
816.103	28755
816.244	28615
816.385	28618
816.526	28481
816.666	28329
816.807	28128
816.948	28386
817.089	28348
817.23	28462
817.371	28322
817.512	28230
817.653	28166
817.793	28162
817.934	28287
818.075	28398
818.216	28192
818.356	28181
818.497	28143
818.638	27941
818.778	27983
818.919	28051
819.06	28154
819.2	28101
819.341	28272
819.481	28223
819.622	28390
819.762	28573
819.903	28504
820.043	28622
820.184	28333
820.324	28322
820.465	28424
820.605	28337
820.746	28299
820.886	28192
821.026	28462
821.167	28367
821.307	28341
821.447	28337
821.588	28181
821.728	28139
821.868	27831
822.008	27747
822.149	27842
822.289	27671
822.429	27507
822.569	27469
822.709	27450
822.849	27222
822.99	27226
823.13	27310
823.27	27249
823.41	27047
823.55	26883
823.69	27195
823.83	27169
823.97	27119
824.11	26952
824.25	26929
824.389	26826
824.529	26880
824.669	27009
824.809	27017
824.949	26944
825.089	27123
825.228	26982
825.368	26785
825.508	26682
825.648	26857
825.787	26811
825.927	26777
826.067	26864
826.206	26682
826.346	26895
826.485	26777
826.625	26819
826.765	26876
826.904	26781
827.044	26655
827.183	26659
827.323	26575
827.462	26606
827.601	26541
827.741	26412
827.88	26636
828.02	26427
828.159	26511
828.298	26560
828.437	26499
828.577	26457
828.716	26545
828.855	26469
828.994	26252
829.134	26134
829.273	26263
829.412	26229
829.551	26035
829.69	26134
829.829	26081
829.968	26248
830.107	26336
830.246	26294
830.385	26164
830.524	26111
830.663	26039
830.802	25909
830.941	25803
831.08	25898
831.219	25951
831.357	25826
831.496	25978
831.635	25761
831.774	25731
831.913	25769
832.051	25571
832.19	25518
832.329	25521
832.467	25426
832.606	25430
832.744	25354
832.883	25590
833.022	25422
833.16	25400
833.299	25571
833.437	25533
833.576	25590
833.714	25567
833.852	25578
833.991	25552
834.129	25635
834.267	25552
834.406	25460
834.544	25525
834.682	25594
834.821	25476
834.959	25628
835.097	25445
835.235	25514
835.373	25373
835.511	25476
835.65	25563
835.788	25415
835.926	25198
836.064	25217
836.202	25175
836.34	25324
836.478	25438
836.615	25354
836.753	25388
836.891	25381
837.029	25415
837.167	25384
837.305	25297
837.443	25365
837.58	25152
837.718	25339
837.856	25179
837.993	25046
838.131	25141
838.269	25069
838.406	25103
838.544	25175
838.681	24821
838.819	24787
838.956	24604
839.094	24585
839.231	24700
839.369	24760
839.506	25023
839.643	24825
839.781	24707
839.918	24513
840.055	24745
840.193	24703
840.33	24532
840.467	24532
840.604	24597
840.742	24837
840.879	24308
841.016	24452
841.153	24429
841.29	24601
841.427	24544
841.564	24559
841.701	24502
841.838	24433
841.975	24353
842.112	24460
842.249	24342
842.385	24334
842.522	24582
842.659	24426
842.796	24311
842.933	24353
843.069	24171
843.206	24224
843.343	24327
843.479	24327
843.616	24452
843.752	24057
843.889	24098
844.025	24125
844.162	24133
844.298	24133
844.435	23931
844.571	24045
844.708	24125
844.844	24178
844.98	24220
845.117	24171
845.253	23980
845.389	23973
845.525	23958
845.661	23870
845.798	23927
845.934	23752
846.07	23817
846.206	23859
846.342	23893
846.478	23748
846.614	23630
846.75	23406
846.886	23509
847.022	23619
847.158	23570
847.294	23471
847.429	23634
847.565	23471
847.701	23729
847.837	23277
847.972	23288
848.108	23383
848.244	23269
848.379	23159
848.515	23159
848.65	23090
848.786	23075
848.921	23147
849.057	23117
849.192	23185
849.328	23174
849.463	23128
849.598	23037
849.734	23044
849.869	23014
850.004	22957
850.14	22835
850.275	23086
850.41	22767
850.545	22835
850.68	22793
850.815	22919
850.95	22812
851.085	23052
851.22	23060
851.355	22889
851.49	22900
851.625	22896
851.76	22786
851.895	22767
852.03	22919
852.165	22820
852.299	22984
852.434	22896
852.569	22942
852.703	22923
852.838	23014
852.973	23098
853.107	22923
853.242	22797
853.376	22774
853.511	22573
853.645	22736
853.78	22778
853.914	22771
854.048	22725
854.183	22736
854.317	22862
854.451	22881
854.585	22847
854.72	22713
854.854	22672
854.988	22634
855.122	22679
855.256	22523
855.39	22645
855.524	22866
855.658	22729
855.792	22660
855.926	22668
856.06	22694
856.194	22755
856.327	22717
856.461	22653
856.595	22542
856.729	22675
856.862	22797
856.996	22637
857.13	22721
857.263	22733
857.397	22816
857.53	22687
857.664	22801
857.797	22793
857.931	22805
858.064	22634
858.197	22752
858.331	22668
858.464	22706
858.597	22527
858.731	22679
858.864	22645
858.997	22687
859.13	22694
859.263	22672
859.396	22721
859.529	22786
859.662	22599
859.795	22637
859.928	22668
860.061	22759
860.194	22904
860.327	22889
860.46	22729
860.592	22793
860.725	22858
860.858	22873
860.99	22733
861.123	22725
861.256	22656
861.388	22683
861.521	23429
861.653	22508
861.786	22474
861.918	22603
862.05	22519
862.183	22637
862.315	22664
862.447	22740
862.58	22649
862.712	22405
862.844	22398
862.976	22577
863.108	22451
863.24	22877
863.372	22363
863.504	22371
863.636	22390
863.768	22375
863.9	22386
864.032	22382
864.164	22363
864.296	22325
864.428	22451
864.559	22462
864.691	22577
864.823	22390
864.954	22341
865.086	22249
865.217	22166
865.349	22154
865.48	22314
865.612	22344
865.743	22318
865.875	22257
866.006	22207
866.137	22341
866.269	22303
866.4	22215
866.531	22280
866.662	22280
866.793	22306
866.924	22124
867.055	22249
867.186	22314
867.317	22181
867.448	22242
867.579	22109
867.71	22196
867.841	22086
867.972	22192
868.103	22238
868.233	22249
868.364	22169
868.495	22253
868.625	22455
868.756	22474
868.886	22280
869.017	22341
869.147	22557
869.278	22535
869.408	22462
869.539	22470
869.669	22519
869.799	22683
869.929	22630
870.06	22489
870.19	22839
870.32	22740
870.45	22820
870.58	22752
870.71	22972
870.84	22866
870.97	22736
871.1	22889
871.23	23014
871.36	23044
871.489	22968
871.619	22965
871.749	23033
871.879	23041
872.008	23151
872.138	23079
872.267	23155
872.397	22908
872.526	22869
872.656	22896
872.785	22915
872.915	23041
873.044	23216
873.173	23029
873.303	23067
873.432	23064
873.561	23208
873.69	23037
873.819	23098
873.948	23109
874.077	23113
874.206	23151
874.335	23140
874.464	23109
874.593	23185
874.722	23208
874.851	23364
874.979	23349
875.108	23296
875.237	23200
875.365	23208
875.494	23337
875.623	23341
875.751	23162
875.88	23227
876.008	23345
876.136	23455
876.265	23623
876.393	23775
876.521	23699
876.65	23672
876.778	23752
876.906	23649
877.034	23600
877.162	23779
877.29	23665
877.418	23646
877.546	23596
877.674	23570
877.802	23653
877.93	23592
878.058	23649
878.185	23341
878.313	23509
878.441	23520
878.568	23467
878.696	23596
878.824	23600
878.951	23589
879.079	23756
879.206	23878
879.333	23741
879.461	23695
879.588	23680
879.715	23752
879.842	23885
879.97	23649
880.097	23402
880.224	23474
880.351	23516
880.478	23398
880.605	23497
880.732	23436
880.859	23783
880.986	23433
881.112	23391
881.239	23307
881.366	23162
881.493	23094
881.619	22915
881.746	23041
881.872	22980
881.999	22987
882.125	22976
882.252	23056
882.378	22911
882.505	23079
882.631	22759
882.757	22721
882.883	22774
883.01	22679
883.136	22618
883.262	22607
883.388	22447
883.514	22786
883.64	22580
883.766	22508
883.892	22447
884.018	22508
884.143	22622
884.269	22717
884.395	22295
884.52	22303
884.646	22478
884.772	22192
884.897	22322
885.023	22310
885.148	22440
885.274	22402
885.399	22303
885.524	22253
885.65	22318
885.775	22276
885.9	22234
886.025	22398
886.15	22402
886.275	22265
886.4	22295
886.525	22226
886.65	22348
886.775	22143
886.9	22348
887.025	22474
887.149	22257
887.274	22154
887.399	22044
887.523	22093
887.648	22067
887.773	21960
887.897	22139
888.021	22128
888.146	22017
888.27	22082
888.395	22169
888.519	22086
888.643	22082
888.767	22010
888.891	21983
889.015	21991
889.139	21846
889.263	21800
889.387	21960
889.511	22036
889.635	21953
889.759	21888
889.883	21819
890.006	21823
890.13	22010
890.254	21797
890.377	21652
890.501	21720
890.624	21587
890.748	21595
890.871	21408
890.995	21408
891.118	21291
891.241	21526
891.364	21477
891.488	21545
891.611	21256
891.734	21367
891.857	21401
891.98	21397
892.103	21416
892.226	21264
892.349	21207
892.471	21150
892.594	21340
892.717	21393
892.839	21245
892.962	21329
893.085	21386
893.207	21332
893.33	21173
893.452	21157
893.575	21393
893.697	21241
893.819	21359
893.941	21519
894.064	21291
894.186	21184
894.308	21230
894.43	21393
894.552	21412
894.674	21321
894.796	21176
894.918	21306
895.04	21188
895.161	21294
895.283	21272
895.405	21260
895.526	21279
895.648	21222
895.769	21237
895.891	21317
896.012	21374
896.134	21249
896.255	21226
896.376	21157
896.498	21146
896.619	21192
896.74	21188
896.861	21298
896.982	21675
897.103	21724
897.224	21515
897.345	21454
897.466	21256
897.587	21511
897.708	21561
897.828	21374
897.949	21306
898.07	21233
898.19	21439
898.311	21405
898.431	21233
898.552	21412
898.672	21500
898.792	21477
898.913	21363
899.033	21386
899.153	21260
899.273	21180
899.393	21116
899.513	21268
899.633	21180
899.753	21169
899.873	21161
899.993	21245
900.113	21074
900.232	21173
900.352	21127
900.472	21058
900.591	20864
900.711	20960
900.83	20937
900.95	21017
901.069	21081
901.189	20739
901.308	20712
901.427	20473
901.546	20537
901.665	20511
901.784	20560
901.904	20446
902.023	20282
902.141	20122
902.26	20012
902.379	20096
902.498	19947
902.617	19989
902.735	20092
902.854	20062
902.973	19925
903.091	19666
903.21	19594
903.328	19624
903.446	19571
903.565	19514
903.683	19460
903.801	19217
903.919	19419
904.038	19339
904.156	19259
904.274	19324
904.392	19213
904.51	19232
904.627	19312
904.745	19206
904.863	19221
904.981	18970
905.098	18905
905.216	18897
905.334	18848
905.451	18928
905.569	18848
905.686	18981
905.803	18920
905.921	18665
906.038	18779
906.155	18703
906.272	18654
906.389	18563
906.506	18479
906.623	18460
906.74	18380
906.857	18384
906.974	18285
907.091	18452
907.208	18540
907.324	18433
907.441	18323
907.557	18171
907.674	18194
907.79	18038
907.907	18091
908.023	18091
908.139	18133
908.256	18091
908.372	17977
908.488	17832
908.604	17904
908.72	17847
908.836	17764
908.952	17832
909.068	17805
909.184	17958
909.3	17775
909.415	17832
909.531	17783
909.647	17520
909.762	17512
909.878	17516
909.993	17600
910.108	17558
910.224	17474
910.339	17474
910.454	17299
910.57	17334
910.685	17284
910.8	17551
910.915	17372
911.03	17436
911.145	17204
911.259	17124
911.374	17121
911.489	17029
911.604	16938
911.718	16831
911.833	16934
911.947	16721
912.062	16687
912.176	16847
912.291	16858
912.405	16812
912.519	17090
912.633	16953
912.748	16866
912.862	16809
912.976	16687
913.09	16489
913.204	16603
913.318	16668
913.431	16816
913.545	16748
913.659	16809
913.772	16630
913.886	16421
914	16478
914.113	16436
914.226	16603
914.34	16470
914.453	16223
914.566	16478
914.68	16402
914.793	16261
914.906	16059
915.019	16032
915.132	15998
915.245	15949
915.358	16131
915.47	15979
915.583	16032
915.696	16006
915.809	16181
915.921	16097
916.034	15926
916.146	15960
916.259	15964
916.371	16051
916.483	15854
916.595	15930
916.708	15846
916.82	15797
916.932	15823
917.044	15857
917.156	15690
917.268	15667
917.38	15622
917.491	15542
917.603	15629
917.715	15686
917.826	15694
917.938	15561
918.049	15553
918.161	15564
918.272	15728
918.384	15561
918.495	15534
918.606	15416
918.717	15340
918.828	15408
918.939	15351
919.05	15222
919.161	15351
919.272	15127
919.383	15195
919.494	15386
919.604	15477
919.715	15275
919.826	15207
919.936	15313
920.047	15416
920.157	15321
920.267	15443
920.378	15351
920.488	15249
920.598	15435
920.708	15557
920.818	15450
920.928	15416
921.038	15622
921.148	15515
921.258	15370
921.368	15188
921.477	15039
921.587	15081
921.697	14880
921.806	15058
921.916	14849
922.025	14712
922.134	14674
922.244	14560
922.353	14621
922.462	14545
922.571	14461
922.68	14271
922.789	14298
922.898	14377
923.007	14161
923.116	14370
923.224	14290
923.333	14324
923.442	14153
923.55	14157
923.659	14149
923.767	14168
923.876	14081
923.984	14100
924.092	14050
924.201	14046
924.309	13936
924.417	14142
924.525	13982
924.633	13963
924.741	14906
924.849	13750
924.956	13860
925.064	13658
925.172	13609
925.279	13727
925.387	13693
925.494	13700
925.602	13875
925.709	13708
925.816	13613
925.924	13605
926.031	13605
926.138	13514
926.245	13632
926.352	13548
926.459	13529
926.566	13666
926.673	13396
926.779	13495
926.886	13396
926.993	13278
927.099	13278
927.206	13149
927.312	13145
927.419	13255
927.525	13228
927.631	13240
927.737	13042
927.843	13050
927.95	12920
928.056	13031
928.162	13050
928.267	13053
928.373	13677
928.479	13084
928.585	12844
928.69	12962
928.796	12958
928.901	12886
929.007	12783
929.112	12863
929.218	12837
929.323	12871
929.428	12627
929.533	12890
929.638	12696
929.743	12719
929.848	12662
929.953	12677
930.058	12563
930.163	12407
930.267	12464
930.372	12574
930.477	12448
930.581	12525
930.685	12456
930.79	12292
930.894	12300
930.998	12327
931.103	12361
931.207	11999
931.311	11931
931.415	11859
931.519	11623
931.623	11573
