Data from test_V78500241_2428.txt Node
Date: Fri Mar 25 15:58:37 CST 2022
User: usil
Spectrometer: V785-0024
Trigger mode: 0
Integration Time (sec): 4.000000E-1
Scans to average: 1
Nonlinearity correction enabled: false
Boxcar width: 0
Storing dark spectrum: false
XAxis mode: Wavelengths
Number of Pixels in Spectrum: 1024
>>>>>Begin Spectral Data<<<<<
801.071	28679
801.214	28668
801.356	28527
801.499	28325
801.641	28246
801.783	28204
801.926	28337
802.068	28166
802.211	28177
802.353	28223
802.496	28055
802.638	28040
802.78	28128
802.923	27869
803.065	27876
803.208	27812
803.35	27918
803.492	28109
803.635	28131
803.777	27972
803.919	28257
804.061	28535
804.204	28200
804.346	28063
804.488	28200
804.63	28078
804.773	28238
804.915	28382
805.057	28440
805.199	28173
805.341	28306
805.483	28329
805.626	28394
805.768	28207
805.91	28295
806.052	28322
806.194	28185
806.336	28367
806.478	28322
806.62	28348
806.762	28436
806.904	28607
807.046	28923
807.188	28820
807.33	28847
807.472	28957
807.614	28672
807.756	28793
807.898	28653
808.04	28607
808.182	28618
808.324	28569
808.465	28771
808.607	28862
808.749	29079
808.891	29128
809.033	29147
809.174	29132
809.316	29025
809.458	29022
809.6	28987
809.741	29200
809.883	29315
810.025	29379
810.166	29189
810.308	29334
810.45	29261
810.591	29216
810.733	29075
810.875	28927
811.016	28911
811.158	28938
811.299	29010
811.441	29193
811.582	29322
811.724	29033
811.865	29090
812.007	28927
812.148	29132
812.29	29079
812.431	29254
812.573	29311
812.714	29524
812.855	29554
812.997	29752
813.138	29779
813.279	29672
813.421	29520
813.562	29573
813.703	29315
813.845	29292
813.986	28938
814.127	28809
814.268	28831
814.41	28888
814.551	28721
814.692	28759
814.833	28550
814.974	28793
815.115	28862
815.256	28630
815.397	28592
815.539	28554
815.68	28592
815.821	28455
815.962	28596
816.103	28622
816.244	28569
816.385	28447
816.526	28173
816.666	28185
816.807	28059
816.948	28067
817.089	28284
817.23	28116
817.371	27983
817.512	28086
817.653	28021
817.793	27972
817.934	28036
818.075	28070
818.216	28063
818.356	28124
818.497	27812
818.638	27895
818.778	27800
818.919	27892
819.06	27903
819.2	27903
819.341	28059
819.481	27983
819.622	28223
819.762	28314
819.903	28306
820.043	28341
820.184	28234
820.324	28272
820.465	28333
820.605	28219
820.746	28265
820.886	28059
821.026	28109
821.167	28078
821.307	28173
821.447	27991
821.588	28055
821.728	27930
821.868	27713
822.008	27561
822.149	27466
822.289	27557
822.429	27321
822.569	27150
822.709	27287
822.849	27093
822.99	27047
823.13	27001
823.27	26933
823.41	26883
823.55	26720
823.69	26967
823.83	26815
823.97	26629
824.11	26781
824.25	26446
824.389	26625
824.529	26807
824.669	26796
824.809	26921
824.949	26750
825.089	26659
825.228	26823
825.368	26617
825.508	26579
825.648	26587
825.787	26602
825.927	26716
826.067	26602
826.206	26545
826.346	26556
826.485	26674
826.625	26705
826.765	26648
826.904	26712
827.044	26176
827.183	26423
827.323	26309
827.462	26408
827.601	26180
827.741	26301
827.88	26355
828.02	26168
828.159	26263
828.298	26248
828.437	26343
828.577	26252
828.716	26332
828.855	26172
828.994	25997
829.134	25883
829.273	25986
829.412	25970
829.551	25898
829.69	26050
829.829	25974
829.968	26111
830.107	26058
830.246	25906
830.385	25894
830.524	25906
830.663	25780
830.802	25734
830.941	25639
831.08	25377
831.219	25677
831.357	25719
831.496	25890
831.635	25715
831.774	25525
831.913	25407
832.051	25415
832.19	25464
832.329	25350
832.467	25339
832.606	25156
832.744	25187
832.883	25304
833.022	25072
833.16	25343
833.299	25304
833.437	25236
833.576	25362
833.714	25335
833.852	25350
833.991	25285
834.129	25438
834.267	25312
834.406	25247
834.544	25350
834.682	25411
834.821	25232
834.959	25552
835.097	25274
835.235	25396
835.373	25259
835.511	25346
835.65	25110
835.788	25114
835.926	25080
836.064	24973
836.202	24943
836.34	25076
836.478	25251
836.615	25034
836.753	25118
836.891	25145
837.029	25084
837.167	25107
837.305	25088
837.443	25038
837.58	24943
837.718	24924
837.856	25095
837.993	24768
838.131	24981
838.269	24924
838.406	24867
838.544	24791
838.681	24620
838.819	24578
838.956	24361
839.094	24433
839.231	24323
839.369	24589
839.506	24916
839.643	24684
839.781	24380
839.918	24357
840.055	24426
840.193	24471
840.33	24357
840.467	24201
840.604	24376
840.742	24498
840.879	24247
841.016	24235
841.153	24152
841.29	24479
841.427	24403
841.564	24372
841.701	24350
841.838	24426
841.975	24251
842.112	24270
842.249	24136
842.385	24133
842.522	24220
842.659	24285
842.796	24163
842.933	24133
843.069	24102
843.206	24095
843.343	24186
843.479	24182
843.616	24125
843.752	23866
843.889	23821
844.025	23939
844.162	23729
844.298	23927
844.435	23866
844.571	23771
844.708	23912
844.844	24110
844.98	24003
845.117	23946
845.253	23870
845.389	23596
845.525	23813
845.661	23726
845.798	23562
845.934	23672
846.07	23516
846.206	23665
846.342	23630
846.478	23657
846.614	23391
846.75	23242
846.886	23292
847.022	23364
847.158	23349
847.294	23364
847.429	23364
847.565	23303
847.701	23661
847.837	22991
847.972	23003
848.108	23075
848.244	23048
848.379	22930
848.515	22862
848.65	22839
848.786	23025
848.921	23029
849.057	22987
849.192	22968
849.328	22957
849.463	22965
849.598	22793
849.734	22805
849.869	22698
850.004	22531
850.14	22740
850.275	22725
850.41	22649
850.545	22679
850.68	22698
850.815	22641
850.95	22637
851.085	22755
851.22	22790
851.355	22721
851.49	22679
851.625	22615
851.76	22618
851.895	22611
852.03	22527
852.165	22733
852.299	22626
852.434	22706
852.569	22733
852.703	22713
852.838	22862
852.973	22736
853.107	22740
853.242	22713
853.376	22523
853.511	22413
853.645	22436
853.78	22649
853.914	22577
854.048	22455
854.183	22417
854.317	22538
854.451	22733
854.585	22527
854.72	22478
854.854	22554
854.988	22386
855.122	22428
855.256	22413
855.39	22489
855.524	22481
855.658	22550
855.792	22428
855.926	22656
856.06	22542
856.194	22596
856.327	22599
856.461	22417
856.595	22447
856.729	22500
856.862	22588
856.996	22527
857.13	22542
857.263	22588
857.397	22512
857.53	22451
857.664	22497
857.797	22459
857.931	22577
858.064	22500
858.197	22634
858.331	22489
858.464	22466
858.597	22455
858.731	22405
858.864	22497
858.997	22504
859.13	22474
859.263	22523
859.396	22466
859.529	22390
859.662	22523
859.795	22462
859.928	22531
860.061	22538
860.194	22816
860.327	22481
860.46	22660
860.592	22679
860.725	22630
860.858	22577
860.99	22455
861.123	22360
861.256	22409
861.388	22550
861.521	23200
861.653	22287
861.786	22238
861.918	22375
862.05	22398
862.183	22542
862.315	22455
862.447	22596
862.58	22557
862.712	22143
862.844	22185
862.976	22394
863.108	22322
863.24	22535
863.372	22246
863.504	22223
863.636	22196
863.768	22246
863.9	22219
864.032	22105
864.164	22219
864.296	22150
864.428	22265
864.559	22303
864.691	22196
864.823	22105
864.954	22177
865.086	22147
865.217	22097
865.349	22051
865.48	22135
865.612	21964
865.743	22158
865.875	22074
866.006	22124
866.137	22097
866.269	22021
866.4	22013
866.531	21941
866.662	22086
866.793	22029
866.924	22036
867.055	22093
867.186	22048
867.317	21884
867.448	21781
867.579	21911
867.71	21972
867.841	21987
867.972	22105
868.103	21994
868.233	21998
868.364	22048
868.495	22124
868.625	22226
868.756	22390
868.886	22067
869.017	22147
869.147	22360
869.278	22367
869.408	22226
869.539	22226
869.669	22325
869.799	22287
869.929	22451
870.06	22352
870.19	22565
870.32	22554
870.45	22470
870.58	22474
870.71	22740
870.84	22828
870.97	22656
871.1	22615
871.23	22755
871.36	22869
871.489	22752
871.619	22816
871.749	22763
871.879	22953
872.008	22938
872.138	22862
872.267	22831
872.397	22687
872.526	22538
872.656	22656
872.785	22592
872.915	22900
873.044	22850
873.173	22862
873.303	22946
873.432	22892
873.561	22976
873.69	22790
873.819	22873
873.948	22850
874.077	22961
874.206	22812
874.335	22809
874.464	22957
874.593	23121
874.722	22976
874.851	23166
874.979	23071
875.108	23124
875.237	23037
875.365	22881
875.494	23044
875.623	23162
875.751	23083
875.88	23014
876.008	23162
876.136	23193
876.265	23414
876.393	23634
876.521	23459
876.65	23558
876.778	23459
876.906	23440
877.034	23311
877.162	23433
877.29	23467
877.418	23509
877.546	23349
877.674	23322
877.802	23383
877.93	23345
878.058	23444
878.185	23307
878.313	23368
878.441	23318
878.568	23170
878.696	23307
878.824	23512
878.951	23570
879.079	23509
879.206	23684
879.333	23539
879.461	23490
879.588	23490
879.715	23497
879.842	23703
879.97	23395
880.097	23140
880.224	23299
880.351	23296
880.478	23250
880.605	23162
880.732	23292
880.859	23444
880.986	23299
881.112	23250
881.239	23140
881.366	22991
881.493	22824
881.619	22816
881.746	22866
881.872	22847
881.999	22774
882.125	22778
882.252	22911
882.378	22786
882.505	22854
882.631	22577
882.757	22535
882.883	22565
883.01	22531
883.136	22417
883.262	22257
883.388	22348
883.514	22287
883.64	22474
883.766	22402
883.892	22280
884.018	22242
884.143	22363
884.269	22523
884.395	22287
884.52	22150
884.646	22211
884.772	21994
884.897	21934
885.023	22181
885.148	22158
885.274	22242
885.399	22177
885.524	22169
885.65	22086
885.775	22154
885.9	22032
886.025	22135
886.15	22124
886.275	22063
886.4	22131
886.525	22025
886.65	22032
886.775	21945
886.9	22226
887.025	22276
887.149	22036
887.274	21922
887.399	21850
887.523	21876
887.648	21743
887.773	21800
887.897	21937
888.021	21956
888.146	21797
888.27	21926
888.395	21915
888.519	21876
888.643	21823
888.767	21945
888.891	21759
889.015	21663
889.139	21625
889.263	21583
889.387	21728
889.511	21888
889.635	21690
889.759	21564
889.883	21572
890.006	21618
890.13	21682
890.254	21564
890.377	21557
890.501	21458
890.624	21477
890.748	21462
890.871	21325
890.995	21287
891.118	21001
891.241	21146
891.364	21233
891.488	21348
891.611	21287
891.734	21184
891.857	21161
891.98	21214
892.103	21294
892.226	21127
892.349	21169
892.471	21024
892.594	21100
892.717	21104
892.839	21066
892.962	21039
893.085	21203
893.207	21112
893.33	21055
893.452	21161
893.575	21230
893.697	20994
893.819	21256
893.941	21313
894.064	21192
894.186	21077
894.308	20929
894.43	21142
894.552	21150
894.674	21207
894.796	21024
894.918	21074
895.04	21058
895.161	21165
895.283	21024
895.405	20933
895.526	21100
895.648	21096
895.769	21100
895.891	21051
896.012	21096
896.134	21077
896.255	21085
896.376	20902
896.498	21020
896.619	21108
896.74	20982
896.861	21070
896.982	21340
897.103	21534
897.224	21298
897.345	21268
897.466	21138
897.587	21298
897.708	21488
897.828	21329
897.949	21154
898.07	21169
898.19	21188
898.311	21180
898.431	21157
898.552	21195
898.672	21374
898.792	21252
898.913	21313
899.033	21180
899.153	21123
899.273	20887
899.393	21013
899.513	21051
899.633	20960
899.753	21096
899.873	20956
899.993	21013
900.113	20952
900.232	20986
900.352	20815
900.472	20781
900.591	20891
900.711	20750
900.83	20758
900.95	20864
901.069	20944
901.189	20701
901.308	20404
901.427	20339
901.546	20309
901.665	20324
901.784	20366
901.904	20153
902.023	20111
902.141	19997
902.26	19936
902.379	19921
902.498	19803
902.617	19807
902.735	19898
902.854	19898
902.973	19753
903.091	19567
903.21	19518
903.328	19544
903.446	19358
903.565	19362
903.683	19247
903.801	19232
903.919	19365
904.038	19270
904.156	19076
904.274	19015
904.392	19053
904.51	18981
904.627	18947
904.745	19148
904.863	19053
904.981	18795
905.098	18745
905.216	18802
905.334	18783
905.451	18692
905.569	18738
905.686	18791
905.803	18715
905.921	18486
906.038	18616
906.155	18521
906.272	18460
906.389	18456
906.506	18304
906.623	18285
906.74	18258
906.857	18186
906.974	18186
907.091	18277
907.208	18308
907.324	18163
907.441	18152
907.557	17999
907.674	17935
907.79	17908
907.907	17996
908.023	17992
908.139	17912
908.256	17950
908.372	17767
908.488	17832
908.604	17699
908.72	17543
908.836	17585
908.952	17619
909.068	17619
909.184	17756
909.3	17627
909.415	17745
909.531	17585
909.647	17414
909.762	17455
909.878	17296
909.993	17258
910.108	17292
910.224	17356
910.339	17341
910.454	17250
910.57	17185
910.685	17102
910.8	17368
910.915	17220
911.03	17147
911.145	16923
911.259	16847
911.374	16995
911.489	16869
911.604	16831
911.718	16668
911.833	16694
911.947	16592
912.062	16615
912.176	16755
912.291	16672
912.405	16767
912.519	16843
912.633	16839
912.748	16687
912.862	16649
912.976	16409
913.09	16409
913.204	16516
913.318	16489
913.431	16531
913.545	16656
913.659	16554
913.772	16413
913.886	16367
914	16348
914.113	16337
914.226	16371
914.34	16352
914.453	16230
914.566	16257
914.68	16150
914.793	16177
914.906	15968
915.019	15930
915.132	15781
915.245	15812
915.358	15915
915.47	15953
915.583	15854
915.696	15911
915.809	15991
915.921	16025
916.034	15800
916.146	15728
916.259	15804
916.371	15823
916.483	15804
916.595	15568
916.708	15660
916.82	15667
916.932	15686
917.044	15591
917.156	15591
917.268	15507
917.38	15458
917.491	15428
917.603	15507
917.715	15568
917.826	15549
917.938	15408
918.049	15298
918.161	15447
918.272	15568
918.384	15591
918.495	15378
918.606	15272
918.717	15184
918.828	15283
918.939	15260
919.05	15116
919.161	15195
919.272	15047
919.383	15154
919.494	15241
919.604	15447
919.715	15279
919.826	15085
919.936	15207
920.047	15310
920.157	15138
920.267	15332
920.378	15154
920.488	15195
920.598	15317
920.708	15542
920.818	15363
920.928	15348
921.038	15370
921.148	15401
921.258	15176
921.368	15013
921.477	14956
921.587	14952
921.697	14731
921.806	14788
921.916	14746
922.025	14530
922.134	14514
922.244	14473
922.353	14400
922.462	14454
922.571	14393
922.68	14218
922.789	14195
922.898	14046
923.007	14142
923.116	14206
923.224	14199
923.333	14134
923.442	14027
923.55	13959
923.659	13993
923.767	14031
923.876	13967
923.984	13959
924.092	13845
924.201	13864
924.309	13940
924.417	13883
924.525	13795
924.633	13917
924.741	14499
924.849	13712
924.956	13772
925.064	13578
925.172	13422
925.279	13594
925.387	13529
925.494	13518
925.602	13662
925.709	13605
925.816	13441
925.924	13582
926.031	13495
926.138	13480
926.245	13529
926.352	13297
926.459	13506
926.566	13601
926.673	13495
926.779	13247
926.886	13304
926.993	13198
927.099	13171
927.206	13015
927.312	13095
927.419	13118
927.525	13042
927.631	13061
927.737	12954
927.843	12916
927.95	12798
928.056	12951
928.162	12954
928.267	12981
928.373	13578
928.479	12993
928.585	12760
928.69	12852
928.796	12905
928.901	12806
929.007	12707
929.112	12715
929.218	12764
929.323	12650
929.428	12521
929.533	12787
929.638	12597
929.743	12578
929.848	12536
929.953	12483
930.058	12441
930.163	12330
930.267	12330
930.372	12426
930.477	12346
930.581	12422
930.685	12350
930.79	12095
930.894	12232
930.998	12167
931.103	12254
931.207	11969
931.311	11843
931.415	11775
931.519	11619
931.623	11535
