Data from test_V78500241_255.txt Node
Date: Fri Mar 25 15:43:34 CST 2022
User: usil
Spectrometer: V785-0024
Trigger mode: 0
Integration Time (sec): 4.000000E-1
Scans to average: 1
Nonlinearity correction enabled: false
Boxcar width: 0
Storing dark spectrum: false
XAxis mode: Wavelengths
Number of Pixels in Spectrum: 1024
>>>>>Begin Spectral Data<<<<<
801.071	29874
801.214	29714
801.356	29615
801.499	29657
801.641	29406
801.783	29516
801.926	29360
802.068	29471
802.211	29417
802.353	29497
802.496	29185
802.638	29029
802.78	29227
802.923	29105
803.065	28965
803.208	29071
803.35	29048
803.492	29379
803.635	29303
803.777	29216
803.919	29360
804.061	29642
804.204	29353
804.346	29254
804.488	29143
804.63	29239
804.773	29006
804.915	29105
805.057	29311
805.199	29261
805.341	29402
805.483	29440
805.626	29280
805.768	29341
805.91	29375
806.052	29383
806.194	29398
806.336	29486
806.478	29364
806.62	29436
806.762	29486
806.904	29524
807.046	29870
807.188	29802
807.33	29862
807.472	29904
807.614	29627
807.756	29703
807.898	29649
808.04	29646
808.182	29589
808.324	29478
808.465	29718
808.607	29828
808.749	29885
808.891	30159
809.033	30060
809.174	30064
809.316	29999
809.458	30068
809.6	29859
809.741	30049
809.883	30022
810.025	30167
810.166	30235
810.308	30239
810.45	30247
810.591	30285
810.733	30136
810.875	29859
811.016	29882
811.158	29893
811.299	30038
811.441	30133
811.582	30110
811.724	30060
811.865	29946
812.007	29999
812.148	29916
812.29	30129
812.431	30178
812.573	30372
812.714	30327
812.855	30486
812.997	30585
813.138	30711
813.279	30719
813.421	30551
813.562	30486
813.703	30323
813.845	30213
813.986	29927
814.127	29741
814.268	29741
814.41	29577
814.551	29627
814.692	29775
814.833	29562
814.974	29684
815.115	29604
815.256	29452
815.397	29490
815.539	29482
815.68	29448
815.821	29417
815.962	29368
816.103	29292
816.244	29231
816.385	29277
816.526	29098
816.666	28873
816.807	28881
816.948	28946
817.089	28991
817.23	29003
817.371	28801
817.512	28858
817.653	28881
817.793	28763
817.934	28881
818.075	28854
818.216	28759
818.356	28786
818.497	28717
818.638	28542
818.778	28500
818.919	28626
819.06	28618
819.2	28763
819.341	28717
819.481	28584
819.622	28919
819.762	29079
819.903	29117
820.043	28892
820.184	29006
820.324	28877
820.465	28980
820.605	28805
820.746	28797
820.886	28904
821.026	28885
821.167	28873
821.307	28801
821.447	28847
821.588	28592
821.728	28527
821.868	28459
822.008	28344
822.149	28200
822.289	28207
822.429	27972
822.569	27823
822.709	27812
822.849	27739
822.99	27576
823.13	27629
823.27	27504
823.41	27572
823.55	27386
823.69	27557
823.83	27583
823.97	27496
824.11	27393
824.25	27351
824.389	27310
824.529	27481
824.669	27317
824.809	27534
824.949	27435
825.089	27389
825.228	27275
825.368	27127
825.508	27135
825.648	27093
825.787	27184
825.927	27275
826.067	27184
826.206	27161
826.346	27272
826.485	27237
826.625	27260
826.765	27077
826.904	27176
827.044	27036
827.183	26876
827.323	26743
827.462	26940
827.601	26845
827.741	26750
827.88	26750
828.02	26636
828.159	26762
828.298	26883
828.437	26796
828.577	26762
828.716	26902
828.855	26678
828.994	26678
829.134	26495
829.273	26587
829.412	26400
829.551	26625
829.69	26530
829.829	26537
829.968	26484
830.107	26621
830.246	26332
830.385	26431
830.524	26408
830.663	26218
830.802	26149
830.941	26046
831.08	26054
831.219	26187
831.357	26233
831.496	26237
831.635	26012
831.774	25944
831.913	25917
832.051	25849
832.19	25860
832.329	25883
832.467	25818
832.606	25738
832.744	25731
832.883	25769
833.022	25693
833.16	25635
833.299	25750
833.437	25757
833.576	25575
833.714	25811
833.852	25799
833.991	25772
834.129	25719
834.267	25845
834.406	25772
834.544	25693
834.682	25738
834.821	25685
834.959	25784
835.097	25525
835.235	25776
835.373	25594
835.511	25719
835.65	25620
835.788	25487
835.926	25499
836.064	25320
836.202	25331
836.34	25628
836.478	25582
836.615	25422
836.753	25449
836.891	25616
837.029	25571
837.167	25411
837.305	25445
837.443	25422
837.58	25263
837.718	25445
837.856	25434
837.993	25346
838.131	25415
838.269	25244
838.406	25362
838.544	25133
838.681	24913
838.819	24920
838.956	24726
839.094	24764
839.231	24795
839.369	24970
839.506	25069
839.643	24935
839.781	24677
839.918	24646
840.055	24814
840.193	24692
840.33	24673
840.467	24734
840.604	24639
840.742	24886
840.879	24555
841.016	24582
841.153	24467
841.29	24654
841.427	24555
841.564	24635
841.701	24665
841.838	24566
841.975	24574
842.112	24513
842.249	24658
842.385	24384
842.522	24677
842.659	24441
842.796	24338
842.933	24391
843.069	24296
843.206	24270
843.343	24346
843.479	24327
843.616	24323
843.752	24121
843.889	24140
844.025	24270
844.162	24072
844.298	24152
844.435	24083
844.571	24038
844.708	24235
844.844	24125
844.98	24174
845.117	24140
845.253	23939
845.389	23931
845.525	24022
845.661	23992
845.798	23748
845.934	23813
846.07	23805
846.206	23851
846.342	23965
846.478	23676
846.614	23615
846.75	23356
846.886	23516
847.022	23543
847.158	23471
847.294	23433
847.429	23528
847.565	23539
847.701	23619
847.837	23200
847.972	23280
848.108	23414
848.244	23265
848.379	23094
848.515	23003
848.65	23083
848.786	23052
848.921	23033
849.057	23162
849.192	23079
849.328	23132
849.463	23113
849.598	22980
849.734	22976
849.869	22809
850.004	22805
850.14	22729
850.275	22850
850.41	22679
850.545	22809
850.68	22744
850.815	22721
850.95	22809
851.085	23025
851.22	22862
851.355	22771
851.49	22687
851.625	22759
851.76	22755
851.895	22820
852.03	22729
852.165	22816
852.299	22942
852.434	22831
852.569	22919
852.703	22736
852.838	22809
852.973	22889
853.107	22809
853.242	22656
853.376	22653
853.511	22535
853.645	22596
853.78	22683
853.914	22733
854.048	22573
854.183	22580
854.317	22630
854.451	22748
854.585	22497
854.72	22573
854.854	22538
854.988	22481
855.122	22497
855.256	22481
855.39	22611
855.524	22649
855.658	22691
855.792	22573
855.926	22462
856.06	22630
856.194	22691
856.327	22402
856.461	22516
856.595	22466
856.729	22622
856.862	22717
856.996	22550
857.13	22622
857.263	22611
857.397	22577
857.53	22611
857.664	22660
857.797	22656
857.931	22713
858.064	22599
858.197	22702
858.331	22584
858.464	22538
858.597	22440
858.731	22447
858.864	22382
858.997	22459
859.13	22500
859.263	22447
859.396	22740
859.529	22634
859.662	22535
859.795	22474
859.928	22546
860.061	22653
860.194	22634
860.327	22580
860.46	22500
860.592	22675
860.725	22649
860.858	22584
860.99	22599
861.123	22485
861.256	22508
861.388	22565
861.521	23189
861.653	22405
861.786	22390
861.918	22344
862.05	22603
862.183	22561
862.315	22459
862.447	22535
862.58	22421
862.712	22166
862.844	22287
862.976	22413
863.108	22348
863.24	22664
863.372	22204
863.504	22162
863.636	22253
863.768	22329
863.9	22284
864.032	22207
864.164	22200
864.296	22154
864.428	22375
864.559	22272
864.691	22272
864.823	22124
864.954	22196
865.086	22131
865.217	22025
865.349	22059
865.48	22082
865.612	22158
865.743	22348
865.875	22086
866.006	22143
866.137	22173
866.269	22044
866.4	22135
866.531	22074
866.662	22051
866.793	22029
866.924	22010
867.055	22128
867.186	22029
867.317	22086
867.448	21922
867.579	22116
867.71	21823
867.841	21850
867.972	21911
868.103	21968
868.233	22078
868.364	21987
868.495	22097
868.625	22291
868.756	22348
868.886	22055
869.017	22234
869.147	22386
869.278	22356
869.408	22280
869.539	22200
869.669	22382
869.799	22310
869.929	22462
870.06	22367
870.19	22478
870.32	22440
870.45	22599
870.58	22565
870.71	22752
870.84	22713
870.97	22634
871.1	22535
871.23	22668
871.36	22713
871.489	22698
871.619	22934
871.749	22816
871.879	22976
872.008	22873
872.138	22934
872.267	22782
872.397	22755
872.526	22481
872.656	22683
872.785	22710
872.915	22862
873.044	22885
873.173	22771
873.303	22987
873.432	23041
873.561	22911
873.69	22934
873.819	22885
873.948	22911
874.077	22850
874.206	22816
874.335	22828
874.464	23018
874.593	23113
874.722	23075
874.851	23109
874.979	23003
875.108	23136
875.237	23044
875.365	22999
875.494	22991
875.623	23197
875.751	23083
875.88	23147
876.008	23178
876.136	23037
876.265	23448
876.393	23649
876.521	23547
876.65	23619
876.778	23512
876.906	23360
877.034	23307
877.162	23425
877.29	23433
877.418	23406
877.546	23368
877.674	23429
877.802	23379
877.93	23490
878.058	23235
878.185	23193
878.313	23490
878.441	23467
878.568	23250
878.696	23376
878.824	23490
878.951	23478
879.079	23589
879.206	23726
879.333	23642
879.461	23482
879.588	23436
879.715	23486
879.842	23676
879.97	23566
880.097	23174
880.224	23296
880.351	23315
880.478	23269
880.605	23235
880.732	23239
880.859	23478
880.986	23162
881.112	23269
881.239	23121
881.366	22984
881.493	22900
881.619	22740
881.746	22881
881.872	22858
881.999	22797
882.125	22771
882.252	22915
882.378	22786
882.505	22927
882.631	22664
882.757	22462
882.883	22675
883.01	22596
883.136	22363
883.262	22413
883.388	22322
883.514	22493
883.64	22580
883.766	22394
883.892	22234
884.018	22363
884.143	22386
884.269	22592
884.395	22139
884.52	22101
884.646	22101
884.772	22162
884.897	22036
885.023	22109
885.148	22169
885.274	22215
885.399	22223
885.524	22120
885.65	22109
885.775	22204
885.9	22139
886.025	22196
886.15	22257
886.275	21907
886.4	22105
886.525	22150
886.65	21922
886.775	21956
886.9	22128
887.025	22226
887.149	22211
887.274	21800
887.399	21823
887.523	21812
887.648	21884
887.773	21732
887.897	21880
888.021	21850
888.146	21823
888.27	21991
888.395	21854
888.519	21827
888.643	21873
888.767	21895
888.891	21656
889.015	21694
889.139	21747
889.263	21694
889.387	21755
889.511	21785
889.635	21736
889.759	21622
889.883	21698
890.006	21599
890.13	21663
890.254	21538
890.377	21534
890.501	21443
890.624	21317
890.748	21416
890.871	21359
890.995	21291
891.118	21214
891.241	21112
891.364	21199
891.488	21275
891.611	21214
891.734	21138
891.857	21207
891.98	21230
892.103	21176
892.226	21233
892.349	21104
892.471	21024
892.594	21055
892.717	21043
892.839	21131
892.962	20994
893.085	21188
893.207	21058
893.33	21028
893.452	20883
893.575	21112
893.697	21138
893.819	21264
893.941	21222
894.064	21310
894.186	21062
894.308	21032
894.43	21043
894.552	21203
894.674	21207
894.796	20998
894.918	21100
895.04	20921
895.161	21142
895.283	21123
895.405	20956
895.526	21058
895.648	21058
895.769	21020
895.891	21093
896.012	21077
896.134	21024
896.255	21013
896.376	20975
896.498	21275
896.619	21070
896.74	21131
896.861	21233
896.982	21496
897.103	21519
897.224	21287
897.345	21176
897.466	21195
897.587	21279
897.708	21325
897.828	21138
897.949	21245
898.07	21116
898.19	21283
898.311	21169
898.431	21329
898.552	21195
898.672	21272
898.792	21268
898.913	21146
899.033	21074
899.153	21005
899.273	20868
899.393	20872
899.513	20941
899.633	20982
899.753	21036
899.873	20811
899.993	21001
900.113	20887
900.232	20765
900.352	20819
900.472	20720
900.591	20686
900.711	20781
900.83	20613
900.95	20834
901.069	20735
901.189	20609
901.308	20412
901.427	20221
901.546	20271
901.665	20259
901.784	20374
901.904	20153
902.023	19947
902.141	19894
902.26	19845
902.379	19822
902.498	19666
902.617	19788
902.735	19833
902.854	19689
902.973	19693
903.091	19335
903.21	19422
903.328	19422
903.446	19270
903.565	19183
903.683	19171
903.801	19053
903.919	19152
904.038	19179
904.156	18958
904.274	19084
904.392	19072
904.51	19023
904.627	18871
904.745	18973
904.863	18981
904.981	18787
905.098	18608
905.216	18726
905.334	18661
905.451	18601
905.569	18612
905.686	18681
905.803	18730
905.921	18330
906.038	18620
906.155	18547
906.272	18266
906.389	18308
906.506	18136
906.623	18045
906.74	18155
906.857	18030
906.974	18083
907.091	18266
907.208	18232
907.324	18064
907.441	17999
907.557	17760
907.674	17851
907.79	17859
907.907	17764
908.023	17893
908.139	17874
908.256	17771
908.372	17752
908.488	17695
908.604	17554
908.72	17547
908.836	17486
908.952	17471
909.068	17455
909.184	17642
909.3	17528
909.415	17471
909.531	17493
909.647	17315
909.762	17197
909.878	17288
909.993	17185
910.108	17242
910.224	17174
910.339	17204
910.454	17113
910.57	16995
910.685	16938
910.8	17162
910.915	17151
911.03	16991
911.145	16866
911.259	16763
911.374	16820
911.489	16744
911.604	16668
911.718	16523
911.833	16569
911.947	16424
912.062	16382
912.176	16409
912.291	16630
912.405	16558
912.519	16687
912.633	16782
912.748	16497
912.862	16478
912.976	16261
913.09	16177
913.204	16310
913.318	16333
913.431	16455
913.545	16333
913.659	16451
913.772	16234
913.886	16185
914	16128
914.113	16135
914.226	16215
914.34	16249
914.453	15895
914.566	16032
914.68	16067
914.793	16002
914.906	15937
915.019	15739
915.132	15679
915.245	15770
915.358	15705
915.47	15690
915.583	15812
915.696	15739
915.809	15846
915.921	15819
916.034	15686
916.146	15564
916.259	15561
916.371	15717
916.483	15717
916.595	15603
916.708	15538
916.82	15534
916.932	15485
917.044	15477
917.156	15389
917.268	15310
917.38	15386
917.491	15321
917.603	15252
917.715	15416
917.826	15389
917.938	15279
918.049	15207
918.161	15294
918.272	15393
918.384	15340
918.495	15283
918.606	15108
918.717	14998
918.828	14956
918.939	15119
919.05	15001
919.161	15108
919.272	14807
919.383	14899
919.494	15051
919.604	15233
919.715	14963
919.826	14914
919.936	15055
920.047	15047
920.157	15009
920.267	15291
920.378	15009
920.488	14948
920.598	15188
920.708	15180
920.818	15157
920.928	15135
921.038	15237
921.148	15321
921.258	14963
921.368	14880
921.477	14659
921.587	14689
921.697	14537
921.806	14693
921.916	14530
922.025	14408
922.134	14301
922.244	14324
922.353	14385
922.462	14187
922.571	14183
922.68	14012
922.789	13917
922.898	13993
923.007	13807
923.116	13993
923.224	13921
923.333	13898
923.442	13887
923.55	13795
923.659	13947
923.767	13940
923.876	13780
923.984	13871
924.092	13689
924.201	13784
924.309	13693
924.417	13685
924.525	13571
924.633	13674
924.741	14442
924.849	13373
924.956	13537
925.064	13316
925.172	13297
925.279	13346
925.387	13354
925.494	13297
925.602	13476
925.709	13468
925.816	13232
925.924	13331
926.031	13312
926.138	13297
926.245	13274
926.352	13141
926.459	13365
926.566	13430
926.673	13149
926.779	13099
926.886	13050
926.993	12863
927.099	12897
927.206	12856
927.312	12844
927.419	12947
927.525	12825
927.631	12913
927.737	12760
927.843	12707
927.95	12692
928.056	12726
928.162	12711
928.267	12802
928.373	13335
928.479	12859
928.585	12597
928.69	12658
928.796	12722
928.901	12566
929.007	12429
929.112	12570
929.218	12475
929.323	12574
929.428	12342
929.533	12559
929.638	12334
929.743	12403
929.848	12448
929.953	12319
930.058	12235
930.163	12114
930.267	12121
930.372	12258
930.477	12148
930.581	12372
930.685	12148
930.79	12003
930.894	11980
930.998	12011
931.103	12098
931.207	11726
931.311	11668
931.415	11543
931.519	11379
931.623	11345
