Data from test_V78500241_1296.txt Node
Date: Fri Mar 25 15:50:46 CST 2022
User: usil
Spectrometer: V785-0024
Trigger mode: 0
Integration Time (sec): 4.000000E-1
Scans to average: 1
Nonlinearity correction enabled: false
Boxcar width: 0
Storing dark spectrum: false
XAxis mode: Wavelengths
Number of Pixels in Spectrum: 1024
>>>>>Begin Spectral Data<<<<<
801.071	28645
801.214	28504
801.356	28257
801.499	28211
801.641	28135
801.783	28128
801.926	28150
802.068	28128
802.211	28105
802.353	27846
802.496	27861
802.638	27732
802.78	27979
802.923	27762
803.065	27812
803.208	27656
803.35	27751
803.492	27991
803.635	28021
803.777	27774
803.919	27994
804.061	28413
804.204	28078
804.346	28017
804.488	27823
804.63	27930
804.773	27888
804.915	27911
805.057	28196
805.199	27968
805.341	28162
805.483	28120
805.626	28192
805.768	27903
805.91	28131
806.052	28200
806.194	28097
806.336	28325
806.478	28265
806.62	28154
806.762	28306
806.904	28348
807.046	28664
807.188	28462
807.33	28596
807.472	28675
807.614	28440
807.756	28538
807.898	28599
808.04	28268
808.182	28401
808.324	28550
808.465	28504
808.607	28675
808.749	28957
808.891	28930
809.033	28934
809.174	28976
809.316	28793
809.458	28927
809.6	28839
809.741	28957
809.883	29044
810.025	29155
810.166	29200
810.308	29143
810.45	29037
810.591	29044
810.733	28797
810.875	28919
811.016	28710
811.158	28873
811.299	29022
811.441	28980
811.582	29052
811.724	28877
811.865	28767
812.007	28934
812.148	28858
812.29	28961
812.431	28953
812.573	29193
812.714	29258
812.855	29440
812.997	29505
813.138	29657
813.279	29444
813.421	29398
813.562	29425
813.703	29200
813.845	29041
813.986	28740
814.127	28577
814.268	28519
814.41	28615
814.551	28561
814.692	28710
814.833	28645
814.974	28478
815.115	28645
815.256	28375
815.397	28352
815.539	28527
815.68	28508
815.821	28356
815.962	28352
816.103	28268
816.244	28223
816.385	28363
816.526	28032
816.666	28158
816.807	27857
816.948	27922
817.089	28021
817.23	27994
817.371	27857
817.512	27884
817.653	27975
817.793	27850
817.934	27964
818.075	27774
818.216	27987
818.356	27865
818.497	27747
818.638	27671
818.778	27701
818.919	27583
819.06	27698
819.2	27819
819.341	27888
819.481	27865
819.622	28029
819.762	28265
819.903	28055
820.043	28070
820.184	28040
820.324	27987
820.465	28158
820.605	27873
820.746	27949
820.886	27835
821.026	28082
821.167	27911
821.307	28006
821.447	27911
821.588	27903
821.728	27713
821.868	27572
822.008	27386
822.149	27500
822.289	27416
822.429	27184
822.569	26937
822.709	27096
822.849	26952
822.99	26857
823.13	26849
823.27	26739
823.41	26724
823.55	26686
823.69	26632
823.83	26777
823.97	26769
824.11	26511
824.25	26442
824.389	26549
824.529	26625
824.669	26598
824.809	26705
824.949	26564
825.089	26716
825.228	26450
825.368	26412
825.508	26575
825.648	26374
825.787	26465
825.927	26469
826.067	26294
826.206	26556
826.346	26381
826.485	26438
826.625	26377
826.765	26347
826.904	26473
827.044	26183
827.183	26195
827.323	26229
827.462	26343
827.601	26126
827.741	26081
827.88	26119
828.02	26046
828.159	26168
828.298	26134
828.437	26183
828.577	25993
828.716	26221
828.855	26054
828.994	25788
829.134	25795
829.273	25902
829.412	25757
829.551	25864
829.69	25795
829.829	25860
829.968	25814
830.107	25970
830.246	25696
830.385	25902
830.524	25655
830.663	25571
830.802	25479
830.941	25354
831.08	25354
831.219	25434
831.357	25529
831.496	25624
831.635	25453
831.774	25343
831.913	25141
832.051	25339
832.19	25358
832.329	25141
832.467	25057
832.606	25126
832.744	24989
832.883	25095
833.022	25046
833.16	25126
833.299	25152
833.437	25133
833.576	25152
833.714	25175
833.852	25202
833.991	25266
834.129	25282
834.267	25202
834.406	25080
834.544	25160
834.682	25118
834.821	25072
834.959	25270
835.097	25110
835.235	25175
835.373	25168
835.511	24992
835.65	25057
835.788	25034
835.926	24894
836.064	24764
836.202	24844
836.34	25019
836.478	25183
836.615	24935
836.753	24973
836.891	25114
837.029	24943
837.167	24932
837.305	24863
837.443	24894
837.58	24757
837.718	25015
837.856	24951
837.993	24631
838.131	24810
838.269	24738
838.406	24734
838.544	24490
838.681	24437
838.819	24429
838.956	24224
839.094	24273
839.231	24384
839.369	24418
839.506	24631
839.643	24483
839.781	24319
839.918	24205
840.055	24205
840.193	24186
840.33	24102
840.467	24182
840.604	24300
840.742	24498
840.879	23965
841.016	24030
841.153	24060
841.29	24243
841.427	24235
841.564	24057
841.701	24144
841.838	24117
841.975	24030
842.112	24159
842.249	24155
842.385	23863
842.522	24106
842.659	24060
842.796	23893
842.933	24022
843.069	23775
843.206	23809
843.343	23889
843.479	23885
843.616	23847
843.752	23710
843.889	23638
844.025	23901
844.162	23691
844.298	23684
844.435	23695
844.571	23733
844.708	23745
844.844	23916
844.98	23935
845.117	23851
845.253	23718
845.389	23600
845.525	23577
845.661	23570
845.798	23497
845.934	23509
846.07	23528
846.206	23501
846.342	23524
846.478	23379
846.614	23315
846.75	23132
846.886	23189
847.022	23322
847.158	23235
847.294	23162
847.429	23102
847.565	23250
847.701	23372
847.837	22900
847.972	22869
848.108	22953
848.244	22934
848.379	22854
848.515	22805
848.65	22752
848.786	22710
848.921	22782
849.057	22889
849.192	22858
849.328	22755
849.463	22767
849.598	22641
849.734	22679
849.869	22698
850.004	22497
850.14	22565
850.275	22557
850.41	22462
850.545	22440
850.68	22516
850.815	22542
850.95	22523
851.085	22755
851.22	22466
851.355	22588
851.49	22577
851.625	22535
851.76	22398
851.895	22402
852.03	22455
852.165	22500
852.299	22557
852.434	22603
852.569	22569
852.703	22523
852.838	22550
852.973	22634
853.107	22675
853.242	22481
853.376	22322
853.511	22284
853.645	22280
853.78	22386
853.914	22337
854.048	22337
854.183	22303
854.317	22306
854.451	22584
854.585	22280
854.72	22265
854.854	22474
854.988	22242
855.122	22386
855.256	22284
855.39	22238
855.524	22455
855.658	22360
855.792	22318
855.926	22344
856.06	22386
856.194	22337
856.327	22352
856.461	22257
856.595	22249
856.729	22261
856.862	22432
856.996	22413
857.13	22405
857.263	22493
857.397	22588
857.53	22409
857.664	22379
857.797	22386
857.931	22409
858.064	22455
858.197	22474
858.331	22314
858.464	22295
858.597	22291
858.731	22246
858.864	22196
858.997	22261
859.13	22344
859.263	22500
859.396	22398
859.529	22265
859.662	22318
859.795	22310
859.928	22303
860.061	22329
860.194	22599
860.327	22485
860.46	22375
860.592	22470
860.725	22535
860.858	22527
860.99	22371
861.123	22261
861.256	22272
861.388	22440
861.521	22908
861.653	22169
861.786	22120
861.918	22059
862.05	22105
862.183	22242
862.315	22215
862.447	22246
862.58	22291
862.712	22040
862.844	22040
862.976	22238
863.108	22112
863.24	22440
863.372	21987
863.504	22051
863.636	22078
863.768	22086
863.9	21964
864.032	22021
864.164	21979
864.296	22055
864.428	22105
864.559	22139
864.691	21975
864.823	22010
864.954	22112
865.086	21907
865.217	21911
865.349	21850
865.48	21964
865.612	21972
865.743	22070
865.875	22006
866.006	21861
866.137	21926
866.269	21827
866.4	21949
866.531	21937
866.662	21823
866.793	21785
866.924	21873
867.055	21964
867.186	21907
867.317	21827
867.448	21736
867.579	21747
867.71	21797
867.841	21808
867.972	21930
868.103	21812
868.233	21880
868.364	21873
868.495	21934
868.625	21922
868.756	22105
868.886	22017
869.017	22242
869.147	22135
869.278	22177
869.408	22116
869.539	22078
869.669	22287
869.799	22124
869.929	22310
870.06	22226
870.19	22447
870.32	22390
870.45	22405
870.58	22417
870.71	22599
870.84	22577
870.97	22360
871.1	22428
871.23	22660
871.36	22755
871.489	22573
871.619	22641
871.749	22725
871.879	22691
872.008	22637
872.138	22557
872.267	22717
872.397	22554
872.526	22417
872.656	22481
872.785	22592
872.915	22641
873.044	22740
873.173	22687
873.303	22641
873.432	22607
873.561	22672
873.69	22660
873.819	22786
873.948	22740
874.077	22679
874.206	22683
874.335	22771
874.464	22790
874.593	23029
874.722	22763
874.851	22904
874.979	22923
875.108	22957
875.237	22953
875.365	22790
875.494	22790
875.623	22858
875.751	22968
875.88	22957
876.008	23079
876.136	22961
876.265	23353
876.393	23452
876.521	23372
876.65	23440
876.778	23341
876.906	23181
877.034	23208
877.162	23235
877.29	23227
877.418	23204
877.546	23353
877.674	23318
877.802	23181
877.93	23189
878.058	23269
878.185	23090
878.313	23113
878.441	23261
878.568	23086
878.696	23102
878.824	23178
878.951	23315
879.079	23414
879.206	23471
879.333	23417
879.461	23334
879.588	23387
879.715	23341
879.842	23512
879.97	23341
880.097	23124
880.224	23056
880.351	23151
880.478	23083
880.605	23014
880.732	23136
880.859	23284
880.986	23029
881.112	23128
881.239	22927
881.366	22790
881.493	22645
881.619	22592
881.746	22569
881.872	22805
881.999	22645
882.125	22592
882.252	22611
882.378	22542
882.505	22767
882.631	22557
882.757	22398
882.883	22352
883.01	22360
883.136	22246
883.262	22211
883.388	22090
883.514	22341
883.64	22371
883.766	22246
883.892	22097
884.018	22215
884.143	22219
884.269	22402
884.395	22059
884.52	21922
884.646	21960
884.772	21850
884.897	21895
885.023	21884
885.148	22010
885.274	22078
885.399	22013
885.524	22010
885.65	21972
885.775	21983
885.9	21918
886.025	22048
886.15	22067
886.275	22051
886.4	21903
886.525	21876
886.65	21846
886.775	21892
886.9	22044
887.025	22215
887.149	21816
887.274	21778
887.399	21770
887.523	21690
887.648	21694
887.773	21447
887.897	21873
888.021	21789
888.146	21690
888.27	21747
888.395	21759
888.519	21629
888.643	21705
888.767	21846
888.891	21637
889.015	21625
889.139	21561
889.263	21447
889.387	21572
889.511	21774
889.635	21488
889.759	21454
889.883	21488
890.006	21443
890.13	21549
890.254	21317
890.377	21458
890.501	21306
890.624	21233
890.748	21325
890.871	21127
890.995	21028
891.118	21028
891.241	21104
891.364	21112
891.488	21142
891.611	21062
891.734	20925
891.857	21096
891.98	21184
892.103	21081
892.226	21131
892.349	20971
892.471	20811
892.594	21039
892.717	21036
892.839	20887
892.962	20895
893.085	20982
893.207	20948
893.33	20891
893.452	20937
893.575	20864
893.697	20857
893.819	21070
893.941	21017
894.064	20956
894.186	20826
894.308	20819
894.43	21036
894.552	21093
894.674	21032
894.796	20750
894.918	20925
895.04	20826
895.161	20941
895.283	20982
895.405	20838
895.526	20880
895.648	20929
895.769	20906
895.891	20998
896.012	21013
896.134	20883
896.255	20925
896.376	20960
896.498	20914
896.619	20834
896.74	20895
896.861	20990
896.982	21218
897.103	21374
897.224	21203
897.345	21096
897.466	21127
897.587	21199
897.708	21283
897.828	21150
897.949	21024
898.07	21058
898.19	21051
898.311	21199
898.431	21127
898.552	21199
898.672	21180
898.792	21260
898.913	21211
899.033	21093
899.153	21058
899.273	20834
899.393	20895
899.513	20891
899.633	20746
899.753	20834
899.873	20864
899.993	20891
900.113	20792
900.232	20792
900.352	20788
900.472	20640
900.591	20621
900.711	20716
900.83	20560
900.95	20629
901.069	20629
901.189	20541
901.308	20259
901.427	20294
901.546	20195
901.665	20100
901.784	20180
901.904	20050
902.023	19917
902.141	19746
902.26	19753
902.379	19799
902.498	19788
902.617	19689
902.735	19753
902.854	19658
902.973	19582
903.091	19324
903.21	19362
903.328	19350
903.446	19354
903.565	19213
903.683	19244
903.801	19023
903.919	18977
904.038	19091
904.156	19015
904.274	19046
904.392	18867
904.51	18993
904.627	18848
904.745	19076
904.863	19027
904.981	18745
905.098	18627
905.216	18627
905.334	18715
905.451	18688
905.569	18547
905.686	18700
905.803	18665
905.921	18289
906.038	18418
906.155	18407
906.272	18311
906.389	18353
906.506	18209
906.623	18228
906.74	18049
906.857	17961
906.974	18034
907.091	18190
907.208	18110
907.324	18136
907.441	17958
907.557	17954
907.674	17836
907.79	17847
907.907	17893
908.023	17923
908.139	17802
908.256	17786
908.372	17771
908.488	17756
908.604	17558
908.72	17493
908.836	17509
908.952	17524
909.068	17509
909.184	17619
909.3	17490
909.415	17482
909.531	17497
909.647	17345
909.762	17349
909.878	17223
909.993	17311
910.108	17220
910.224	17197
910.339	17075
910.454	17143
910.57	16999
910.685	16995
910.8	17212
910.915	17197
911.03	17014
911.145	16839
911.259	16805
911.374	16835
911.489	16820
911.604	16706
911.718	16584
911.833	16599
911.947	16478
912.062	16417
912.176	16573
912.291	16569
912.405	16565
912.519	16759
912.633	16729
912.748	16641
912.862	16542
912.976	16360
913.09	16261
913.204	16371
913.318	16356
913.431	16432
913.545	16405
913.659	16478
913.772	16310
913.886	16177
914	16139
914.113	16215
914.226	16234
914.34	16154
914.453	16135
914.566	16215
914.68	16067
914.793	15972
914.906	15861
915.019	15762
915.132	15629
915.245	15778
915.358	15812
915.47	15743
915.583	15800
915.696	15892
915.809	15861
915.921	15831
916.034	15690
916.146	15660
916.259	15595
916.371	15648
916.483	15568
916.595	15538
916.708	15530
916.82	15488
916.932	15523
917.044	15397
917.156	15473
917.268	15382
917.38	15473
917.491	15313
917.603	15256
917.715	15401
917.826	15549
917.938	15344
918.049	15256
918.161	15252
918.272	15386
918.384	15378
918.495	15382
918.606	15085
918.717	15100
918.828	15100
918.939	15176
919.05	14963
919.161	15131
919.272	14937
919.383	15017
919.494	15203
919.604	15249
919.715	15176
919.826	15062
919.936	15123
920.047	15180
920.157	14960
920.267	15313
920.378	15074
920.488	15051
920.598	15180
920.708	15370
920.818	15192
920.928	15218
921.038	15325
921.148	15287
921.258	14998
921.368	15001
921.477	14868
921.587	14792
921.697	14629
921.806	14781
921.916	14602
922.025	14419
922.134	14507
922.244	14317
922.353	14560
922.462	14305
922.571	14290
922.68	14092
922.789	14084
922.898	14046
923.007	14073
923.116	14092
923.224	14065
923.333	14016
923.442	13932
923.55	13928
923.659	13917
923.767	13879
923.876	13849
923.984	13917
924.092	13746
924.201	13818
924.309	13742
924.417	13799
924.525	13788
924.633	13784
924.741	14610
924.849	13521
924.956	13658
925.064	13514
925.172	13434
925.279	13441
925.387	13476
925.494	13430
925.602	13632
925.709	13540
925.816	13312
925.924	13510
926.031	13506
926.138	13354
926.245	13480
926.352	13282
926.459	13464
926.566	13514
926.673	13320
926.779	13266
926.886	13156
926.993	12973
927.099	13012
927.206	13053
927.312	12989
927.419	13076
927.525	12935
927.631	13072
927.737	12928
927.843	12764
927.95	12806
928.056	12825
928.162	12749
928.267	12913
928.373	13411
928.479	12897
928.585	12582
928.69	12814
928.796	12882
928.901	12665
929.007	12521
929.112	12650
929.218	12608
929.323	12662
929.428	12502
929.533	12639
929.638	12388
929.743	12506
929.848	12475
929.953	12441
930.058	12391
930.163	12129
930.267	12235
930.372	12380
930.477	12125
930.581	12327
930.685	12243
930.79	12133
930.894	12095
930.998	12110
931.103	12205
931.207	11809
931.311	11824
931.415	11653
931.519	11436
931.623	11532
