Data from test_V78500241_2169.txt Node
Date: Fri Mar 25 15:56:49 CST 2022
User: usil
Spectrometer: V785-0024
Trigger mode: 0
Integration Time (sec): 4.000000E-1
Scans to average: 1
Nonlinearity correction enabled: false
Boxcar width: 0
Storing dark spectrum: false
XAxis mode: Wavelengths
Number of Pixels in Spectrum: 1024
>>>>>Begin Spectral Data<<<<<
801.071	28919
801.214	28828
801.356	28516
801.499	28535
801.641	28550
801.783	28478
801.926	28577
802.068	28356
802.211	28500
802.353	28497
802.496	28223
802.638	28268
802.78	28139
802.923	28219
803.065	28074
803.208	28097
803.35	28192
803.492	28481
803.635	28512
803.777	28169
803.919	28363
804.061	28755
804.204	28592
804.346	28405
804.488	28322
804.63	28356
804.773	28299
804.915	28474
805.057	28557
805.199	28443
805.341	28569
805.483	28702
805.626	28660
805.768	28493
805.91	28691
806.052	28744
806.194	28588
806.336	28771
806.478	28546
806.62	28710
806.762	28816
806.904	28972
807.046	29064
807.188	28995
807.33	29052
807.472	29094
807.614	29075
807.756	29056
807.898	28995
808.04	28930
808.182	28831
808.324	28900
808.465	28965
808.607	29067
808.749	29231
808.891	29459
809.033	29543
809.174	29307
809.316	29227
809.458	29151
809.6	29311
809.741	29372
809.883	29436
810.025	29482
810.166	29528
810.308	29554
810.45	29653
810.591	29577
810.733	29433
810.875	29254
811.016	29296
811.158	29280
811.299	29387
811.441	29539
811.582	29501
811.724	29265
811.865	29288
812.007	29292
812.148	29417
812.29	29452
812.431	29448
812.573	29722
812.714	29790
812.855	29988
812.997	29942
813.138	30045
813.279	29980
813.421	29870
813.562	29840
813.703	29714
813.845	29562
813.986	29368
814.127	29235
814.268	29098
814.41	29128
814.551	29075
814.692	29052
814.833	29102
814.974	29010
815.115	29083
815.256	28991
815.397	28915
815.539	29003
815.68	28824
815.821	28801
815.962	28824
816.103	28892
816.244	28641
816.385	28603
816.526	28592
816.666	28413
816.807	28253
816.948	28550
817.089	28428
817.23	28314
817.371	28443
817.512	28398
817.653	28481
817.793	28436
817.934	28287
818.075	28352
818.216	28382
818.356	28154
818.497	28158
818.638	28181
818.778	28177
818.919	28162
819.06	28200
819.2	28295
819.341	28303
819.481	28325
819.622	28596
819.762	28698
819.903	28618
820.043	28592
820.184	28588
820.324	28443
820.465	28546
820.605	28478
820.746	28405
820.886	28375
821.026	28557
821.167	28451
821.307	28432
821.447	28246
821.588	28306
821.728	28246
821.868	28147
822.008	27975
822.149	27918
822.289	27751
822.429	27743
822.569	27553
822.709	27576
822.849	27386
822.99	27382
823.13	27275
823.27	27287
823.41	27157
823.55	27146
823.69	27131
823.83	27252
823.97	27112
824.11	26975
824.25	27184
824.389	27055
824.529	27173
824.669	27001
824.809	27062
824.949	27032
825.089	27009
825.228	26887
825.368	26826
825.508	26758
825.648	26960
825.787	26971
825.927	26838
826.067	26861
826.206	26861
826.346	26963
826.485	26998
826.625	26910
826.765	26948
826.904	26830
827.044	26689
827.183	26640
827.323	26492
827.462	26590
827.601	26659
827.741	26663
827.88	26701
828.02	26419
828.159	26693
828.298	26727
828.437	26617
828.577	26575
828.716	26682
828.855	26492
828.994	26347
829.134	26381
829.273	26358
829.412	26298
829.551	26358
829.69	26347
829.829	26290
829.968	26347
830.107	26244
830.246	26252
830.385	26244
830.524	26252
830.663	26020
830.802	25959
830.941	25940
831.08	25951
831.219	25989
831.357	25978
831.496	26016
831.635	25974
831.774	25769
831.913	25761
832.051	25734
832.19	25799
832.329	25643
832.467	25605
832.606	25499
832.744	25567
832.883	25605
833.022	25578
833.16	25525
833.299	25483
833.437	25658
833.576	25738
833.714	25788
833.852	25849
833.991	25712
834.129	25624
834.267	25765
834.406	25582
834.544	25753
834.682	25616
834.821	25632
834.959	25731
835.097	25685
835.235	25746
835.373	25597
835.511	25567
835.65	25472
835.788	25419
835.926	25339
836.064	25324
836.202	25354
836.34	25434
836.478	25616
836.615	25426
836.753	25441
836.891	25495
837.029	25518
837.167	25331
837.305	25343
837.443	25400
837.58	25320
837.718	25346
837.856	25316
837.993	25282
838.131	25259
838.269	25145
838.406	25168
838.544	25198
838.681	24996
838.819	24970
838.956	24719
839.094	24688
839.231	24840
839.369	24935
839.506	25129
839.643	24973
839.781	24753
839.918	24623
840.055	24745
840.193	24730
840.33	24658
840.467	24642
840.604	24700
840.742	24947
840.879	24521
841.016	24574
841.153	24684
841.29	24692
841.427	24677
841.564	24711
841.701	24688
841.838	24486
841.975	24639
842.112	24426
842.249	24502
842.385	24448
842.522	24612
842.659	24563
842.796	24361
842.933	24452
843.069	24258
843.206	24361
843.343	24422
843.479	24505
843.616	24372
843.752	24235
843.889	24304
844.025	24334
844.162	24110
844.298	24494
844.435	24235
844.571	24209
844.708	24068
844.844	24270
844.98	24361
845.117	24262
845.253	24133
845.389	24064
845.525	24026
845.661	23961
845.798	23954
845.934	23927
846.07	23893
846.206	23866
846.342	24159
846.478	23893
846.614	23821
846.75	23505
846.886	23554
847.022	23653
847.158	23619
847.294	23703
847.429	23684
847.565	23554
847.701	23912
847.837	23391
847.972	23277
848.108	23414
848.244	23398
848.379	23212
848.515	23162
848.65	23189
848.786	23284
848.921	23178
849.057	23368
849.192	23395
849.328	23353
849.463	23299
849.598	23197
849.734	23166
849.869	23041
850.004	22946
850.14	23060
850.275	23048
850.41	22850
850.545	22850
850.68	22968
850.815	23079
850.95	23048
851.085	23185
851.22	23185
851.355	22972
851.49	22946
851.625	22866
851.76	22999
851.895	22816
852.03	22869
852.165	23029
852.299	23071
852.434	23041
852.569	22953
852.703	23121
852.838	23033
852.973	23071
853.107	22938
853.242	22793
853.376	22778
853.511	22710
853.645	22869
853.78	22930
853.914	22782
854.048	22862
854.183	22831
854.317	22839
854.451	22991
854.585	22694
854.72	22790
854.854	22885
854.988	22622
855.122	22797
855.256	22713
855.39	22790
855.524	22790
855.658	22828
855.792	22710
855.926	22805
856.06	22759
856.194	22904
856.327	22763
856.461	22862
856.595	22759
856.729	22740
856.862	22961
856.996	22801
857.13	22805
857.263	22900
857.397	22965
857.53	22889
857.664	22885
857.797	22850
857.931	22866
858.064	22805
858.197	22820
858.331	22729
858.464	22645
858.597	22649
858.731	22675
858.864	22740
858.997	22767
859.13	22854
859.263	22710
859.396	22828
859.529	22717
859.662	22748
859.795	22744
859.928	22881
860.061	22942
860.194	22972
860.327	22725
860.46	22828
860.592	22889
860.725	22972
860.858	22923
860.99	22843
861.123	22664
861.256	22767
861.388	22923
861.521	23482
861.653	22653
861.786	22603
861.918	22687
862.05	22698
862.183	22717
862.315	22862
862.447	22839
862.58	22694
862.712	22478
862.844	22478
862.976	22561
863.108	22550
863.24	22968
863.372	22603
863.504	22470
863.636	22489
863.768	22428
863.9	22489
864.032	22382
864.164	22493
864.296	22436
864.428	22618
864.559	22615
864.691	22580
864.823	22542
864.954	22516
865.086	22394
865.217	22428
865.349	22436
865.48	22451
865.612	22470
865.743	22550
865.875	22363
866.006	22303
866.137	22318
866.269	22371
866.4	22417
866.531	22310
866.662	22287
866.793	22249
866.924	22204
867.055	22253
867.186	22428
867.317	22242
867.448	22249
867.579	22363
867.71	22059
867.841	22204
867.972	22363
868.103	22348
868.233	22223
868.364	22329
868.495	22485
868.625	22588
868.756	22637
868.886	22447
869.017	22607
869.147	22637
869.278	22634
869.408	22660
869.539	22512
869.669	22588
869.799	22554
869.929	22748
870.06	22596
870.19	22801
870.32	22805
870.45	22889
870.58	22987
870.71	23003
870.84	22995
870.97	22934
871.1	22900
871.23	23079
871.36	23105
871.489	23041
871.619	23079
871.749	23140
871.879	23151
872.008	23296
872.138	23155
872.267	23064
872.397	23022
872.526	23025
872.656	22858
872.785	23006
872.915	23140
873.044	23151
873.173	23200
873.303	23189
873.432	23223
873.561	23334
873.69	23246
873.819	23090
873.948	23429
874.077	23155
874.206	23143
874.335	23166
874.464	23463
874.593	23322
874.722	23471
874.851	23376
874.979	23436
875.108	23421
875.237	23402
875.365	23151
875.494	23277
875.623	23315
875.751	23417
875.88	23372
876.008	23596
876.136	23634
876.265	23760
876.393	23893
876.521	23958
876.65	23866
876.778	23695
876.906	23729
877.034	23684
877.162	23756
877.29	23691
877.418	23653
877.546	23783
877.674	23775
877.802	23798
877.93	23577
878.058	23592
878.185	23619
878.313	23589
878.441	23687
878.568	23505
878.696	23596
878.824	23661
878.951	23699
879.079	23942
879.206	23977
879.333	23843
879.461	23794
879.588	23897
879.715	23840
879.842	23893
879.97	23733
880.097	23566
880.224	23482
880.351	23566
880.478	23634
880.605	23410
880.732	23410
880.859	23817
880.986	23520
881.112	23573
881.239	23433
881.366	23083
881.493	23143
881.619	23064
881.746	23105
881.872	23086
881.999	23216
882.125	23067
882.252	23208
882.378	23086
882.505	22987
882.631	22987
882.757	22778
882.883	22839
883.01	22793
883.136	22672
883.262	22531
883.388	22538
883.514	22759
883.64	22637
883.766	22584
883.892	22462
884.018	22637
884.143	22607
884.269	22698
884.395	22398
884.52	22398
884.646	22325
884.772	22291
884.897	22322
885.023	22325
885.148	22527
885.274	22497
885.399	22485
885.524	22341
885.65	22459
885.775	22246
885.9	22405
886.025	22485
886.15	22428
886.275	22150
886.4	22116
886.525	22337
886.65	22367
886.775	22226
886.9	22375
887.025	22538
887.149	22261
887.274	22112
887.399	22116
887.523	22105
887.648	22116
887.773	22025
887.897	22223
888.021	22150
888.146	22082
888.27	22367
888.395	22230
888.519	22147
888.643	22055
888.767	22166
888.891	22051
889.015	21911
889.139	21949
889.263	21865
889.387	21979
889.511	22017
889.635	22086
889.759	21915
889.883	21972
890.006	21949
890.13	22017
890.254	21823
890.377	21812
890.501	21614
890.624	21603
890.748	21625
890.871	21492
890.995	21393
891.118	21492
891.241	21458
891.364	21530
891.488	21519
891.611	21492
891.734	21553
891.857	21523
891.98	21428
892.103	21477
892.226	21507
892.349	21397
892.471	21233
892.594	21416
892.717	21389
892.839	21329
892.962	21279
893.085	21416
893.207	21424
893.33	21161
893.452	21150
893.575	21325
893.697	21287
893.819	21523
893.941	21447
894.064	21351
894.186	21321
894.308	21344
894.43	21428
894.552	21344
894.674	21431
894.796	21192
894.918	21412
895.04	21325
895.161	21454
895.283	21336
895.405	21169
895.526	21275
895.648	21256
895.769	21260
895.891	21416
896.012	21287
896.134	21218
896.255	21294
896.376	21264
896.498	21302
896.619	21386
896.74	21287
896.861	21317
896.982	21610
897.103	21606
897.224	21534
897.345	21538
897.466	21458
897.587	21412
897.708	21682
897.828	21622
897.949	21435
898.07	21348
898.19	21325
898.311	21629
898.431	21496
898.552	21618
898.672	21606
898.792	21572
898.913	21511
899.033	21431
899.153	21329
899.273	21237
899.393	21108
899.513	21306
899.633	21256
899.753	21329
899.873	21184
899.993	21298
900.113	21214
900.232	21249
900.352	21074
900.472	21028
900.591	20956
900.711	20944
900.83	20883
900.95	21058
901.069	21127
901.189	20887
901.308	20575
901.427	20465
901.546	20583
901.665	20564
901.784	20636
901.904	20408
902.023	20336
902.141	20168
902.26	20115
902.379	20035
902.498	20142
902.617	19955
902.735	20229
902.854	20031
902.973	20016
903.091	19791
903.21	19681
903.328	19696
903.446	19647
903.565	19620
903.683	19476
903.801	19434
903.919	19563
904.038	19422
904.156	19304
904.274	19312
904.392	19213
904.51	19175
904.627	19320
904.745	19232
904.863	19308
904.981	19171
905.098	18973
905.216	19004
905.334	19008
905.451	18928
905.569	18985
905.686	18989
905.803	18935
905.921	18802
906.038	18810
906.155	18802
906.272	18661
906.389	18707
906.506	18445
906.623	18498
906.74	18452
906.857	18262
906.974	18330
907.091	18612
907.208	18620
907.324	18456
907.441	18365
907.557	18140
907.674	18163
907.79	18186
907.907	18110
908.023	18140
908.139	18148
908.256	17992
908.372	18110
908.488	18076
908.604	17866
908.72	17798
908.836	17874
908.952	17843
909.068	17824
909.184	17946
909.3	17870
909.415	17935
909.531	17779
909.647	17642
909.762	17577
909.878	17516
909.993	17535
910.108	17554
910.224	17433
910.339	17611
910.454	17383
910.57	17406
910.685	17261
910.8	17524
910.915	17551
911.03	17402
911.145	17280
911.259	17204
911.374	17128
911.489	16984
911.604	17052
911.718	16900
911.833	16938
911.947	16809
912.062	16702
912.176	16820
912.291	16908
912.405	16915
912.519	17041
912.633	17075
912.748	17022
912.862	16900
912.976	16717
913.09	16679
913.204	16771
913.318	16691
913.431	16755
913.545	16793
913.659	16744
913.772	16603
913.886	16558
914	16466
914.113	16584
914.226	16554
914.34	16485
914.453	16447
914.566	16459
914.68	16375
914.793	16303
914.906	16139
915.019	16051
915.132	16040
915.245	16120
915.358	16105
915.47	16071
915.583	16025
915.696	16067
915.809	16105
915.921	16242
916.034	15911
916.146	15861
916.259	16017
916.371	16032
916.483	15934
916.595	15873
916.708	15903
916.82	15899
916.932	15766
917.044	15751
917.156	15732
917.268	15690
917.38	15648
917.491	15641
917.603	15739
917.715	15717
917.826	15728
917.938	15591
918.049	15523
918.161	15538
918.272	15842
918.384	15648
918.495	15481
918.606	15363
918.717	15386
918.828	15359
918.939	15363
919.05	15401
919.161	15405
919.272	15218
919.383	15180
919.494	15435
919.604	15572
919.715	15416
919.826	15283
919.936	15359
920.047	15367
920.157	15374
920.267	15557
920.378	15348
920.488	15287
920.598	15408
920.708	15599
920.818	15469
920.928	15515
921.038	15637
921.148	15519
921.258	15245
921.368	15241
921.477	15062
921.587	14979
921.697	14933
921.806	15036
921.916	15017
922.025	14758
922.134	14716
922.244	14693
922.353	14739
922.462	14606
922.571	14636
922.68	14389
922.789	14282
922.898	14423
923.007	14237
923.116	14370
923.224	14328
923.333	14347
923.442	14240
923.55	14221
923.659	14218
923.767	14161
923.876	14073
923.984	14168
924.092	14062
924.201	14164
924.309	14043
924.417	13997
924.525	14039
924.633	13913
924.741	14693
924.849	13871
924.956	13944
925.064	13772
925.172	13670
925.279	13746
925.387	13731
925.494	13738
925.602	13925
925.709	13674
925.816	13559
925.924	13613
926.031	13693
926.138	13723
926.245	13616
926.352	13495
926.459	13559
926.566	13719
926.673	13636
926.779	13362
926.886	13449
926.993	13335
927.099	13320
927.206	13194
927.312	13206
927.419	13232
927.525	13209
927.631	13297
927.737	13149
927.843	13103
927.95	12962
928.056	13069
928.162	13107
928.267	13072
928.373	13700
928.479	13175
928.585	12867
928.69	12970
928.796	13114
928.901	12913
929.007	12692
929.112	12977
929.218	12920
929.323	12814
929.428	12688
929.533	12871
929.638	12764
929.743	12696
929.848	12749
929.953	12684
930.058	12627
930.163	12437
930.267	12452
930.372	12566
930.477	12384
930.581	12597
930.685	12486
930.79	12251
930.894	12289
930.998	12258
931.103	12426
931.207	12114
931.311	11897
931.415	11946
931.519	11649
931.623	11684
