Data from test_V78500241_3739.txt Node
Date: Fri Mar 25 16:07:42 CST 2022
User: usil
Spectrometer: V785-0024
Trigger mode: 0
Integration Time (sec): 4.000000E-1
Scans to average: 1
Nonlinearity correction enabled: false
Boxcar width: 0
Storing dark spectrum: false
XAxis mode: Wavelengths
Number of Pixels in Spectrum: 1024
>>>>>Begin Spectral Data<<<<<
801.071	28238
801.214	28086
801.356	28010
801.499	27895
801.641	27895
801.783	27922
801.926	27797
802.068	27808
802.211	27686
802.353	27603
802.496	27591
802.638	27561
802.78	27412
802.923	27355
803.065	27443
803.208	27443
803.35	27488
803.492	27591
803.635	27663
803.777	27606
803.919	27724
804.061	28067
804.204	27819
804.346	27595
804.488	27667
804.63	27606
804.773	27519
804.915	27724
805.057	27759
805.199	27789
805.341	27838
805.483	27812
805.626	27869
805.768	27804
805.91	27762
806.052	27914
806.194	27793
806.336	28006
806.478	27800
806.62	27827
806.762	27941
806.904	28215
807.046	28527
807.188	28242
807.33	28287
807.472	28257
807.614	28310
807.756	28272
807.898	28150
808.04	28177
808.182	28097
808.324	28299
808.465	28158
808.607	28394
808.749	28527
808.891	28565
809.033	28713
809.174	28474
809.316	28382
809.458	28470
809.6	28493
809.741	28649
809.883	28569
810.025	28748
810.166	28801
810.308	28911
810.45	28721
810.591	28664
810.733	28618
810.875	28500
811.016	28500
811.158	28371
811.299	28573
811.441	28698
811.582	28740
811.724	28519
811.865	28443
812.007	28489
812.148	28500
812.29	28618
812.431	28653
812.573	28984
812.714	28892
812.855	28995
812.997	29124
813.138	29261
813.279	29337
813.421	29052
813.562	28965
813.703	28812
813.845	28691
813.986	28466
814.127	28424
814.268	28272
814.41	28242
814.551	28177
814.692	28261
814.833	28131
814.974	28124
815.115	28192
815.256	28082
815.397	28086
815.539	28036
815.68	28078
815.821	27972
815.962	28055
816.103	28013
816.244	28010
816.385	27812
816.526	27884
816.666	27576
816.807	27526
816.948	27488
817.089	27713
817.23	27477
817.371	27477
817.512	27412
817.653	27427
817.793	27389
817.934	27595
818.075	27648
818.216	27568
818.356	27561
818.497	27416
818.638	27264
818.778	27226
818.919	27294
819.06	27241
819.2	27386
819.341	27526
819.481	27469
819.622	27652
819.762	27838
819.903	27789
820.043	27660
820.184	27622
820.324	27698
820.465	27816
820.605	27675
820.746	27625
820.886	27481
821.026	27519
821.167	27519
821.307	27728
821.447	27561
821.588	27488
821.728	27367
821.868	27093
822.008	27089
822.149	27013
822.289	26899
822.429	26895
822.569	26689
822.709	26746
822.849	26530
822.99	26415
823.13	26419
823.27	26389
823.41	26453
823.55	26309
823.69	26286
823.83	26336
823.97	26275
824.11	26062
824.25	26043
824.389	26126
824.529	26267
824.669	26115
824.809	26153
824.949	26286
825.089	26206
825.228	26191
825.368	26039
825.508	26031
825.648	26103
825.787	26092
825.927	26054
826.067	26043
826.206	26065
826.346	26062
826.485	26142
826.625	25993
826.765	26164
826.904	26168
827.044	25742
827.183	25868
827.323	25666
827.462	25746
827.601	25845
827.741	25704
827.88	25708
828.02	25620
828.159	25708
828.298	25605
828.437	25784
828.577	25719
828.716	25830
828.855	25567
828.994	25460
829.134	25457
829.273	25449
829.412	25468
829.551	25430
829.69	25403
829.829	25403
829.968	25666
830.107	25441
830.246	25392
830.385	25358
830.524	25438
830.663	25316
830.802	25179
830.941	25061
831.08	25012
831.219	25000
831.357	25164
831.496	25114
831.635	25038
831.774	24928
831.913	24886
832.051	24829
832.19	24859
832.329	24928
832.467	24677
832.606	24635
832.744	24772
832.883	24703
833.022	24684
833.16	24684
833.299	24730
833.437	24730
833.576	24726
833.714	24734
833.852	24764
833.991	24878
834.129	24894
834.267	24764
834.406	24650
834.544	24825
834.682	24886
834.821	24749
834.959	25023
835.097	24719
835.235	24871
835.373	24707
835.511	24665
835.65	24745
835.788	24681
835.926	24551
836.064	24471
836.202	24418
836.34	24525
836.478	24734
836.615	24631
836.753	24544
836.891	24555
837.029	24608
837.167	24536
837.305	24650
837.443	24391
837.58	24418
837.718	24620
837.856	24486
837.993	24388
838.131	24407
838.269	24251
838.406	24311
838.544	24186
838.681	24060
838.819	24007
838.956	23916
839.094	23935
839.231	23912
839.369	24110
839.506	24304
839.643	24133
839.781	23783
839.918	23817
840.055	23901
840.193	23965
840.33	23904
840.467	23863
840.604	23847
840.742	23961
840.879	23592
841.016	23680
841.153	23676
841.29	23904
841.427	23741
841.564	23714
841.701	23752
841.838	23722
841.975	23695
842.112	23600
842.249	23752
842.385	23562
842.522	23817
842.659	23661
842.796	23596
842.933	23573
843.069	23512
843.206	23524
843.343	23608
843.479	23665
843.616	23592
843.752	23345
843.889	23356
844.025	23391
844.162	23292
844.298	23376
844.435	23258
844.571	23444
844.708	23531
844.844	23585
844.98	23573
845.117	23444
845.253	23223
845.389	23292
845.525	23273
845.661	23246
845.798	23124
845.934	23235
846.07	23048
846.206	23048
846.342	23121
846.478	22972
846.614	22980
846.75	22820
846.886	22828
847.022	22972
847.158	22896
847.294	22793
847.429	22881
847.565	22763
847.701	23029
847.837	22542
847.972	22523
848.108	22637
848.244	22615
848.379	22447
848.515	22398
848.65	22466
848.786	22268
848.921	22474
849.057	22459
849.192	22523
849.328	22432
849.463	22356
849.598	22402
849.734	22344
849.869	22234
850.004	22211
850.14	22185
850.275	22242
850.41	22078
850.545	22006
850.68	22177
850.815	22261
850.95	22116
851.085	22257
851.22	22322
851.355	22246
851.49	22192
851.625	22192
851.76	22135
851.895	22044
852.03	21934
852.165	22200
852.299	22177
852.434	22253
852.569	22135
852.703	22063
852.838	22265
852.973	22333
853.107	22261
853.242	22120
853.376	22044
853.511	22006
853.645	21983
853.78	21979
853.914	21918
854.048	21964
854.183	22086
854.317	22002
854.451	22177
854.585	22055
854.72	22013
854.854	22067
854.988	21949
855.122	21926
855.256	22082
855.39	21998
855.524	22154
855.658	22006
855.792	22029
855.926	21968
856.06	22112
856.194	21953
856.327	21873
856.461	21934
856.595	21979
856.729	22036
856.862	22101
856.996	22078
857.13	22063
857.263	22029
857.397	21918
857.53	21972
857.664	22051
857.797	22120
857.931	22006
858.064	22048
858.197	22124
858.331	22101
858.464	21998
858.597	21800
858.731	22082
858.864	21987
858.997	21956
859.13	22059
859.263	21911
859.396	22029
859.529	21949
859.662	21873
859.795	21907
859.928	21983
860.061	22112
860.194	22131
860.327	22067
860.46	21987
860.592	22139
860.725	22112
860.858	22112
860.99	22040
861.123	21808
861.256	21930
861.388	22040
861.521	22713
861.653	21892
861.786	21774
861.918	21819
862.05	21907
862.183	21907
862.315	22055
862.447	22044
862.58	21911
862.712	21793
862.844	21572
862.976	21762
863.108	21739
863.24	22032
863.372	21667
863.504	21644
863.636	21656
863.768	21759
863.9	21496
864.032	21641
864.164	21675
864.296	21656
864.428	21778
864.559	21747
864.691	21846
864.823	21671
864.954	21755
865.086	21595
865.217	21637
865.349	21466
865.48	21633
865.612	21656
865.743	21808
865.875	21629
866.006	21591
866.137	21686
866.269	21538
866.4	21576
866.531	21542
866.662	21511
866.793	21485
866.924	21435
867.055	21572
867.186	21504
867.317	21477
867.448	21587
867.579	21458
867.71	21545
867.841	21443
867.972	21492
868.103	21610
868.233	21542
868.364	21561
868.495	21564
868.625	21724
868.756	21911
868.886	21739
869.017	21671
869.147	21880
869.278	21892
869.408	21759
869.539	21785
869.669	21835
869.799	21850
869.929	21949
870.06	21778
870.19	21979
870.32	22017
870.45	22086
870.58	22162
870.71	22135
870.84	22219
870.97	22257
871.1	22025
871.23	22481
871.36	22409
871.489	22379
871.619	22421
871.749	22413
871.879	22318
872.008	22436
872.138	22352
872.267	22348
872.397	22223
872.526	22322
872.656	22249
872.785	22128
872.915	22318
873.044	22474
873.173	22417
873.303	22527
873.432	22489
873.561	22447
873.69	22421
873.819	22379
873.948	22451
874.077	22352
874.206	22417
874.335	22493
874.464	22554
874.593	22569
874.722	22527
874.851	22592
874.979	22717
875.108	22588
875.237	22611
875.365	22421
875.494	22577
875.623	22653
875.751	22580
875.88	22611
876.008	22835
876.136	22915
876.265	22885
876.393	23159
876.521	23113
876.65	23029
876.778	22911
876.906	22919
877.034	22812
877.162	22999
877.29	22919
877.418	22919
877.546	23216
877.674	23048
877.802	22828
877.93	22987
878.058	22915
878.185	22805
878.313	22809
878.441	22885
878.568	22778
878.696	22816
878.824	22911
878.951	22995
879.079	23090
879.206	23258
879.333	23037
879.461	22919
879.588	23143
879.715	23147
879.842	23231
879.97	22999
880.097	22854
880.224	22748
880.351	22908
880.478	22710
880.605	22748
880.732	22736
880.859	23033
880.986	22831
881.112	22919
881.239	22683
881.366	22413
881.493	22443
881.619	22386
881.746	22337
881.872	22287
881.999	22200
882.125	22402
882.252	22402
882.378	22295
882.505	22360
882.631	22238
882.757	22032
882.883	22097
883.01	22139
883.136	21934
883.262	21911
883.388	21953
883.514	21972
883.64	22032
883.766	22013
883.892	21759
884.018	21911
884.143	21956
884.269	22055
884.395	21812
884.52	21507
884.646	21660
884.772	21504
884.897	21576
885.023	21709
885.148	21743
885.274	21675
885.399	21823
885.524	21690
885.65	21698
885.775	21656
885.9	21606
886.025	21819
886.15	21435
886.275	21644
886.4	21496
886.525	21637
886.65	21511
886.775	21526
886.9	21816
887.025	21804
887.149	21603
887.274	21424
887.399	21401
887.523	21511
887.648	21435
887.773	21351
887.897	21519
888.021	21428
888.146	21344
888.27	21477
888.395	21481
888.519	21420
888.643	21416
888.767	21458
888.891	21374
889.015	21176
889.139	21218
889.263	21150
889.387	21230
889.511	21481
889.635	21310
889.759	21272
889.883	21169
890.006	21275
890.13	21241
890.254	21165
890.377	21112
890.501	20956
890.624	20967
890.748	21180
890.871	21036
890.995	20785
891.118	20678
891.241	20811
891.364	20800
891.488	20918
891.611	20792
891.734	20792
891.857	20845
891.98	20792
892.103	20785
892.226	20830
892.349	20720
892.471	20613
892.594	20655
892.717	20678
892.839	20739
892.962	20727
893.085	20788
893.207	20701
893.33	20609
893.452	20598
893.575	20781
893.697	20655
893.819	20880
893.941	20921
894.064	20762
894.186	20541
894.308	20526
894.43	20758
894.552	20758
894.674	20796
894.796	20663
894.918	20750
895.04	20743
895.161	20769
895.283	20636
895.405	20556
895.526	20537
895.648	20621
895.769	20788
895.891	20746
896.012	20800
896.134	20697
896.255	20754
896.376	20598
896.498	20735
896.619	20815
896.74	20648
896.861	20705
896.982	21020
897.103	21104
897.224	20975
897.345	20830
897.466	20853
897.587	20872
897.708	21032
897.828	20845
897.949	20800
898.07	20746
898.19	20796
898.311	20963
898.431	20937
898.552	20887
898.672	20838
898.792	20906
898.913	20929
899.033	20731
899.153	20777
899.273	20632
899.393	20686
899.513	20632
899.633	20609
899.753	20587
899.873	20564
899.993	20587
900.113	20499
900.232	20476
900.352	20469
900.472	20465
900.591	20347
900.711	20427
900.83	20355
900.95	20488
901.069	20465
901.189	20271
901.308	20016
901.427	20046
901.546	19978
901.665	20008
901.784	20092
901.904	19818
902.023	19776
902.141	19499
902.26	19331
902.379	19655
902.498	19441
902.617	19476
902.735	19430
902.854	19415
902.973	19426
903.091	19190
903.21	19270
903.328	19110
903.446	19023
903.565	19110
903.683	18958
903.801	18821
903.919	18943
904.038	18852
904.156	18764
904.274	18768
904.392	18719
904.51	18616
904.627	18776
904.745	18779
904.863	18688
904.981	18471
905.098	18346
905.216	18407
905.334	18422
905.451	18426
905.569	18376
905.686	18448
905.803	18273
905.921	18057
906.038	18224
906.155	18224
906.272	18068
906.389	18136
906.506	17992
906.623	17939
906.74	17828
906.857	17786
906.974	17847
907.091	17923
907.208	17912
907.324	17950
907.441	17733
907.557	17520
907.674	17653
907.79	17630
907.907	17535
908.023	17707
908.139	17657
908.256	17532
908.372	17474
908.488	17532
908.604	17421
908.72	17200
908.836	17284
908.952	17239
909.068	17318
909.184	17425
909.3	17330
909.415	17433
909.531	17383
909.647	17064
909.762	17003
909.878	16968
909.993	16965
910.108	17083
910.224	17010
910.339	17128
910.454	16866
910.57	16873
910.685	16771
910.8	17010
910.915	16877
911.03	16892
911.145	16824
911.259	16713
911.374	16653
911.489	16550
911.604	16531
911.718	16382
911.833	16272
911.947	16306
912.062	16211
912.176	16405
912.291	16310
912.405	16432
912.519	16523
912.633	16489
912.748	16367
912.862	16390
912.976	16322
913.09	16059
913.204	16226
913.318	16173
913.431	16173
913.545	16234
913.659	16287
913.772	16044
913.886	16017
914	15869
914.113	16082
914.226	16017
914.34	16006
914.453	15816
914.566	16040
914.68	15819
914.793	15827
914.906	15557
915.019	15469
915.132	15420
915.245	15557
915.358	15515
915.47	15584
915.583	15538
915.696	15545
915.809	15644
915.921	15660
916.034	15416
916.146	15458
916.259	15458
916.371	15587
916.483	15542
916.595	15389
916.708	15344
916.82	15351
916.932	15393
917.044	15272
917.156	15302
917.268	15154
917.38	15283
917.491	15150
917.603	15245
917.715	15230
917.826	15195
917.938	15123
918.049	15032
918.161	15077
918.272	15317
918.384	15150
918.495	15112
918.606	14952
918.717	14933
918.828	14925
918.939	15062
919.05	14834
919.161	14887
919.272	14663
919.383	14716
919.494	14979
919.604	15135
919.715	14880
919.826	14804
919.936	14804
920.047	15005
920.157	14849
920.267	15028
920.378	14868
920.488	14853
920.598	14982
920.708	15074
920.818	14982
920.928	14956
921.038	15104
921.148	15081
921.258	14777
921.368	14777
921.477	14640
921.587	14564
921.697	14526
921.806	14613
921.916	14446
922.025	14252
922.134	14256
922.244	14176
922.353	14320
922.462	14149
922.571	14123
922.68	13959
922.789	13898
922.898	13955
923.007	13830
923.116	13879
923.224	13917
923.333	13940
923.442	13727
923.55	13731
923.659	13670
923.767	13811
923.876	13765
923.984	13696
924.092	13597
924.201	13616
924.309	13674
924.417	13723
924.525	13556
924.633	13559
924.741	14427
924.849	13343
924.956	13525
925.064	13369
925.172	13282
925.279	13289
925.387	13320
925.494	13365
925.602	13422
925.709	13297
925.816	13289
925.924	13244
926.031	13343
926.138	13339
926.245	13255
926.352	13187
926.459	13251
926.566	13362
926.673	13213
926.779	13000
926.886	13076
926.993	12852
927.099	12802
927.206	12791
927.312	12806
927.419	12909
927.525	12768
927.631	12825
927.737	12734
927.843	12658
927.95	12585
928.056	12677
928.162	12650
928.267	12673
928.373	13266
928.479	12730
928.585	12494
928.69	12654
928.796	12593
928.901	12532
929.007	12403
929.112	12555
929.218	12540
929.323	12338
929.428	12369
929.533	12452
929.638	12262
929.743	12372
929.848	12441
929.953	12247
930.058	12178
930.163	12079
930.267	12053
930.372	12266
930.477	12034
930.581	12262
930.685	12106
930.79	11935
930.894	11961
930.998	11878
931.103	12076
931.207	11684
931.311	11608
931.415	11459
931.519	11311
931.623	11330
