Data from test_V78500241_846.txt Node
Date: Fri Mar 25 15:47:39 CST 2022
User: usil
Spectrometer: V785-0024
Trigger mode: 0
Integration Time (sec): 4.000000E-1
Scans to average: 1
Nonlinearity correction enabled: false
Boxcar width: 0
Storing dark spectrum: false
XAxis mode: Wavelengths
Number of Pixels in Spectrum: 1024
>>>>>Begin Spectral Data<<<<<
801.071	27557
801.214	27549
801.356	27336
801.499	27264
801.641	26963
801.783	27116
801.926	27184
802.068	27154
802.211	26967
802.353	26940
802.496	26815
802.638	26815
802.78	26781
802.923	26735
803.065	26682
803.208	26731
803.35	26857
803.492	26830
803.635	26887
803.777	26712
803.919	27058
804.061	27108
804.204	27070
804.346	27047
804.488	26765
804.63	26910
804.773	26910
804.915	26967
805.057	27138
805.199	27066
805.341	27116
805.483	27081
805.626	27176
805.768	27028
805.91	27104
806.052	27096
806.194	27024
806.336	27207
806.478	27123
806.62	27100
806.762	27142
806.904	27405
807.046	27606
807.188	27488
807.33	27644
807.472	27679
807.614	27557
807.756	27515
807.898	27294
808.04	27268
808.182	27298
808.324	27378
808.465	27454
808.607	27515
808.749	27884
808.891	27846
809.033	27937
809.174	27827
809.316	27728
809.458	27812
809.6	27857
809.741	27876
809.883	27831
810.025	27983
810.166	27922
810.308	28055
810.45	27922
810.591	27918
810.733	27755
810.875	27701
811.016	27736
811.158	27774
811.299	27804
811.441	27964
811.582	27838
811.724	27755
811.865	27610
812.007	27998
812.148	27895
812.29	28006
812.431	28029
812.573	28070
812.714	28196
812.855	28310
812.997	28306
813.138	28508
813.279	28443
813.421	28341
813.562	28257
813.703	27994
813.845	27930
813.986	27781
814.127	27519
814.268	27454
814.41	27405
814.551	27359
814.692	27568
814.833	27416
814.974	27363
815.115	27408
815.256	27214
815.397	27222
815.539	27268
815.68	27119
815.821	27066
815.962	27237
816.103	27146
816.244	27211
816.385	27058
816.526	26948
816.666	26967
816.807	26663
816.948	26746
817.089	26815
817.23	26845
817.371	26792
817.512	26625
817.653	26632
817.793	26648
817.934	26670
818.075	26826
818.216	26697
818.356	26735
818.497	26488
818.638	26393
818.778	26492
818.919	26427
819.06	26606
819.2	26526
819.341	26727
819.481	26670
819.622	26781
819.762	26876
819.903	26906
820.043	26899
820.184	26853
820.324	26857
820.465	26918
820.605	26880
820.746	26883
820.886	26823
821.026	26781
821.167	26689
821.307	26826
821.447	26781
821.588	26613
821.728	26621
821.868	26290
822.008	26313
822.149	26271
822.289	26187
822.429	25993
822.569	25898
822.709	25849
822.849	25746
822.99	25658
823.13	25738
823.27	25727
823.41	25430
823.55	25270
823.69	25392
823.83	25491
823.97	25479
824.11	25274
824.25	25285
824.389	25278
824.529	25403
824.669	25316
824.809	25449
824.949	25388
825.089	25384
825.228	25377
825.368	25084
825.508	25297
825.648	25187
825.787	25228
825.927	25251
826.067	25137
826.206	25263
826.346	25236
826.485	25274
826.625	25076
826.765	25251
826.904	25384
827.044	24867
827.183	24973
827.323	24886
827.462	24962
827.601	24840
827.741	24875
827.88	25038
828.02	24840
828.159	24863
828.298	24848
828.437	24913
828.577	24810
828.716	24924
828.855	24837
828.994	24509
829.134	24658
829.273	24593
829.412	24513
829.551	24486
829.69	24467
829.829	24669
829.968	24745
830.107	24627
830.246	24608
830.385	24532
830.524	24540
830.663	24357
830.802	24380
830.941	24213
831.08	24289
831.219	24251
831.357	24407
831.496	24357
831.635	24243
831.774	24167
831.913	24030
832.051	23969
832.19	23969
832.329	23977
832.467	23969
832.606	23718
832.744	23897
832.883	23885
833.022	23733
833.16	23931
833.299	23920
833.437	23946
833.576	24003
833.714	24026
833.852	23904
833.991	23935
834.129	23984
834.267	24041
834.406	23897
834.544	23973
834.682	23935
834.821	23843
834.959	24155
835.097	23946
835.235	24018
835.373	23912
835.511	23840
835.65	23786
835.788	23813
835.926	23623
836.064	23649
836.202	23638
836.34	23809
836.478	23836
836.615	23733
836.753	23939
836.891	23828
837.029	23783
837.167	23722
837.305	23638
837.443	23672
837.58	23699
837.718	23672
837.856	23687
837.993	23573
838.131	23718
838.269	23436
838.406	23509
838.544	23341
838.681	23170
838.819	23102
838.956	23166
839.094	23147
839.231	23162
839.369	23098
839.506	23551
839.643	23398
839.781	23140
839.918	23071
840.055	23003
840.193	23136
840.33	23018
840.467	23098
840.604	23170
840.742	23265
840.879	22904
841.016	22984
841.153	22869
841.29	23117
841.427	22847
841.564	23033
841.701	22995
841.838	22866
841.975	22938
842.112	22881
842.249	22801
842.385	22725
842.522	23090
842.659	22900
842.796	22782
842.933	22820
843.069	22744
843.206	22778
843.343	22687
843.479	22778
843.616	22824
843.752	22546
843.889	22405
844.025	22641
844.162	22546
844.298	22538
844.435	22611
844.571	22504
844.708	22542
844.844	22725
844.98	22691
845.117	22535
845.253	22379
845.389	22314
845.525	22485
845.661	22325
845.798	22230
845.934	22314
846.07	22215
846.206	22325
846.342	22348
846.478	22230
846.614	22173
846.75	21983
846.886	21953
847.022	22147
847.158	21964
847.294	21857
847.429	22006
847.565	21960
847.701	22177
847.837	21861
847.972	21797
848.108	21922
848.244	21713
848.379	21545
848.515	21610
848.65	21637
848.786	21557
848.921	21641
849.057	21663
849.192	21641
849.328	21641
849.463	21553
849.598	21526
849.734	21507
849.869	21405
850.004	21329
850.14	21405
850.275	21344
850.41	21397
850.545	21252
850.68	21226
850.815	21306
850.95	21363
851.085	21553
851.22	21507
851.355	21351
851.49	21325
851.625	21363
851.76	21260
851.895	21340
852.03	21291
852.165	21317
852.299	21355
852.434	21454
852.569	21431
852.703	21329
852.838	21439
852.973	21481
853.107	21435
853.242	21249
853.376	21203
853.511	21070
853.645	21150
853.78	21264
853.914	21150
854.048	21211
854.183	21272
854.317	21256
854.451	21355
854.585	21192
854.72	21275
854.854	21199
854.988	21108
855.122	21161
855.256	21074
855.39	21142
855.524	21222
855.658	21199
855.792	21173
855.926	21188
856.06	21222
856.194	21230
856.327	21192
856.461	21169
856.595	21028
856.729	21096
856.862	21211
856.996	21055
857.13	21298
857.263	21237
857.397	21294
857.53	21135
857.664	21180
857.797	21291
857.931	21294
858.064	21093
858.197	21275
858.331	21199
858.464	21108
858.597	21055
858.731	21180
858.864	21123
858.997	21127
859.13	21157
859.263	21119
859.396	21180
859.529	21287
859.662	21116
859.795	21173
859.928	21142
860.061	21405
860.194	21329
860.327	21218
860.46	21100
860.592	21226
860.725	21389
860.858	21306
860.99	21268
861.123	21058
861.256	21089
861.388	21188
861.521	21759
861.653	21005
861.786	20891
861.918	21005
862.05	21112
862.183	21104
862.315	21169
862.447	21074
862.58	21077
862.712	20849
862.844	20960
862.976	20963
863.108	21005
863.24	21363
863.372	20765
863.504	20845
863.636	20899
863.768	20895
863.9	20925
864.032	20891
864.164	20960
864.296	20998
864.428	21001
864.559	20842
864.691	20982
864.823	20823
864.954	20838
865.086	20948
865.217	20693
865.349	20762
865.48	20872
865.612	20739
865.743	20956
865.875	20785
866.006	20712
866.137	20773
866.269	20883
866.4	20667
866.531	20777
866.662	20693
866.793	20842
866.924	20739
867.055	20823
867.186	20762
867.317	20674
867.448	20632
867.579	20697
867.71	20636
867.841	20670
867.972	20674
868.103	20686
868.233	20716
868.364	20769
868.495	20773
868.625	21062
868.756	20937
868.886	20785
869.017	20994
869.147	21047
869.278	21066
869.408	20975
869.539	21066
869.669	21005
869.799	20979
869.929	21055
870.06	21123
870.19	21329
870.32	21291
870.45	21401
870.58	21180
870.71	21618
870.84	21466
870.97	21359
871.1	21317
871.23	21591
871.36	21549
871.489	21382
871.619	21534
871.749	21473
871.879	21591
872.008	21618
872.138	21595
872.267	21492
872.397	21431
872.526	21363
872.656	21424
872.785	21416
872.915	21526
873.044	21679
873.173	21526
873.303	21644
873.432	21587
873.561	21728
873.69	21534
873.819	21557
873.948	21751
874.077	21587
874.206	21549
874.335	21667
874.464	21660
874.593	21915
874.722	21743
874.851	21804
874.979	21808
875.108	21880
875.237	21724
875.365	21644
875.494	21656
875.623	21819
875.751	21713
875.88	21835
876.008	22032
876.136	22021
876.265	22097
876.393	22215
876.521	22329
876.65	22322
876.778	22249
876.906	22223
877.034	22215
877.162	22177
877.29	22044
877.418	22173
877.546	22021
877.674	22150
877.802	22074
877.93	22185
878.058	22021
878.185	22150
878.313	22078
878.441	22162
878.568	22036
878.696	22017
878.824	22265
878.951	22219
879.079	22481
879.206	22512
879.333	22329
879.461	22181
879.588	22265
879.715	22310
879.842	22443
879.97	22234
880.097	22040
880.224	21785
880.351	22051
880.478	21880
880.605	21838
880.732	22029
880.859	22036
880.986	22021
881.112	21975
881.239	21827
881.366	21694
881.493	21572
881.619	21534
881.746	21523
881.872	21488
881.999	21351
882.125	21485
882.252	21622
882.378	21515
882.505	21663
882.631	21367
882.757	21351
882.883	21374
883.01	21325
883.136	21203
883.262	21161
883.388	21138
883.514	21222
883.64	21325
883.766	21108
883.892	21138
884.018	20990
884.143	21226
884.269	21264
884.395	21020
884.52	20895
884.646	20891
884.772	20948
884.897	20849
885.023	20986
885.148	21039
885.274	21096
885.399	21074
885.524	20982
885.65	20906
885.775	20921
885.9	20895
886.025	21081
886.15	20963
886.275	20880
886.4	20804
886.525	20857
886.65	20883
886.775	20845
886.9	20952
887.025	21055
887.149	20830
887.274	20659
887.399	20686
887.523	20670
887.648	20587
887.773	20594
887.897	20674
888.021	20659
888.146	20659
888.27	20746
888.395	20712
888.519	20705
888.643	20724
888.767	20739
888.891	20590
889.015	20431
889.139	20617
889.263	20366
889.387	20659
889.511	20708
889.635	20636
889.759	20454
889.883	20495
890.006	20533
890.13	20465
890.254	20396
890.377	20408
890.501	20309
890.624	20164
890.748	20248
890.871	20248
890.995	20046
891.118	19833
891.241	20001
891.364	20119
891.488	20157
891.611	20069
891.734	20065
891.857	20081
891.98	19959
892.103	20115
892.226	19963
892.349	19917
892.471	19765
892.594	20008
892.717	19967
892.839	20100
892.962	20081
893.085	20096
893.207	19993
893.33	19814
893.452	19890
893.575	19963
893.697	19906
893.819	20157
893.941	20172
894.064	20180
894.186	19894
894.308	19803
894.43	20122
894.552	20172
894.674	20001
894.796	19883
894.918	19909
895.04	19890
895.161	19932
895.283	20088
895.405	19890
895.526	20020
895.648	19845
895.769	19890
895.891	20058
896.012	20027
896.134	20001
896.255	19944
896.376	19970
896.498	20039
896.619	20008
896.74	20046
896.861	20024
896.982	20351
897.103	20393
897.224	20183
897.345	20191
897.466	20084
897.587	20164
897.708	20374
897.828	20164
897.949	20027
898.07	20126
898.19	20119
898.311	20282
898.431	20259
898.552	20195
898.672	20328
898.792	20339
898.913	20221
899.033	20092
899.153	19917
899.273	19868
899.393	19928
899.513	20046
899.633	20046
899.753	19906
899.873	19879
899.993	19890
900.113	19868
900.232	19898
900.352	19894
900.472	19765
900.591	19597
900.711	19803
900.83	19689
900.95	19780
901.069	19906
901.189	19677
901.308	19346
901.427	19247
901.546	19365
901.665	19331
901.784	19335
901.904	19183
902.023	19088
902.141	18859
902.26	18894
902.379	18954
902.498	18798
902.617	18734
902.735	18852
902.854	18878
902.973	18738
903.091	18479
903.21	18448
903.328	18540
903.446	18407
903.565	18365
903.683	18334
903.801	18121
903.919	18251
904.038	18407
904.156	18117
904.274	18182
904.392	18053
904.51	18068
904.627	18007
904.745	17973
904.863	18129
904.981	17961
905.098	17874
905.216	17745
905.334	17741
905.451	17729
905.569	17745
905.686	17695
905.803	17676
905.921	17661
906.038	17733
906.155	17585
906.272	17280
906.389	17486
906.506	17398
906.623	17387
906.74	17299
906.857	17185
906.974	17083
907.091	17356
907.208	17383
907.324	17391
907.441	17128
907.557	17075
907.674	17022
907.79	16953
907.907	16980
908.023	16976
908.139	16999
908.256	16980
908.372	16797
908.488	16934
908.604	16717
908.72	16656
908.836	16752
908.952	16668
909.068	16793
909.184	16748
909.3	16748
909.415	16710
909.531	16649
909.647	16344
909.762	16421
909.878	16470
909.993	16390
910.108	16489
910.224	16299
910.339	16409
910.454	16242
910.57	16211
910.685	16207
910.8	16402
910.915	16314
911.03	16196
911.145	16055
911.259	16078
911.374	15922
911.489	15918
911.604	15857
911.718	15743
911.833	15755
911.947	15728
912.062	15534
912.176	15797
912.291	15831
912.405	15724
912.519	15991
912.633	15983
912.748	15823
912.862	15747
912.976	15622
913.09	15458
913.204	15572
913.318	15686
913.431	15747
913.545	15633
913.659	15713
913.772	15500
913.886	15477
914	15340
914.113	15466
914.226	15462
914.34	15340
914.453	15351
914.566	15332
914.68	15230
914.793	15245
914.906	15028
915.019	14948
915.132	14853
915.245	15009
915.358	15013
915.47	14952
915.583	14998
915.696	15028
915.809	15055
915.921	15089
916.034	14819
916.146	14937
916.259	14906
916.371	15028
916.483	14986
916.595	14792
916.708	14845
916.82	14777
916.932	14811
917.044	14823
917.156	14880
917.268	14613
917.38	14746
917.491	14693
917.603	14788
917.715	14655
917.826	14724
917.938	14575
918.049	14541
918.161	14541
918.272	14769
918.384	14727
918.495	14598
918.606	14495
918.717	14374
918.828	14400
918.939	14423
919.05	14278
919.161	14358
919.272	14263
919.383	14149
919.494	14385
919.604	14644
919.715	14339
919.826	14305
919.936	14362
920.047	14415
920.157	14366
920.267	14617
920.378	14446
920.488	14267
920.598	14537
920.708	14724
920.818	14351
920.928	14530
921.038	14689
921.148	14674
921.258	14377
921.368	14221
921.477	14237
921.587	14149
921.697	14046
921.806	14149
921.916	13890
922.025	13791
922.134	13788
922.244	13856
922.353	13818
922.462	13620
922.571	13658
922.68	13460
922.789	13365
922.898	13502
923.007	13354
923.116	13411
923.224	13415
923.333	13339
923.442	13266
923.55	13217
923.659	13225
923.767	13232
923.876	13152
923.984	13206
924.092	13168
924.201	13187
924.309	13179
924.417	13065
924.525	13057
924.633	13042
924.741	13982
924.849	12863
924.956	12996
925.064	12791
925.172	12753
925.279	12859
925.387	12901
925.494	12878
925.602	12924
925.709	12924
925.816	12673
925.924	12783
926.031	12856
926.138	12837
926.245	12875
926.352	12722
926.459	12844
926.566	12810
926.673	12806
926.779	12604
926.886	12532
926.993	12445
927.099	12380
927.206	12361
927.312	12281
927.419	12399
927.525	12292
927.631	12445
927.737	12296
927.843	12216
927.95	12053
928.056	12251
928.162	12201
928.267	12353
928.373	12844
928.479	12311
928.585	12152
928.69	12247
928.796	12243
928.901	12136
929.007	11897
929.112	12041
929.218	11980
929.323	11996
929.428	11908
929.533	12022
929.638	11908
929.743	11923
929.848	11942
929.953	11878
930.058	11832
930.163	11615
930.267	11684
930.372	11790
930.477	11600
930.581	11794
930.685	11703
930.79	11577
930.894	11592
930.998	11448
931.103	11615
931.207	11273
931.311	11193
931.415	11193
931.519	10946
931.623	10915
