Data from test_V78500241_1518.txt Node
Date: Fri Mar 25 15:52:19 CST 2022
User: usil
Spectrometer: V785-0024
Trigger mode: 0
Integration Time (sec): 4.000000E-1
Scans to average: 1
Nonlinearity correction enabled: false
Boxcar width: 0
Storing dark spectrum: false
XAxis mode: Wavelengths
Number of Pixels in Spectrum: 1024
>>>>>Begin Spectral Data<<<<<
801.071	28082
801.214	27937
801.356	27770
801.499	27599
801.641	27583
801.783	27523
801.926	27747
802.068	27526
802.211	27515
802.353	27348
802.496	27363
802.638	27382
802.78	27374
802.923	27275
803.065	27112
803.208	27233
803.35	27241
803.492	27389
803.635	27511
803.777	27443
803.919	27488
804.061	27755
804.204	27538
804.346	27298
804.488	27488
804.63	27504
804.773	27454
804.915	27701
805.057	27644
805.199	27530
805.341	27561
805.483	27667
805.626	27595
805.768	27488
805.91	27572
806.052	27728
806.194	27694
806.336	27781
806.478	27644
806.62	27698
806.762	27816
806.904	28032
807.046	28082
807.188	28013
807.33	28090
807.472	28131
807.614	27987
807.756	28109
807.898	27842
808.04	27873
808.182	28021
808.324	27987
808.465	27979
808.607	28204
808.749	28181
808.891	28352
809.033	28516
809.174	28303
809.316	28443
809.458	28265
809.6	28249
809.741	28329
809.883	28344
810.025	28573
810.166	28607
810.308	28645
810.45	28512
810.591	28466
810.733	28325
810.875	28150
811.016	28177
811.158	28116
811.299	28337
811.441	28325
811.582	28500
811.724	28310
811.865	28192
812.007	28341
812.148	28314
812.29	28276
812.431	28363
812.573	28649
812.714	28615
812.855	28740
812.997	28725
813.138	28896
813.279	28854
813.421	28904
813.562	28710
813.703	28584
813.845	28455
813.986	28394
814.127	28154
814.268	27979
814.41	28029
814.551	27975
814.692	27991
814.833	27888
814.974	27876
815.115	27994
815.256	27865
815.397	27789
815.539	27789
815.68	27918
815.821	27800
815.962	27781
816.103	27728
816.244	27732
816.385	27473
816.526	27557
816.666	27393
816.807	27294
816.948	27412
817.089	27332
817.23	27389
817.371	27298
817.512	27173
817.653	27302
817.793	27180
817.934	27344
818.075	27351
818.216	27363
818.356	27249
818.497	27146
818.638	27036
818.778	27020
818.919	27009
819.06	26971
819.2	27081
819.341	27211
819.481	27275
819.622	27473
819.762	27519
819.903	27606
820.043	27424
820.184	27466
820.324	27485
820.465	27306
820.605	27351
820.746	27359
820.886	27287
821.026	27389
821.167	27268
821.307	27507
821.447	27188
821.588	27321
821.728	26986
821.868	27058
822.008	26838
822.149	26842
822.289	26781
822.429	26537
822.569	26374
822.709	26309
822.849	26271
822.99	26244
823.13	26259
823.27	26313
823.41	26092
823.55	25997
823.69	26020
823.83	26138
823.97	25906
824.11	26008
824.25	25928
824.389	25986
824.529	26031
824.669	25989
824.809	25986
824.949	26031
825.089	25982
825.228	25986
825.368	25822
825.508	25738
825.648	25898
825.787	25818
825.927	25860
826.067	25696
826.206	25761
826.346	25830
826.485	25959
826.625	25830
826.765	25879
826.904	25765
827.044	25559
827.183	25582
827.323	25441
827.462	25479
827.601	25514
827.741	25533
827.88	25578
828.02	25362
828.159	25392
828.298	25464
828.437	25468
828.577	25483
828.716	25575
828.855	25354
828.994	25148
829.134	25160
829.273	25240
829.412	25206
829.551	25053
829.69	25175
829.829	25202
829.968	25244
830.107	25263
830.246	25198
830.385	25072
830.524	25126
830.663	24966
830.802	24863
830.941	24711
831.08	24772
831.219	24825
831.357	24882
831.496	25053
831.635	24856
831.774	24726
831.913	24722
832.051	24764
832.19	24566
832.329	24730
832.467	24540
832.606	24479
832.744	24388
832.883	24456
833.022	24403
833.16	24315
833.299	24521
833.437	24448
833.576	24433
833.714	24521
833.852	24589
833.991	24635
834.129	24555
834.267	24627
834.406	24460
834.544	24658
834.682	24593
834.821	24528
834.959	24692
835.097	24445
835.235	24608
835.373	24460
835.511	24445
835.65	24426
835.788	24342
835.926	24353
836.064	24110
836.202	24220
836.34	24407
836.478	24563
836.615	24448
836.753	24372
836.891	24414
837.029	24323
837.167	24315
837.305	24155
837.443	24197
837.58	24102
837.718	24296
837.856	24190
837.993	24015
838.131	24262
838.269	24091
838.406	24098
838.544	23999
838.681	23999
838.819	23764
838.956	23710
839.094	23726
839.231	23748
839.369	23737
839.506	24106
839.643	23866
839.781	23627
839.918	23638
840.055	23630
840.193	23627
840.33	23592
840.467	23596
840.604	23512
840.742	23802
840.879	23356
841.016	23551
841.153	23509
841.29	23619
841.427	23531
841.564	23646
841.701	23608
841.838	23562
841.975	23516
842.112	23402
842.249	23417
842.385	23326
842.522	23539
842.659	23471
842.796	23227
842.933	23223
843.069	23235
843.206	23296
843.343	23414
843.479	23254
843.616	23288
843.752	22995
843.889	23113
844.025	23181
844.162	23006
844.298	23216
844.435	23086
844.571	22987
844.708	23064
844.844	23124
844.98	23143
845.117	23197
845.253	23132
845.389	23041
845.525	23014
845.661	22915
845.798	22911
845.934	22873
846.07	22748
846.206	22778
846.342	23033
846.478	22721
846.614	22637
846.75	22580
846.886	22588
847.022	22653
847.158	22645
847.294	22470
847.429	22451
847.565	22584
847.701	22812
847.837	22322
847.972	22234
848.108	22405
848.244	22238
848.379	22272
848.515	22200
848.65	22086
848.786	22253
848.921	22215
849.057	22230
849.192	22238
849.328	22287
849.463	22032
849.598	21960
849.734	21991
849.869	22010
850.004	21998
850.14	21983
850.275	21884
850.41	21800
850.545	21766
850.68	21903
850.815	21831
850.95	21800
851.085	21979
851.22	22006
851.355	21983
851.49	21930
851.625	21918
851.76	21880
851.895	21781
852.03	21812
852.165	22093
852.299	21983
852.434	22078
852.569	21949
852.703	21888
852.838	21983
852.973	22090
853.107	21960
853.242	21778
853.376	21850
853.511	21576
853.645	21778
853.78	21804
853.914	21789
854.048	21739
854.183	21705
854.317	21739
854.451	22070
854.585	21671
854.72	21720
854.854	21823
854.988	21736
855.122	21698
855.256	21713
855.39	21835
855.524	21831
855.658	21800
855.792	21717
855.926	21652
856.06	21789
856.194	21861
856.327	21804
856.461	21774
856.595	21572
856.729	21660
856.862	21793
856.996	21865
857.13	21759
857.263	21873
857.397	21766
857.53	21751
857.664	21736
857.797	21827
857.931	21835
858.064	21781
858.197	21926
858.331	21698
858.464	21583
858.597	21622
858.731	21732
858.864	21762
858.997	21781
859.13	21842
859.263	21778
859.396	21842
859.529	21618
859.662	21686
859.795	21785
859.928	21705
860.061	21907
860.194	21846
860.327	21720
860.46	21728
860.592	21846
860.725	21876
860.858	21770
860.99	21785
861.123	21622
861.256	21736
861.388	21656
861.521	22413
861.653	21595
861.786	21656
861.918	21458
862.05	21637
862.183	21656
862.315	21641
862.447	21545
862.58	21682
862.712	21515
862.844	21443
862.976	21534
863.108	21538
863.24	21880
863.372	21340
863.504	21435
863.636	21408
863.768	21450
863.9	21401
864.032	21363
864.164	21412
864.296	21492
864.428	21561
864.559	21405
864.691	21420
864.823	21378
864.954	21412
865.086	21431
865.217	21325
865.349	21272
865.48	21344
865.612	21336
865.743	21469
865.875	21344
866.006	21298
866.137	21154
866.269	21386
866.4	21317
866.531	21180
866.662	21310
866.793	21211
866.924	21344
867.055	21367
867.186	21325
867.317	21142
867.448	21142
867.579	21146
867.71	21154
867.841	21218
867.972	21268
868.103	21249
868.233	21298
868.364	21325
868.495	21302
868.625	21561
868.756	21591
868.886	21526
869.017	21530
869.147	21458
869.278	21545
869.408	21526
869.539	21507
869.669	21633
869.799	21599
869.929	21671
870.06	21538
870.19	21831
870.32	21827
870.45	21808
870.58	21861
870.71	22082
870.84	22013
870.97	21846
871.1	21945
871.23	22109
871.36	22097
871.489	22036
871.619	22090
871.749	22051
871.879	22154
872.008	22139
872.138	22139
872.267	22044
872.397	22013
872.526	21865
872.656	21907
872.785	22017
872.915	22093
873.044	22295
873.173	22093
873.303	22238
873.432	22322
873.561	22097
873.69	22143
873.819	22135
873.948	22192
874.077	22287
874.206	22131
874.335	22143
874.464	22276
874.593	22421
874.722	22314
874.851	22379
874.979	22424
875.108	22440
875.237	22314
875.365	22341
875.494	22303
875.623	22424
875.751	22344
875.88	22341
876.008	22402
876.136	22561
876.265	22786
876.393	22816
876.521	22740
876.65	22767
876.778	22729
876.906	22611
877.034	22664
877.162	22603
877.29	22588
877.418	22649
877.546	22835
877.674	22744
877.802	22710
877.93	22672
878.058	22740
878.185	22557
878.313	22653
878.441	22683
878.568	22573
878.696	22733
878.824	22687
878.951	22896
879.079	22930
879.206	22923
879.333	22900
879.461	22691
879.588	22930
879.715	22835
879.842	22934
879.97	22733
880.097	22672
880.224	22512
880.351	22622
880.478	22561
880.605	22512
880.732	22531
880.859	22694
880.986	22546
881.112	22626
881.239	22436
881.366	22344
881.493	22051
881.619	22162
881.746	22090
881.872	22143
881.999	22082
882.125	22105
882.252	22166
882.378	22074
882.505	22188
882.631	21956
882.757	21835
882.883	21865
883.01	21728
883.136	21793
883.262	21663
883.388	21591
883.514	21743
883.64	21751
883.766	21785
883.892	21523
884.018	21606
884.143	21766
884.269	21850
884.395	21450
884.52	21355
884.646	21515
884.772	21370
884.897	21386
885.023	21447
885.148	21507
885.274	21557
885.399	21523
885.524	21477
885.65	21367
885.775	21408
885.9	21412
886.025	21507
886.15	21447
886.275	21412
886.4	21317
886.525	21466
886.65	21348
886.775	21378
886.9	21435
887.025	21686
887.149	21378
887.274	21218
887.399	21093
887.523	21214
887.648	21173
887.773	21112
887.897	21233
888.021	21104
888.146	21173
888.27	21249
888.395	21386
888.519	21249
888.643	21226
888.767	21237
888.891	21055
889.015	21028
889.139	20994
889.263	20781
889.387	21081
889.511	21188
889.635	21062
889.759	20910
889.883	21062
890.006	20902
890.13	21173
890.254	20937
890.377	20868
890.501	20788
890.624	20678
890.748	20750
890.871	20648
890.995	20526
891.118	20492
891.241	20632
891.364	20480
891.488	20682
891.611	20518
891.734	20400
891.857	20590
891.98	20640
892.103	20571
892.226	20511
892.349	20457
892.471	20267
892.594	20419
892.717	20400
892.839	20393
892.962	20507
893.085	20560
893.207	20332
893.33	20366
893.452	20362
893.575	20511
893.697	20362
893.819	20636
893.941	20716
894.064	20507
894.186	20412
894.308	20336
894.43	20674
894.552	20457
894.674	20492
894.796	20305
894.918	20419
895.04	20438
895.161	20495
895.283	20533
895.405	20442
895.526	20362
895.648	20362
895.769	20366
895.891	20412
896.012	20473
896.134	20594
896.255	20396
896.376	20404
896.498	20518
896.619	20507
896.74	20480
896.861	20450
896.982	20724
897.103	20971
897.224	20758
897.345	20648
897.466	20526
897.587	20674
897.708	20800
897.828	20659
897.949	20560
898.07	20457
898.19	20480
898.311	20712
898.431	20587
898.552	20606
898.672	20579
898.792	20716
898.913	20701
899.033	20522
899.153	20427
899.273	20267
899.393	20301
899.513	20465
899.633	20339
899.753	20469
899.873	20415
899.993	20473
900.113	20404
900.232	20332
900.352	20286
900.472	20199
900.591	20084
900.711	20195
900.83	20062
900.95	20145
901.069	20275
901.189	20100
901.308	19921
901.427	19746
901.546	19830
901.665	19769
901.784	19647
901.904	19529
902.023	19438
902.141	19415
902.26	19324
902.379	19483
902.498	19297
902.617	19175
902.735	19343
902.854	19312
902.973	19129
903.091	18981
903.21	18913
903.328	18875
903.446	18787
903.565	18734
903.683	18783
903.801	18608
903.919	18578
904.038	18650
904.156	18475
904.274	18585
904.392	18426
904.51	18544
904.627	18448
904.745	18448
904.863	18597
904.981	18380
905.098	18159
905.216	18247
905.334	18133
905.451	18182
905.569	18148
905.686	18117
905.803	18209
905.921	17988
906.038	18003
906.155	18003
906.272	17878
906.389	17843
906.506	17737
906.623	17760
906.74	17718
906.857	17448
906.974	17570
907.091	17752
907.208	17638
907.324	17634
907.441	17577
907.557	17414
907.674	17368
907.79	17387
907.907	17383
908.023	17379
908.139	17406
908.256	17376
908.372	17322
908.488	17258
908.604	17178
908.72	17075
908.836	17151
908.952	17155
909.068	17170
909.184	17231
909.3	17083
909.415	17086
909.531	17181
909.647	16919
909.762	16869
909.878	16809
909.993	16858
910.108	16721
910.224	16698
910.339	16797
910.454	16622
910.57	16649
910.685	16580
910.8	16892
910.915	16793
911.03	16675
911.145	16398
911.259	16443
911.374	16432
911.489	16314
911.604	16249
911.718	16192
911.833	16238
911.947	16109
912.062	15972
912.176	16116
912.291	16230
912.405	16169
912.519	16447
912.633	16246
912.748	16177
912.862	16135
912.976	15960
913.09	15899
913.204	15861
913.318	16017
913.431	16059
913.545	16105
913.659	16188
913.772	15899
913.886	15804
914	15675
914.113	15831
914.226	15903
914.34	15869
914.453	15709
914.566	15789
914.68	15614
914.793	15603
914.906	15378
915.019	15302
915.132	15287
915.245	15351
915.358	15393
915.47	15348
915.583	15397
915.696	15428
915.809	15447
915.921	15530
916.034	15329
916.146	15279
916.259	15272
916.371	15344
916.483	15355
916.595	15226
916.708	15283
916.82	15260
916.932	15165
917.044	15169
917.156	15161
917.268	15062
917.38	15017
917.491	14971
917.603	15077
917.715	15051
917.826	15131
917.938	15013
918.049	14845
918.161	14956
918.272	15020
918.384	15074
918.495	15043
918.606	14796
918.717	14811
918.828	14746
918.939	14921
919.05	14693
919.161	14701
919.272	14663
919.383	14636
919.494	14819
919.604	14979
919.715	14708
919.826	14663
919.936	14750
920.047	14872
920.157	14686
920.267	14937
920.378	14670
920.488	14735
920.598	14941
920.708	15089
920.818	14819
920.928	14788
921.038	15085
921.148	14921
921.258	14632
921.368	14549
921.477	14465
921.587	14461
921.697	14389
921.806	14442
921.916	14377
922.025	14145
922.134	14191
922.244	14096
922.353	14092
922.462	13986
922.571	13955
922.68	13772
922.789	13658
922.898	13780
923.007	13658
923.116	13814
923.224	13715
923.333	13696
923.442	13700
923.55	13506
923.659	13514
923.767	13662
923.876	13518
923.984	13544
924.092	13453
924.201	13483
924.309	13521
924.417	13457
924.525	13403
924.633	13369
924.741	14343
924.849	13285
924.956	13354
925.064	13194
925.172	13152
925.279	13179
925.387	13198
925.494	13065
925.602	13255
925.709	13118
925.816	13103
925.924	13126
926.031	13221
926.138	13103
926.245	12985
926.352	13027
926.459	13099
926.566	13209
926.673	13015
926.779	12810
926.886	12920
926.993	12875
927.099	12719
927.206	12688
927.312	12741
927.419	12673
927.525	12665
927.631	12662
927.737	12669
927.843	12631
927.95	12357
928.056	12532
928.162	12616
928.267	12612
928.373	13247
928.479	12612
928.585	12334
928.69	12395
928.796	12582
928.901	12498
929.007	12171
929.112	12403
929.218	12311
929.323	12239
929.428	12209
929.533	12407
929.638	12144
929.743	12224
929.848	12308
929.953	12098
930.058	12038
930.163	11908
930.267	11817
930.372	12060
930.477	11863
930.581	12117
930.685	11961
930.79	11805
930.894	11866
930.998	11802
931.103	11961
931.207	11551
931.311	11520
931.415	11474
931.519	11250
931.623	11204
