Data from test_V78500241_463.txt Node
Date: Fri Mar 25 15:45:00 CST 2022
User: usil
Spectrometer: V785-0024
Trigger mode: 0
Integration Time (sec): 4.000000E-1
Scans to average: 1
Nonlinearity correction enabled: false
Boxcar width: 0
Storing dark spectrum: false
XAxis mode: Wavelengths
Number of Pixels in Spectrum: 1024
>>>>>Begin Spectral Data<<<<<
801.071	27583
801.214	27633
801.356	27431
801.499	27431
801.641	27116
801.783	27321
801.926	27203
802.068	27142
802.211	27047
802.353	27058
802.496	26979
802.638	26834
802.78	26971
802.923	26819
803.065	26727
803.208	26754
803.35	26777
803.492	26929
803.635	26952
803.777	26963
803.919	26979
804.061	27169
804.204	26891
804.346	26967
804.488	26777
804.63	27028
804.773	26853
804.915	26956
805.057	27005
805.199	26990
805.341	26906
805.483	27192
805.626	27020
805.768	27017
805.91	27116
806.052	27123
806.194	27100
806.336	27367
806.478	27032
806.62	27100
806.762	27165
806.904	27496
807.046	27720
807.188	27447
807.33	27526
807.472	27500
807.614	27370
807.756	27473
807.898	27336
808.04	27340
808.182	27237
808.324	27325
808.465	27393
808.607	27595
808.749	27781
808.891	27835
809.033	27945
809.174	27857
809.316	27743
809.458	27667
809.6	27755
809.741	27880
809.883	27979
810.025	27797
810.166	27991
810.308	28120
810.45	27964
810.591	28021
810.733	27679
810.875	27747
811.016	27481
811.158	27614
811.299	27861
811.441	27914
811.582	27816
811.724	27705
811.865	27739
812.007	27671
812.148	27641
812.29	27679
812.431	27713
812.573	28086
812.714	28150
812.855	28272
812.997	28276
813.138	28519
813.279	28398
813.421	28238
813.562	28257
813.703	28128
813.845	27888
813.986	27736
814.127	27462
814.268	27435
814.41	27355
814.551	27462
814.692	27458
814.833	27233
814.974	27332
815.115	27526
815.256	27199
815.397	27264
815.539	27283
815.68	27214
815.821	27085
815.962	27275
816.103	27325
816.244	26975
816.385	27001
816.526	26861
816.666	26845
816.807	26823
816.948	26777
817.089	26823
817.23	26765
817.371	26739
817.512	26514
817.653	26598
817.793	26682
817.934	26667
818.075	26682
818.216	26743
818.356	26450
818.497	26522
818.638	26385
818.778	26412
818.919	26355
819.06	26415
819.2	26594
819.341	26739
819.481	26648
819.622	26678
819.762	26967
819.903	26952
820.043	26811
820.184	26868
820.324	26701
820.465	26880
820.605	26910
820.746	26781
820.886	26648
821.026	26697
821.167	26579
821.307	26819
821.447	26659
821.588	26518
821.728	26404
821.868	26286
822.008	26172
822.149	26050
822.289	26016
822.429	25693
822.569	25788
822.709	25803
822.849	25537
822.99	25582
823.13	25655
823.27	25449
823.41	25282
823.55	25415
823.69	25499
823.83	25388
823.97	25217
824.11	25129
824.25	25156
824.389	25232
824.529	25293
824.669	25232
824.809	25377
824.949	25346
825.089	25289
825.228	25266
825.368	25114
825.508	25061
825.648	25069
825.787	25019
825.927	24992
826.067	24935
826.206	25069
826.346	25244
826.485	25088
826.625	25103
826.765	25232
826.904	25084
827.044	24821
827.183	24833
827.323	24749
827.462	24894
827.601	24833
827.741	24932
827.88	24772
828.02	24722
828.159	24768
828.298	24760
828.437	24878
828.577	24738
828.716	24817
828.855	24665
828.994	24597
829.134	24551
829.273	24574
829.412	24475
829.551	24448
829.69	24475
829.829	24490
829.968	24509
830.107	24540
830.246	24589
830.385	24486
830.524	24266
830.663	24369
830.802	24311
830.941	24121
831.08	24053
831.219	24251
831.357	24091
831.496	24319
831.635	24079
831.774	23942
831.913	24076
832.051	23843
832.19	23954
832.329	23851
832.467	23680
832.606	23687
832.744	23733
832.883	23714
833.022	23802
833.16	23802
833.299	23748
833.437	23764
833.576	23840
833.714	23897
833.852	23893
833.991	23904
834.129	23885
834.267	23920
834.406	23824
834.544	23916
834.682	23897
834.821	23813
834.959	23828
835.097	23840
835.235	23920
835.373	23760
835.511	23733
835.65	23668
835.788	23710
835.926	23600
836.064	23516
836.202	23368
836.34	23638
836.478	23623
836.615	23547
836.753	23615
836.891	23630
837.029	23707
837.167	23531
837.305	23672
837.443	23410
837.58	23505
837.718	23509
837.856	23478
837.993	23512
838.131	23429
838.269	23387
838.406	23493
838.544	23322
838.681	23102
838.819	23132
838.956	22999
839.094	23029
839.231	22904
839.369	23140
839.506	23326
839.643	23220
839.781	22930
839.918	22965
840.055	23003
840.193	23018
840.33	22938
840.467	22854
840.604	22892
840.742	23159
840.879	22744
841.016	22706
841.153	22816
841.29	22942
841.427	22820
841.564	22972
841.701	22892
841.838	22953
841.975	22740
842.112	22812
842.249	22748
842.385	22645
842.522	22812
842.659	22717
842.796	22630
842.933	22569
843.069	22554
843.206	22630
843.343	22797
843.479	22588
843.616	22683
843.752	22451
843.889	22398
844.025	22519
844.162	22409
844.298	22535
844.435	22417
844.571	22280
844.708	22462
844.844	22573
844.98	22550
845.117	22481
845.253	22242
845.389	22249
845.525	22367
845.661	22238
845.798	22124
845.934	22219
846.07	22116
846.206	22242
846.342	22287
846.478	22112
846.614	21842
846.75	21873
846.886	21953
847.022	21953
847.158	21949
847.294	21915
847.429	21926
847.565	21732
847.701	22006
847.837	21644
847.972	21633
848.108	21698
848.244	21595
848.379	21386
848.515	21416
848.65	21348
848.786	21408
848.921	21496
849.057	21488
849.192	21622
849.328	21492
849.463	21561
849.598	21405
849.734	21302
849.869	21336
850.004	21321
850.14	21211
850.275	21272
850.41	21157
850.545	21096
850.68	21233
850.815	21252
850.95	21184
851.085	21405
851.22	21386
851.355	21173
851.49	21230
851.625	21233
851.76	21260
851.895	21268
852.03	21036
852.165	21188
852.299	21226
852.434	21260
852.569	21199
852.703	21230
852.838	21321
852.973	21416
853.107	21230
853.242	21138
853.376	21146
853.511	20880
853.645	20921
853.78	21165
853.914	21112
854.048	20902
854.183	21074
854.317	21085
854.451	21249
854.585	21081
854.72	21051
854.854	21173
854.988	20979
855.122	21005
855.256	20944
855.39	21032
855.524	21138
855.658	21032
855.792	21085
855.926	21055
856.06	21142
856.194	21127
856.327	20994
856.461	21017
856.595	21039
856.729	21077
856.862	21096
856.996	21123
857.13	21138
857.263	21195
857.397	21264
857.53	21089
857.664	21017
857.797	21226
857.931	21256
858.064	21070
858.197	21074
858.331	20975
858.464	21055
858.597	20830
858.731	20944
858.864	21001
858.997	20952
859.13	21001
859.263	21096
859.396	21161
859.529	20941
859.662	20975
859.795	20971
859.928	21089
860.061	21146
860.194	21283
860.327	21085
860.46	21138
860.592	21294
860.725	21138
860.858	21241
860.99	21108
861.123	20948
861.256	21028
861.388	20929
861.521	21709
861.653	20849
861.786	20933
861.918	20880
862.05	20891
862.183	20941
862.315	21043
862.447	20910
862.58	20979
862.712	20716
862.844	20609
862.976	20918
863.108	20826
863.24	21119
863.372	20712
863.504	20823
863.636	20712
863.768	20727
863.9	20815
864.032	20708
864.164	20724
864.296	20750
864.428	20883
864.559	20887
864.691	20785
864.823	20724
864.954	20701
865.086	20609
865.217	20758
865.349	20629
865.48	20678
865.612	20693
865.743	20811
865.875	20651
866.006	20667
866.137	20564
866.269	20640
866.4	20613
866.531	20716
866.662	20507
866.793	20488
866.924	20556
867.055	20621
867.186	20564
867.317	20640
867.448	20579
867.579	20606
867.71	20613
867.841	20396
867.972	20587
868.103	20594
868.233	20594
868.364	20636
868.495	20708
868.625	20769
868.756	20849
868.886	20743
869.017	20823
869.147	20986
869.278	20941
869.408	20762
869.539	20746
869.669	20811
869.799	20830
869.929	20906
870.06	21020
870.19	21131
870.32	21001
870.45	21169
870.58	21192
870.71	21321
870.84	21378
870.97	21351
871.1	21298
871.23	21355
871.36	21454
871.489	21431
871.619	21302
871.749	21515
871.879	21401
872.008	21530
872.138	21367
872.267	21416
872.397	21313
872.526	21241
872.656	21249
872.785	21222
872.915	21408
873.044	21545
873.173	21454
873.303	21435
873.432	21492
873.561	21545
873.69	21469
873.819	21443
873.948	21561
874.077	21382
874.206	21519
874.335	21447
874.464	21523
874.593	21637
874.722	21652
874.851	21736
874.979	21694
875.108	21747
875.237	21542
875.365	21545
875.494	21755
875.623	21675
875.751	21656
875.88	21759
876.008	21728
876.136	21835
876.265	21987
876.393	22200
876.521	22169
876.65	22021
876.778	22135
876.906	22090
877.034	22002
877.162	22040
877.29	22090
877.418	22021
877.546	22169
877.674	21956
877.802	22051
877.93	21937
878.058	21994
878.185	21873
878.313	21998
878.441	22067
878.568	21789
878.696	21911
878.824	21983
878.951	21972
879.079	22169
879.206	22272
879.333	22280
879.461	22090
879.588	22143
879.715	22074
879.842	22360
879.97	22010
880.097	21876
880.224	21903
880.351	22002
880.478	21857
880.605	21850
880.732	21842
880.859	22097
880.986	21770
881.112	21857
881.239	21739
881.366	21485
881.493	21591
881.619	21568
881.746	21473
881.872	21420
881.999	21439
882.125	21431
882.252	21348
882.378	21401
882.505	21511
882.631	21302
882.757	21180
882.883	21199
883.01	21195
883.136	21157
883.262	20925
883.388	20925
883.514	21188
883.64	21176
883.766	21131
883.892	20937
884.018	20891
884.143	21051
884.269	21157
884.395	20899
884.52	20731
884.646	20811
884.772	20800
884.897	20686
885.023	20724
885.148	20864
885.274	21024
885.399	20941
885.524	20667
885.65	20811
885.775	20849
885.9	20739
886.025	20902
886.15	20796
886.275	20674
886.4	20682
886.525	20629
886.65	20636
886.775	20933
886.9	20990
887.025	20948
887.149	20804
887.274	20530
887.399	20480
887.523	20598
887.648	20526
887.773	20415
887.897	20609
888.021	20716
888.146	20408
888.27	20621
888.395	20712
888.519	20705
888.643	20617
888.767	20583
888.891	20644
889.015	20305
889.139	20438
889.263	20358
889.387	20404
889.511	20609
889.635	20419
889.759	20313
889.883	20442
890.006	20374
890.13	20450
890.254	20195
890.377	20202
890.501	20168
890.624	20084
890.748	20218
890.871	19978
890.995	19841
891.118	19944
891.241	19974
891.364	19849
891.488	20149
891.611	19871
891.734	19925
891.857	20005
891.98	19993
892.103	19970
892.226	19845
892.349	19776
892.471	19670
892.594	19791
892.717	19894
892.839	19830
892.962	19795
893.085	19947
893.207	19871
893.33	19746
893.452	19708
893.575	19902
893.697	19799
893.819	19944
893.941	20077
894.064	20008
894.186	19799
894.308	19750
894.43	19955
894.552	19928
894.674	19894
894.796	19826
894.918	19811
895.04	19715
895.161	19936
895.283	19883
895.405	19814
895.526	19883
895.648	19799
895.769	19898
895.891	19841
896.012	20046
896.134	19788
896.255	19868
896.376	19731
896.498	19879
896.619	19868
896.74	19799
896.861	19837
896.982	20176
897.103	20324
897.224	20199
897.345	20096
897.466	20107
897.587	20084
897.708	20244
897.828	20210
897.949	19978
898.07	19780
898.19	20050
898.311	20161
898.431	19909
898.552	19986
898.672	20187
898.792	20081
898.913	20164
899.033	19993
899.153	19913
899.273	19750
899.393	19833
899.513	19864
899.633	19868
899.753	19871
899.873	19845
899.993	19860
900.113	19753
900.232	19826
900.352	19833
900.472	19666
900.591	19552
900.711	19624
900.83	19605
900.95	19731
901.069	19772
901.189	19510
901.308	19244
901.427	19126
901.546	19190
901.665	19190
901.784	19202
901.904	19091
902.023	19027
902.141	18875
902.26	18661
902.379	18833
902.498	18722
902.617	18696
902.735	18776
902.854	18726
902.973	18559
903.091	18361
903.21	18380
903.328	18410
903.446	18262
903.565	18186
903.683	18201
903.801	18068
903.919	18117
904.038	18155
904.156	17965
904.274	17927
904.392	17920
904.51	17996
904.627	17946
904.745	17999
904.863	17950
904.981	17802
905.098	17775
905.216	17630
905.334	17764
905.451	17695
905.569	17589
905.686	17680
905.803	17532
905.921	17356
906.038	17535
906.155	17398
906.272	17364
906.389	17356
906.506	17265
906.623	17166
906.74	17083
906.857	17105
906.974	17136
907.091	17231
907.208	17379
907.324	17162
907.441	17006
907.557	17037
907.674	16930
907.79	16801
907.907	16786
908.023	16919
908.139	16805
908.256	16752
908.372	16771
908.488	16710
908.604	16573
908.72	16531
908.836	16675
908.952	16577
909.068	16645
909.184	16771
909.3	16569
909.415	16599
909.531	16607
909.647	16322
909.762	16322
909.878	16325
909.993	16280
910.108	16337
910.224	16204
910.339	16280
910.454	16215
910.57	16131
910.685	16074
910.8	16265
910.915	16310
911.03	16071
911.145	16006
911.259	15895
911.374	15865
911.489	15781
911.604	15736
911.718	15660
911.833	15671
911.947	15614
912.062	15500
912.176	15584
912.291	15663
912.405	15637
912.519	15945
912.633	15835
912.748	15690
912.862	15698
912.976	15591
913.09	15401
913.204	15332
913.318	15496
913.431	15526
913.545	15591
913.659	15561
913.772	15500
913.886	15252
914	15351
914.113	15469
914.226	15408
914.34	15313
914.453	15135
914.566	15294
914.68	15207
914.793	15005
914.906	14887
915.019	14937
915.132	14960
915.245	14899
915.358	14952
915.47	14883
915.583	14971
915.696	15005
915.809	14948
915.921	14941
916.034	14849
916.146	14750
916.259	14773
916.371	14861
916.483	14868
916.595	14724
916.708	14716
916.82	14758
916.932	14655
917.044	14705
917.156	14651
917.268	14522
917.38	14594
917.491	14522
917.603	14602
917.715	14632
917.826	14716
917.938	14514
918.049	14450
918.161	14469
918.272	14571
918.384	14571
918.495	14469
918.606	14442
918.717	14309
918.828	14385
918.939	14336
919.05	14248
919.161	14366
919.272	14248
919.383	14206
919.494	14351
919.604	14590
919.715	14324
919.826	14161
919.936	14328
920.047	14332
920.157	14385
920.267	14454
920.378	14301
920.488	14317
920.598	14408
920.708	14530
920.818	14461
920.928	14423
921.038	14625
921.148	14469
921.258	14259
921.368	14161
921.477	14062
921.587	14001
921.697	13932
921.806	13970
921.916	13921
922.025	13696
922.134	13670
922.244	13586
922.353	13670
922.462	13548
922.571	13563
922.68	13358
922.789	13285
922.898	13362
923.007	13297
923.116	13285
923.224	13293
923.333	13259
923.442	13152
923.55	13156
923.659	13137
923.767	13141
923.876	13145
923.984	13137
924.092	13019
924.201	13015
924.309	13027
924.417	13031
924.525	13057
924.633	13042
924.741	13761
924.849	12833
924.956	12935
925.064	12795
925.172	12658
925.279	12722
925.387	12783
925.494	12726
925.602	12806
925.709	12856
925.816	12646
925.924	12768
926.031	12764
926.138	12642
926.245	12738
926.352	12540
926.459	12757
926.566	12741
926.673	12566
926.779	12471
926.886	12506
926.993	12403
927.099	12361
927.206	12251
927.312	12232
927.419	12285
927.525	12311
927.631	12372
927.737	12209
927.843	12205
927.95	12076
928.056	12117
928.162	12152
928.267	12197
928.373	12833
928.479	12224
928.585	12022
928.69	12064
928.796	12209
928.901	11973
929.007	11878
929.112	12007
929.218	11977
929.323	11904
929.428	11889
929.533	11946
929.638	11859
929.743	11878
929.848	11904
929.953	11904
930.058	11790
930.163	11638
930.267	11573
930.372	11767
930.477	11589
930.581	11748
930.685	11642
930.79	11459
930.894	11524
930.998	11383
931.103	11516
931.207	11181
931.311	11151
931.415	11105
931.519	10923
931.623	10839
