Data from test_V78500241_3393.txt Node
Date: Fri Mar 25 16:05:18 CST 2022
User: usil
Spectrometer: V785-0024
Trigger mode: 0
Integration Time (sec): 4.000000E-1
Scans to average: 1
Nonlinearity correction enabled: false
Boxcar width: 0
Storing dark spectrum: false
XAxis mode: Wavelengths
Number of Pixels in Spectrum: 1024
>>>>>Begin Spectral Data<<<<<
801.071	28618
801.214	28603
801.356	28268
801.499	28211
801.641	28135
801.783	28242
801.926	28200
802.068	28276
802.211	28150
802.353	28253
802.496	27949
802.638	27869
802.78	27835
802.923	27800
803.065	27766
803.208	27804
803.35	27838
803.492	27918
803.635	28139
803.777	27926
803.919	28261
804.061	28413
804.204	28101
804.346	28013
804.488	28044
804.63	28017
804.773	28002
804.915	28249
805.057	28325
805.199	28261
805.341	28070
805.483	28249
805.626	28230
805.768	28078
805.91	28287
806.052	28257
806.194	28196
806.336	28451
806.478	28257
806.62	28287
806.762	28394
806.904	28542
807.046	28748
807.188	28763
807.33	28786
807.472	28820
807.614	28653
807.756	28736
807.898	28683
808.04	28546
808.182	28432
808.324	28546
808.465	28645
808.607	28869
808.749	29006
808.891	29067
809.033	29067
809.174	28946
809.316	28987
809.458	28934
809.6	28839
809.741	29113
809.883	29208
810.025	29341
810.166	29265
810.308	29181
810.45	29239
810.591	29067
810.733	29117
810.875	28999
811.016	28843
811.158	28862
811.299	29056
811.441	29102
811.582	29117
811.724	28946
811.865	28888
812.007	29098
812.148	28980
812.29	29075
812.431	29162
812.573	29296
812.714	29406
812.855	29524
812.997	29581
813.138	29733
813.279	29585
813.421	29516
813.562	29452
813.703	29269
813.845	29170
813.986	28869
814.127	28721
814.268	28710
814.41	28717
814.551	28573
814.692	28683
814.833	28622
814.974	28641
815.115	28786
815.256	28557
815.397	28573
815.539	28413
815.68	28443
815.821	28306
815.962	28466
816.103	28413
816.244	28481
816.385	28352
816.526	28284
816.666	28055
816.807	27869
816.948	27945
817.089	28048
817.23	28112
817.371	27945
817.512	28055
817.653	28048
817.793	27953
817.934	27926
818.075	28002
818.216	28036
818.356	27983
818.497	27854
818.638	27644
818.778	27823
818.919	27793
819.06	27789
819.2	27930
819.341	27930
819.481	27953
819.622	28105
819.762	28287
819.903	28413
820.043	28128
820.184	28169
820.324	28188
820.465	28261
820.605	28177
820.746	28147
820.886	27983
821.026	27987
821.167	28101
821.307	28150
821.447	28059
821.588	27975
821.728	27880
821.868	27736
822.008	27583
822.149	27557
822.289	27507
822.429	27310
822.569	27146
822.709	27291
822.849	27036
822.99	26982
823.13	26956
823.27	26857
823.41	26792
823.55	26762
823.69	26804
823.83	26864
823.97	26769
824.11	26613
824.25	26636
824.389	26670
824.529	26796
824.669	26613
824.809	26667
824.949	26743
825.089	26773
825.228	26594
825.368	26488
825.508	26484
825.648	26579
825.787	26514
825.927	26663
826.067	26530
826.206	26431
826.346	26457
826.485	26564
826.625	26545
826.765	26602
826.904	26606
827.044	26244
827.183	26240
827.323	26263
827.462	26294
827.601	26218
827.741	26103
827.88	26336
828.02	26119
828.159	26206
828.298	26286
828.437	26320
828.577	26252
828.716	26362
828.855	26161
828.994	25837
829.134	25955
829.273	26005
829.412	25753
829.551	25932
829.69	25936
829.829	25909
829.968	25993
830.107	25986
830.246	25883
830.385	25921
830.524	25928
830.663	25632
830.802	25712
830.941	25430
831.08	25514
831.219	25548
831.357	25597
831.496	25620
831.635	25616
831.774	25537
831.913	25441
832.051	25316
832.19	25236
832.329	25266
832.467	25213
832.606	25065
832.744	25152
832.883	25152
833.022	25137
833.16	25346
833.299	25225
833.437	25190
833.576	25316
833.714	25293
833.852	25346
833.991	25278
834.129	25221
834.267	25445
834.406	25373
834.544	25384
834.682	25190
834.821	25225
834.959	25388
835.097	25228
835.235	25221
835.373	25289
835.511	25232
835.65	25091
835.788	25202
835.926	24916
836.064	24878
836.202	24875
836.34	25126
836.478	25107
836.615	24996
836.753	24943
836.891	25160
837.029	25141
837.167	25072
837.305	25008
837.443	25000
837.58	25023
837.718	25072
837.856	25000
837.993	24928
838.131	24935
838.269	24753
838.406	24897
838.544	24817
838.681	24460
838.819	24490
838.956	24498
839.094	24448
839.231	24395
839.369	24582
839.506	24894
839.643	24608
839.781	24342
839.918	24254
840.055	24391
840.193	24395
840.33	24346
840.467	24266
840.604	24254
840.742	24585
840.879	24224
841.016	24167
841.153	24209
841.29	24422
841.427	24235
841.564	24232
841.701	24194
841.838	24186
841.975	24174
842.112	24159
842.249	24152
842.385	23965
842.522	24186
842.659	24049
842.796	24049
842.933	24064
843.069	24049
843.206	24064
843.343	24144
843.479	24136
843.616	24053
843.752	23859
843.889	23840
844.025	24015
844.162	23729
844.298	23904
844.435	23866
844.571	23783
844.708	23920
844.844	23999
844.98	24003
845.117	23927
845.253	23851
845.389	23619
845.525	23718
845.661	23676
845.798	23608
845.934	23653
846.07	23543
846.206	23627
846.342	23748
846.478	23646
846.614	23417
846.75	23239
846.886	23326
847.022	23322
847.158	23242
847.294	23273
847.429	23277
847.565	23231
847.701	23478
847.837	23003
847.972	22984
848.108	23079
848.244	23071
848.379	23006
848.515	22847
848.65	22736
848.786	22949
848.921	22858
849.057	22980
849.192	22949
849.328	22949
849.463	22889
849.598	22835
849.734	22793
849.869	22740
850.004	22550
850.14	22694
850.275	22626
850.41	22516
850.545	22508
850.68	22470
850.815	22664
850.95	22580
851.085	22869
851.22	22736
851.355	22664
851.49	22580
851.625	22557
851.76	22649
851.895	22516
852.03	22523
852.165	22603
852.299	22653
852.434	22679
852.569	22812
852.703	22653
852.838	22683
852.973	22660
853.107	22771
853.242	22500
853.376	22462
853.511	22386
853.645	22375
853.78	22500
853.914	22493
854.048	22421
854.183	22462
854.317	22478
854.451	22679
854.585	22462
854.72	22500
854.854	22641
854.988	22341
855.122	22440
855.256	22363
855.39	22379
855.524	22489
855.658	22584
855.792	22356
855.926	22497
856.06	22451
856.194	22592
856.327	22402
856.461	22379
856.595	22398
856.729	22314
856.862	22550
856.996	22535
857.13	22512
857.263	22557
857.397	22531
857.53	22500
857.664	22523
857.797	22447
857.931	22405
858.064	22462
858.197	22546
858.331	22538
858.464	22325
858.597	22474
858.731	22409
858.864	22523
858.997	22413
859.13	22489
859.263	22379
859.396	22557
859.529	22371
859.662	22344
859.795	22424
859.928	22424
860.061	22630
860.194	22645
860.327	22443
860.46	22493
860.592	22603
860.725	22577
860.858	22603
860.99	22519
861.123	22405
861.256	22318
861.388	22466
861.521	23204
861.653	22443
861.786	22196
861.918	22124
862.05	22352
862.183	22348
862.315	22466
862.447	22478
862.58	22333
862.712	22166
862.844	22177
862.976	22192
863.108	22272
863.24	22687
863.372	22040
863.504	22230
863.636	22074
863.768	22158
863.9	22162
864.032	22070
864.164	22128
864.296	22131
864.428	22409
864.559	22325
864.691	22287
864.823	22109
864.954	22109
865.086	22051
865.217	22040
865.349	21922
865.48	22032
865.612	22070
865.743	22192
865.875	22185
866.006	21979
866.137	22010
866.269	22078
866.4	22044
866.531	22055
866.662	21930
866.793	22002
866.924	21994
867.055	22082
867.186	22025
867.317	21876
867.448	21850
867.579	21869
867.71	21888
867.841	21937
867.972	21964
868.103	22059
868.233	22040
868.364	21968
868.495	22090
868.625	22207
868.756	22295
868.886	22101
869.017	22314
869.147	22325
869.278	22390
869.408	22147
869.539	22253
869.669	22310
869.799	22246
869.929	22413
870.06	22363
870.19	22443
870.32	22512
870.45	22512
870.58	22485
870.71	22569
870.84	22698
870.97	22710
871.1	22588
871.23	22710
871.36	22873
871.489	22645
871.619	22908
871.749	22759
871.879	22793
872.008	22995
872.138	22835
872.267	22839
872.397	22622
872.526	22554
872.656	22535
872.785	22634
872.915	22793
873.044	23014
873.173	22850
873.303	22942
873.432	22934
873.561	22854
873.69	22896
873.819	22847
873.948	22771
874.077	22854
874.206	22866
874.335	22675
874.464	23022
874.593	23162
874.722	23121
874.851	23067
874.979	22991
875.108	23155
875.237	23090
875.365	23018
875.494	22889
875.623	23159
875.751	23098
875.88	23075
876.008	23227
876.136	23239
876.265	23436
876.393	23516
876.521	23452
876.65	23573
876.778	23478
876.906	23398
877.034	23436
877.162	23463
877.29	23326
877.418	23421
877.546	23478
877.674	23417
877.802	23360
877.93	23467
878.058	23364
878.185	23170
878.313	23414
878.441	23345
878.568	23337
878.696	23326
878.824	23364
878.951	23322
879.079	23562
879.206	23756
879.333	23558
879.461	23391
879.588	23490
879.715	23531
879.842	23646
879.97	23547
880.097	23166
880.224	23303
880.351	23292
880.478	23250
880.605	23269
880.732	23086
880.859	23436
880.986	23269
881.112	23189
881.239	23151
881.366	22976
881.493	22862
881.619	22820
881.746	22820
881.872	22752
881.999	22755
882.125	22740
882.252	22831
882.378	22622
882.505	22790
882.631	22675
882.757	22371
882.883	22538
883.01	22386
883.136	22478
883.262	22223
883.388	22299
883.514	22481
883.64	22348
883.766	22375
883.892	22272
884.018	22303
884.143	22424
884.269	22504
884.395	22128
884.52	22002
884.646	22063
884.772	22173
884.897	21972
885.023	22090
885.148	22131
885.274	22200
885.399	22131
885.524	22067
885.65	22120
885.775	22116
885.9	21975
886.025	22147
886.15	22105
886.275	21979
886.4	21937
886.525	21915
886.65	22116
886.775	21968
886.9	22093
887.025	22257
887.149	22036
887.274	21888
887.399	21759
887.523	21838
887.648	21736
887.773	21827
887.897	21907
888.021	21819
888.146	21846
888.27	21892
888.395	21911
888.519	21991
888.643	21774
888.767	21907
888.891	21778
889.015	21808
889.139	21652
889.263	21656
889.387	21622
889.511	21728
889.635	21739
889.759	21603
889.883	21587
890.006	21622
890.13	21686
890.254	21580
890.377	21526
890.501	21298
890.624	21306
890.748	21340
890.871	21211
890.995	21173
891.118	21127
891.241	21260
891.364	21291
891.488	21268
891.611	21260
891.734	21138
891.857	21241
891.98	21161
892.103	21165
892.226	21195
892.349	21039
892.471	20910
892.594	21169
892.717	21089
892.839	21032
892.962	21089
893.085	21112
893.207	21077
893.33	20952
893.452	20990
893.575	21154
893.697	20876
893.819	21249
893.941	21260
894.064	21245
894.186	20956
894.308	21062
894.43	21207
894.552	21154
894.674	21138
894.796	20921
894.918	21070
895.04	21070
895.161	21077
895.283	21036
895.405	20952
895.526	20960
895.648	21005
895.769	21066
895.891	21036
896.012	21203
896.134	21085
896.255	20982
896.376	20880
896.498	20998
896.619	21112
896.74	21036
896.861	21058
896.982	21374
897.103	21610
897.224	21283
897.345	21192
897.466	21116
897.587	21241
897.708	21306
897.828	21264
897.949	21058
898.07	21089
898.19	21112
898.311	21306
898.431	21272
898.552	21245
898.672	21291
898.792	21313
898.913	21317
899.033	21112
899.153	21051
899.273	20948
899.393	21074
899.513	21032
899.633	20998
899.753	20967
899.873	20876
899.993	21039
900.113	20910
900.232	20914
900.352	20914
900.472	20895
900.591	20762
900.711	20807
900.83	20644
900.95	20754
901.069	20785
901.189	20606
901.308	20412
901.427	20328
901.546	20347
901.665	20362
901.784	20267
901.904	20126
902.023	20020
902.141	19803
902.26	19818
902.379	19947
902.498	19772
902.617	19750
902.735	19875
902.854	19780
902.973	19738
903.091	19457
903.21	19483
903.328	19499
903.446	19377
903.565	19373
903.683	19285
903.801	19160
903.919	19343
904.038	19228
904.156	19015
904.274	19019
904.392	19000
904.51	19015
904.627	19000
904.745	19065
904.863	19065
904.981	18837
905.098	18601
905.216	18745
905.334	18673
905.451	18707
905.569	18658
905.686	18646
905.803	18650
905.921	18403
906.038	18639
906.155	18513
906.272	18369
906.389	18388
906.506	18163
906.623	18251
906.74	18228
906.857	18068
906.974	18182
907.091	18300
907.208	18350
907.324	18220
907.441	18038
907.557	17939
907.674	17901
907.79	17916
907.907	17843
908.023	17950
908.139	17931
908.256	17908
908.372	17828
908.488	17878
908.604	17680
908.72	17630
908.836	17718
908.952	17577
909.068	17653
909.184	17859
909.3	17619
909.415	17691
909.531	17512
909.647	17429
909.762	17299
909.878	17315
909.993	17425
910.108	17360
910.224	17296
910.339	17463
910.454	17235
910.57	17083
910.685	17041
910.8	17235
910.915	17189
911.03	17273
911.145	16987
911.259	16946
911.374	16824
911.489	16934
911.604	16839
911.718	16637
911.833	16641
911.947	16649
912.062	16451
912.176	16634
912.291	16767
912.405	16675
912.519	16881
912.633	16816
912.748	16805
912.862	16565
912.976	16478
913.09	16306
913.204	16409
913.318	16478
913.431	16668
913.545	16653
913.659	16577
913.772	16455
913.886	16284
914	16299
914.113	16333
914.226	16390
914.34	16386
914.453	16166
914.566	16299
914.68	16154
914.793	16147
914.906	15956
915.019	15888
915.132	15831
915.245	15781
915.358	15766
915.47	15804
915.583	15781
915.696	15816
915.809	15934
915.921	15972
916.034	15842
916.146	15831
916.259	15717
916.371	15838
916.483	15747
916.595	15682
916.708	15591
916.82	15644
916.932	15618
917.044	15709
917.156	15538
917.268	15492
917.38	15511
917.491	15397
917.603	15481
917.715	15534
917.826	15587
917.938	15386
918.049	15279
918.161	15473
918.272	15553
918.384	15481
918.495	15348
918.606	15222
918.717	15184
918.828	15195
918.939	15218
919.05	15074
919.161	15275
919.272	14948
919.383	15024
919.494	15214
919.604	15336
919.715	15180
919.826	15100
919.936	15176
920.047	15192
920.157	15199
920.267	15408
920.378	15211
920.488	15226
920.598	15249
920.708	15545
920.818	15367
920.928	15241
921.038	15401
921.148	15374
921.258	15150
921.368	14933
921.477	14918
921.587	14788
921.697	14682
921.806	14979
921.916	14769
922.025	14518
922.134	14522
922.244	14431
922.353	14541
922.462	14404
922.571	14370
922.68	14263
922.789	14081
922.898	14187
923.007	14077
923.116	14069
923.224	14077
923.333	14145
923.442	14058
923.55	14012
923.659	14062
923.767	14016
923.876	13974
923.984	13959
924.092	13814
924.201	13921
924.309	13871
924.417	13978
924.525	13868
924.633	13776
924.741	14735
924.849	13521
924.956	13837
925.064	13613
925.172	13556
925.279	13514
925.387	13556
925.494	13559
925.602	13727
925.709	13491
925.816	13362
925.924	13365
926.031	13548
926.138	13544
926.245	13480
926.352	13453
926.459	13521
926.566	13476
926.673	13445
926.779	13282
926.886	13221
926.993	13065
927.099	13050
927.206	13034
927.312	13019
927.419	13110
927.525	13061
927.631	13129
927.737	12943
927.843	12935
927.95	12814
928.056	12932
928.162	12928
928.267	12928
928.373	13487
928.479	12939
928.585	12715
928.69	12859
928.796	12962
928.901	12783
929.007	12654
929.112	12696
929.218	12753
929.323	12798
929.428	12544
929.533	12658
929.638	12608
929.743	12509
929.848	12544
929.953	12555
930.058	12506
930.163	12300
930.267	12407
930.372	12422
930.477	12285
930.581	12422
930.685	12296
930.79	12098
930.894	12159
930.998	12178
931.103	12266
931.207	11805
931.311	11824
931.415	11707
931.519	11577
931.623	11532
