Data from test_V78500241_2135.txt Node
Date: Fri Mar 25 15:56:35 CST 2022
User: usil
Spectrometer: V785-0024
Trigger mode: 0
Integration Time (sec): 4.000000E-1
Scans to average: 1
Nonlinearity correction enabled: false
Boxcar width: 0
Storing dark spectrum: false
XAxis mode: Wavelengths
Number of Pixels in Spectrum: 1024
>>>>>Begin Spectral Data<<<<<
801.071	29018
801.214	28927
801.356	28805
801.499	28641
801.641	28588
801.783	28519
801.926	28706
802.068	28573
802.211	28546
802.353	28417
802.496	28398
802.638	28291
802.78	28257
802.923	28268
803.065	28128
803.208	28291
803.35	28401
803.492	28413
803.635	28474
803.777	28436
803.919	28580
804.061	28858
804.204	28706
804.346	28527
804.488	28466
804.63	28550
804.773	28504
804.915	28588
805.057	28778
805.199	28630
805.341	28713
805.483	28717
805.626	28630
805.768	28641
805.91	28748
806.052	28763
806.194	28546
806.336	28877
806.478	28721
806.62	28767
806.762	28927
806.904	29037
807.046	29375
807.188	29143
807.33	29197
807.472	29254
807.614	29132
807.756	29056
807.898	29083
808.04	28968
808.182	28961
808.324	28976
808.465	29041
808.607	29269
808.749	29425
808.891	29528
809.033	29490
809.174	29478
809.316	29307
809.458	29452
809.6	29421
809.741	29417
809.883	29577
810.025	29649
810.166	29558
810.308	29691
810.45	29649
810.591	29509
810.733	29482
810.875	29406
811.016	29322
811.158	29208
811.299	29661
811.441	29554
811.582	29566
811.724	29368
811.865	29307
812.007	29372
812.148	29307
812.29	29315
812.431	29570
812.573	29847
812.714	29942
812.855	30129
812.997	30068
813.138	30091
813.279	30117
813.421	29904
813.562	29859
813.703	29859
813.845	29585
813.986	29562
814.127	29071
814.268	29079
814.41	29242
814.551	29083
814.692	29208
814.833	29071
814.974	29140
815.115	29204
815.256	28919
815.397	29003
815.539	29098
815.68	29041
815.821	28904
815.962	29018
816.103	28911
816.244	28892
816.385	28782
816.526	28729
816.666	28569
816.807	28512
816.948	28470
817.089	28592
817.23	28523
817.371	28432
817.512	28500
817.653	28466
817.793	28265
817.934	28352
818.075	28504
818.216	28386
818.356	28341
818.497	28379
818.638	28154
818.778	28219
818.919	28291
819.06	28226
819.2	28310
819.341	28493
819.481	28474
819.622	28493
819.762	28828
819.903	28668
820.043	28565
820.184	28626
820.324	28618
820.465	28706
820.605	28611
820.746	28649
820.886	28394
821.026	28592
821.167	28717
821.307	28679
821.447	28561
821.588	28417
821.728	28204
821.868	27998
822.008	27899
822.149	27876
822.289	27918
822.429	27618
822.569	27724
822.709	27644
822.849	27530
822.99	27408
823.13	27351
823.27	27275
823.41	27336
823.55	27252
823.69	27138
823.83	27306
823.97	27325
824.11	27036
824.25	27047
824.389	27161
824.529	27222
824.669	27180
824.809	27233
824.949	27214
825.089	27199
825.228	27108
825.368	26887
825.508	27009
825.648	27104
825.787	26921
825.927	27001
826.067	26960
826.206	26910
826.346	26971
826.485	27127
826.625	26956
826.765	27108
826.904	26887
827.044	26819
827.183	26716
827.323	26796
827.462	26712
827.601	26629
827.741	26708
827.88	26750
828.02	26617
828.159	26571
828.298	26785
828.437	26750
828.577	26659
828.716	26788
828.855	26613
828.994	26396
829.134	26389
829.273	26290
829.412	26404
829.551	26305
829.69	26419
829.829	26434
829.968	26495
830.107	26499
830.246	26305
830.385	26400
830.524	26286
830.663	26218
830.802	26092
830.941	25989
831.08	26008
831.219	26134
831.357	26111
831.496	26218
831.635	25883
831.774	25890
831.913	25902
832.051	25879
832.19	25715
832.329	25772
832.467	25708
832.606	25693
832.744	25628
832.883	25616
833.022	25571
833.16	25594
833.299	25788
833.437	25643
833.576	25708
833.714	25681
833.852	25738
833.991	25746
834.129	25856
834.267	25658
834.406	25738
834.544	25818
834.682	25723
834.821	25700
834.959	25894
835.097	25674
835.235	25742
835.373	25708
835.511	25776
835.65	25582
835.788	25506
835.926	25392
836.064	25293
836.202	25468
836.34	25567
836.478	25635
836.615	25609
836.753	25559
836.891	25552
837.029	25548
837.167	25377
837.305	25419
837.443	25411
837.58	25430
837.718	25499
837.856	25449
837.993	25411
838.131	25320
838.269	25183
838.406	25301
838.544	25183
838.681	25080
838.819	24920
838.956	24825
839.094	24825
839.231	24867
839.369	24958
839.506	25236
839.643	25038
839.781	24852
839.918	24840
840.055	24913
840.193	24711
840.33	24749
840.467	24730
840.604	24772
840.742	24989
840.879	24490
841.016	24711
841.153	24437
841.29	24852
841.427	24779
841.564	24734
841.701	24825
841.838	24574
841.975	24620
842.112	24620
842.249	24551
842.385	24490
842.522	24608
842.659	24509
842.796	24483
842.933	24494
843.069	24418
843.206	24426
843.343	24563
843.479	24479
843.616	24407
843.752	24243
843.889	24338
844.025	24513
844.162	24292
844.298	24220
844.435	24224
844.571	24289
844.708	24251
844.844	24334
844.98	24486
845.117	24270
845.253	24262
845.389	24106
845.525	24167
845.661	24038
845.798	24003
845.934	24041
846.07	24022
846.206	23965
846.342	23931
846.478	23999
846.614	23878
846.75	23710
846.886	23600
847.022	23760
847.158	23733
847.294	23737
847.429	23657
847.565	23672
847.701	23893
847.837	23417
847.972	23368
848.108	23543
848.244	23570
848.379	23277
848.515	23250
848.65	23124
848.786	23261
848.921	23292
849.057	23395
849.192	23444
849.328	23440
849.463	23231
849.598	23353
849.734	23299
849.869	23083
850.004	23098
850.14	23044
850.275	23071
850.41	22946
850.545	23048
850.68	23048
850.815	23170
850.95	22968
851.085	23200
851.22	23132
851.355	23060
851.49	22946
851.625	23018
851.76	23056
851.895	22953
852.03	22850
852.165	23113
852.299	23075
852.434	23124
852.569	23098
852.703	23075
852.838	23151
852.973	23140
853.107	23121
853.242	23033
853.376	22976
853.511	22839
853.645	22713
853.78	22999
853.914	22965
854.048	22801
854.183	22866
854.317	22896
854.451	23094
854.585	22934
854.72	22828
854.854	22995
854.988	22949
855.122	22839
855.256	22809
855.39	22900
855.524	22961
855.658	22965
855.792	22835
855.926	23006
856.06	22999
856.194	23014
856.327	22816
856.461	22889
856.595	22767
856.729	22881
856.862	22908
856.996	22980
857.13	22968
857.263	22949
857.397	22999
857.53	22915
857.664	22839
857.797	22949
857.931	22930
858.064	22885
858.197	22968
858.331	22843
858.464	22771
858.597	22797
858.731	22839
858.864	22710
858.997	22866
859.13	22801
859.263	22908
859.396	23083
859.529	22984
859.662	22782
859.795	22820
859.928	22771
860.061	23105
860.194	23071
860.327	22976
860.46	22889
860.592	23083
860.725	23056
860.858	23025
860.99	22976
861.123	22904
861.256	22706
861.388	22908
861.521	23531
861.653	22755
861.786	22622
861.918	22740
862.05	22656
862.183	22763
862.315	22835
862.447	22854
862.58	22740
862.712	22611
862.844	22489
862.976	22702
863.108	22577
863.24	23083
863.372	22497
863.504	22626
863.636	22626
863.768	22565
863.9	22656
864.032	22512
864.164	22596
864.296	22565
864.428	22615
864.559	22641
864.691	22672
864.823	22561
864.954	22481
865.086	22493
865.217	22508
865.349	22284
865.48	22352
865.612	22459
865.743	22611
865.875	22508
866.006	22459
866.137	22508
866.269	22546
866.4	22329
866.531	22447
866.662	22367
866.793	22398
866.924	22268
867.055	22409
867.186	22470
867.317	22375
867.448	22295
867.579	22360
867.71	22371
867.841	22333
867.972	22485
868.103	22379
868.233	22394
868.364	22443
868.495	22466
868.625	22710
868.756	22820
868.886	22481
869.017	22577
869.147	22698
869.278	22801
869.408	22546
869.539	22615
869.669	22691
869.799	22596
869.929	22706
870.06	22721
870.19	22889
870.32	22991
870.45	22850
870.58	22942
870.71	23048
870.84	23166
870.97	23037
871.1	23052
871.23	23273
871.36	23223
871.489	23006
871.619	23166
871.749	23197
871.879	23223
872.008	23318
872.138	23250
872.267	23197
872.397	23064
872.526	22938
872.656	23083
872.785	22965
872.915	23227
873.044	23410
873.173	23086
873.303	23391
873.432	23299
873.561	23425
873.69	23353
873.819	23200
873.948	23220
874.077	23212
874.206	23124
874.335	23166
874.464	23242
874.593	23353
874.722	23501
874.851	23391
874.979	23341
875.108	23455
875.237	23395
875.365	23280
875.494	23490
875.623	23531
875.751	23417
875.88	23440
876.008	23547
876.136	23649
876.265	23767
876.393	23920
876.521	23859
876.65	23847
876.778	23904
876.906	23676
877.034	23802
877.162	23897
877.29	23585
877.418	23824
877.546	23726
877.674	23748
877.802	23885
877.93	23695
878.058	23646
878.185	23680
878.313	23676
878.441	23786
878.568	23729
878.696	23672
878.824	23767
878.951	23752
879.079	23931
879.206	24064
879.333	23999
879.461	23790
879.588	23771
879.715	23973
879.842	24155
879.97	23813
880.097	23604
880.224	23630
880.351	23756
880.478	23543
880.605	23490
880.732	23619
880.859	23851
880.986	23554
881.112	23627
881.239	23345
881.366	23318
881.493	23216
881.619	23121
881.746	23292
881.872	23258
881.999	23060
882.125	23022
882.252	23204
882.378	23098
882.505	23311
882.631	22911
882.757	22915
882.883	22904
883.01	22797
883.136	22729
883.262	22763
883.388	22500
883.514	22782
883.64	22843
883.766	22790
883.892	22516
884.018	22596
884.143	22744
884.269	22824
884.395	22424
884.52	22352
884.646	22557
884.772	22303
884.897	22295
885.023	22561
885.148	22569
885.274	22580
885.399	22550
885.524	22527
885.65	22405
885.775	22462
885.9	22207
886.025	22474
886.15	22478
886.275	22455
886.4	22287
886.525	22306
886.65	22360
886.775	22276
886.9	22459
887.025	22527
887.149	22459
887.274	22211
887.399	22204
887.523	22265
887.648	22196
887.773	22207
887.897	22219
888.021	22238
888.146	22226
888.27	22219
888.395	22226
888.519	22280
888.643	22310
888.767	22234
888.891	22063
889.015	22017
889.139	22150
889.263	22010
889.387	22261
889.511	22188
889.635	22124
889.759	21960
889.883	22051
890.006	21991
890.13	22082
890.254	21991
890.377	21926
890.501	21778
890.624	21610
890.748	21785
890.871	21637
890.995	21614
891.118	21462
891.241	21561
891.364	21591
891.488	21629
891.611	21564
891.734	21580
891.857	21625
891.98	21587
892.103	21504
892.226	21511
892.349	21424
892.471	21370
892.594	21439
892.717	21504
892.839	21416
892.962	21435
893.085	21610
893.207	21462
893.33	21233
893.452	21359
893.575	21485
893.697	21389
893.819	21580
893.941	21473
894.064	21526
894.186	21340
894.308	21317
894.43	21492
894.552	21709
894.674	21591
894.796	21351
894.918	21317
895.04	21336
895.161	21519
895.283	21370
895.405	21348
895.526	21386
895.648	21431
895.769	21458
895.891	21310
896.012	21412
896.134	21363
896.255	21313
896.376	21348
896.498	21378
896.619	21367
896.74	21344
896.861	21405
896.982	21686
897.103	21759
897.224	21595
897.345	21625
897.466	21549
897.587	21583
897.708	21629
897.828	21614
897.949	21553
898.07	21370
898.19	21580
898.311	21614
898.431	21439
898.552	21580
898.672	21629
898.792	21656
898.913	21587
899.033	21428
899.153	21405
899.273	21119
899.393	21386
899.513	21302
899.633	21306
899.753	21279
899.873	21245
899.993	21306
900.113	21230
900.232	21249
900.352	21268
900.472	21062
900.591	21093
900.711	21043
900.83	21028
900.95	21203
901.069	21150
901.189	20857
901.308	20716
901.427	20678
901.546	20556
901.665	20606
901.784	20507
901.904	20541
902.023	20396
902.141	20115
902.26	20267
902.379	20145
902.498	20191
902.617	20081
902.735	20172
902.854	20046
902.973	20115
903.091	19624
903.21	19826
903.328	19818
903.446	19696
903.565	19601
903.683	19597
903.801	19434
903.919	19575
904.038	19544
904.156	19312
904.274	19396
904.392	19297
904.51	19190
904.627	19282
904.745	19331
904.863	19304
904.981	19114
905.098	19065
905.216	19072
905.334	19053
905.451	18996
905.569	19053
905.686	19031
905.803	18939
905.921	18745
906.038	18924
906.155	18875
906.272	18802
906.389	18734
906.506	18540
906.623	18528
906.74	18544
906.857	18471
906.974	18414
907.091	18582
907.208	18525
907.324	18559
907.441	18471
907.557	18311
907.674	18220
907.79	18182
907.907	18171
908.023	18201
908.139	18251
908.256	18079
908.372	18114
908.488	18114
908.604	17958
908.72	17984
908.836	17935
908.952	17893
909.068	17927
909.184	17958
909.3	17923
909.415	18038
909.531	18026
909.647	17707
909.762	17638
909.878	17630
909.993	17707
910.108	17573
910.224	17668
910.339	17585
910.454	17512
910.57	17452
910.685	17356
910.8	17638
910.915	17627
911.03	17478
911.145	17261
911.259	17235
911.374	17170
911.489	17105
911.604	17033
911.718	16828
911.833	17006
911.947	16873
912.062	16847
912.176	17025
912.291	16938
912.405	16896
912.519	17151
912.633	17212
912.748	16968
912.862	16843
912.976	16702
913.09	16565
913.204	16706
913.318	16710
913.431	16755
913.545	16869
913.659	16778
913.772	16706
913.886	16603
914	16584
914.113	16668
914.226	16755
914.34	16554
914.453	16462
914.566	16569
914.68	16394
914.793	16348
914.906	16143
915.019	16219
915.132	16032
915.245	16025
915.358	16158
915.47	16090
915.583	16181
915.696	16074
915.809	16147
915.921	16295
916.034	16101
916.146	15968
916.259	15892
916.371	16120
916.483	16021
916.595	15911
916.708	15903
916.82	15926
916.932	15812
917.044	15850
917.156	15774
917.268	15576
917.38	15747
917.491	15705
917.603	15660
917.715	15785
917.826	15743
917.938	15622
918.049	15519
918.161	15720
918.272	15892
918.384	15770
918.495	15675
918.606	15523
918.717	15397
918.828	15435
918.939	15488
919.05	15344
919.161	15370
919.272	15260
919.383	15245
919.494	15545
919.604	15679
919.715	15534
919.826	15294
919.936	15378
920.047	15477
920.157	15317
920.267	15572
920.378	15336
920.488	15340
920.598	15595
920.708	15698
920.818	15584
920.928	15549
921.038	15694
921.148	15568
921.258	15420
921.368	15241
921.477	15237
921.587	15123
921.697	14937
921.806	15138
921.916	14971
922.025	14853
922.134	14731
922.244	14701
922.353	14830
922.462	14655
922.571	14552
922.68	14488
922.789	14389
922.898	14473
923.007	14370
923.116	14389
923.224	14332
923.333	14263
923.442	14240
923.55	14130
923.659	14187
923.767	14229
923.876	14145
923.984	14237
924.092	14130
924.201	14134
924.309	14073
924.417	14046
924.525	14016
924.633	14008
924.741	14754
924.849	13712
924.956	13871
925.064	13791
925.172	13731
925.279	13784
925.387	13700
925.494	13696
925.602	13864
925.709	13852
925.816	13628
925.924	13674
926.031	13738
926.138	13575
926.245	13685
926.352	13552
926.459	13803
926.566	13685
926.673	13567
926.779	13537
926.886	13445
926.993	13403
927.099	13247
927.206	13282
927.312	13293
927.419	13244
927.525	13278
927.631	13304
927.737	13198
927.843	13126
927.95	13061
928.056	13145
928.162	13069
928.267	13187
928.373	13761
928.479	13190
928.585	12943
928.69	13072
928.796	13050
928.901	12966
929.007	12837
929.112	12943
929.218	12970
929.323	12875
929.428	12848
929.533	12977
929.638	12791
929.743	12711
929.848	12806
929.953	12711
930.058	12597
930.163	12502
930.267	12509
930.372	12642
930.477	12380
930.581	12620
930.685	12525
930.79	12357
930.894	12391
930.998	12353
931.103	12513
931.207	12155
931.311	12019
931.415	11984
931.519	11688
931.623	11710
