Data from test_V78500241_1480.txt Node
Date: Fri Mar 25 15:52:03 CST 2022
User: usil
Spectrometer: V785-0024
Trigger mode: 0
Integration Time (sec): 4.000000E-1
Scans to average: 1
Nonlinearity correction enabled: false
Boxcar width: 0
Storing dark spectrum: false
XAxis mode: Wavelengths
Number of Pixels in Spectrum: 1024
>>>>>Begin Spectral Data<<<<<
801.071	27793
801.214	27873
801.356	27641
801.499	27622
801.641	27397
801.783	27420
801.926	27386
802.068	27325
802.211	27268
802.353	27374
802.496	27165
802.638	27081
802.78	27093
802.923	26971
803.065	26967
803.208	26925
803.35	27165
803.492	27089
803.635	27325
803.777	27226
803.919	27180
804.061	27614
804.204	27252
804.346	27188
804.488	27161
804.63	27249
804.773	27100
804.915	27363
805.057	27370
805.199	27154
805.341	27389
805.483	27435
805.626	27321
805.768	27287
805.91	27325
806.052	27462
806.194	27294
806.336	27523
806.478	27283
806.62	27568
806.762	27557
806.904	27549
807.046	27823
807.188	27743
807.33	27823
807.472	27797
807.614	27629
807.756	27713
807.898	27564
808.04	27720
808.182	27679
808.324	27530
808.465	27686
808.607	27911
808.749	27926
808.891	28135
809.033	28306
809.174	28063
809.316	27949
809.458	27987
809.6	28021
809.741	28029
809.883	28173
810.025	28341
810.166	28284
810.308	28299
810.45	28287
810.591	28150
810.733	27991
810.875	27975
811.016	27857
811.158	27880
811.299	28029
811.441	28097
811.582	28200
811.724	28002
811.865	27926
812.007	27998
812.148	28055
812.29	28135
812.431	28139
812.573	28253
812.714	28451
812.855	28485
812.997	28630
813.138	28634
813.279	28561
813.421	28550
813.562	28504
813.703	28470
813.845	28246
813.986	27953
814.127	27766
814.268	27728
814.41	27717
814.551	27595
814.692	27622
814.833	27759
814.974	27641
815.115	27717
815.256	27553
815.397	27580
815.539	27545
815.68	27542
815.821	27462
815.962	27526
816.103	27603
816.244	27329
816.385	27325
816.526	27344
816.666	27112
816.807	27036
816.948	27252
817.089	27138
817.23	26975
817.371	27017
817.512	26971
817.653	27100
817.793	26899
817.934	26872
818.075	27036
818.216	27070
818.356	27081
818.497	26864
818.638	26735
818.778	26697
818.919	26758
819.06	26811
819.2	26921
819.341	26910
819.481	27032
819.622	27047
819.762	27378
819.903	27203
820.043	27138
820.184	27203
820.324	27169
820.465	27142
820.605	27154
820.746	27108
820.886	26785
821.026	27032
821.167	27043
821.307	27112
821.447	27043
821.588	26838
821.728	26773
821.868	26689
822.008	26533
822.149	26571
822.289	26423
822.429	26134
822.569	26096
822.709	26062
822.849	26134
822.99	25871
823.13	25947
823.27	25898
823.41	25780
823.55	25708
823.69	25822
823.83	25890
823.97	25693
824.11	25681
824.25	25449
824.389	25609
824.529	25666
824.669	25597
824.809	25685
824.949	25955
825.089	25807
825.228	25750
825.368	25514
825.508	25487
825.648	25441
825.787	25533
825.927	25552
826.067	25457
826.206	25483
826.346	25487
826.485	25586
826.625	25472
826.765	25575
826.904	25712
827.044	25217
827.183	25255
827.323	25152
827.462	25384
827.601	25217
827.741	25187
827.88	25270
828.02	25027
828.159	25297
828.298	25324
828.437	25251
828.577	25209
828.716	25213
828.855	25053
828.994	25012
829.134	24992
829.273	25031
829.412	24985
829.551	24875
829.69	25008
829.829	24894
829.968	25015
830.107	25129
830.246	24928
830.385	24745
830.524	24871
830.663	24700
830.802	24604
830.941	24494
831.08	24513
831.219	24536
831.357	24513
831.496	24749
831.635	24513
831.774	24437
831.913	24509
832.051	24323
832.19	24410
832.329	24376
832.467	24174
832.606	24102
832.744	24224
832.883	24163
833.022	24216
833.16	24159
833.299	24110
833.437	24213
833.576	24266
833.714	24136
833.852	24361
833.991	24304
834.129	24308
834.267	24155
834.406	24178
834.544	24410
834.682	24186
834.821	24262
834.959	24388
835.097	24254
835.235	24186
835.373	24174
835.511	24247
835.65	24197
835.788	24155
835.926	23927
836.064	23878
836.202	24045
836.34	24235
836.478	24209
836.615	24030
836.753	24121
836.891	24129
837.029	24133
837.167	24022
837.305	23946
837.443	23923
837.58	23923
837.718	23916
837.856	23855
837.993	23992
838.131	23984
838.269	23790
838.406	23863
838.544	23733
838.681	23623
838.819	23505
838.956	23490
839.094	23372
839.231	23334
839.369	23535
839.506	23779
839.643	23642
839.781	23330
839.918	23356
840.055	23543
840.193	23429
840.33	23334
840.467	23288
840.604	23341
840.742	23638
840.879	23204
841.016	23353
841.153	23121
841.29	23436
841.427	23376
841.564	23299
841.701	23280
841.838	23292
841.975	23269
842.112	23098
842.249	23216
842.385	23079
842.522	23334
842.659	23064
842.796	23044
842.933	23105
843.069	23075
843.206	23064
843.343	23121
843.479	23132
843.616	23006
843.752	22889
843.889	22866
844.025	22987
844.162	22828
844.298	23029
844.435	22930
844.571	22873
844.708	22873
844.844	22858
844.98	22965
845.117	22991
845.253	22755
845.389	22713
845.525	22774
845.661	22596
845.798	22668
845.934	22759
846.07	22497
846.206	22512
846.342	22660
846.478	22527
846.614	22428
846.75	22295
846.886	22390
847.022	22337
847.158	22287
847.294	22329
847.429	22295
847.565	22276
847.701	22512
847.837	22059
847.972	22002
848.108	22048
848.244	22143
848.379	21922
848.515	21892
848.65	21850
848.786	21956
848.921	22032
849.057	21972
849.192	22021
849.328	21949
849.463	21812
849.598	21838
849.734	21762
849.869	21728
850.004	21610
850.14	21679
850.275	21728
850.41	21572
850.545	21538
850.68	21561
850.815	21724
850.95	21762
851.085	21888
851.22	21713
851.355	21800
851.49	21732
851.625	21644
851.76	21606
851.895	21576
852.03	21618
852.165	21572
852.299	21690
852.434	21781
852.569	21675
852.703	21603
852.838	21690
852.973	21785
853.107	21778
853.242	21603
853.376	21606
853.511	21428
853.645	21367
853.78	21591
853.914	21431
854.048	21447
854.183	21511
854.317	21473
854.451	21675
854.585	21428
854.72	21488
854.854	21572
854.988	21420
855.122	21382
855.256	21378
855.39	21492
855.524	21542
855.658	21530
855.792	21458
855.926	21561
856.06	21564
856.194	21610
856.327	21416
856.461	21344
856.595	21469
856.729	21511
856.862	21545
856.996	21576
857.13	21473
857.263	21542
857.397	21622
857.53	21538
857.664	21599
857.797	21473
857.931	21576
858.064	21587
858.197	21622
858.331	21443
858.464	21462
858.597	21424
858.731	21568
858.864	21367
858.997	21443
859.13	21420
859.263	21443
859.396	21526
859.529	21504
859.662	21435
859.795	21450
859.928	21507
860.061	21679
860.194	21564
860.327	21519
860.46	21530
860.592	21637
860.725	21603
860.858	21561
860.99	21538
861.123	21397
861.256	21420
861.388	21450
861.521	22238
861.653	21313
861.786	21294
861.918	21351
862.05	21370
862.183	21416
862.315	21321
862.447	21496
862.58	21439
862.712	21165
862.844	21154
862.976	21207
863.108	21363
863.24	21652
863.372	21085
863.504	21119
863.636	21336
863.768	21211
863.9	21275
864.032	21108
864.164	21176
864.296	21211
864.428	21310
864.559	21256
864.691	21382
864.823	21237
864.954	21237
865.086	21157
865.217	21093
865.349	20967
865.48	21089
865.612	21135
865.743	21321
865.875	21157
866.006	20990
866.137	21089
866.269	21055
866.4	21039
866.531	20971
866.662	21112
866.793	21077
866.924	20971
867.055	21104
867.186	21005
867.317	20979
867.448	20960
867.579	20986
867.71	20887
867.841	20853
867.972	21058
868.103	21047
868.233	20925
868.364	20998
868.495	21100
868.625	21287
868.756	21310
868.886	21199
869.017	21454
869.147	21435
869.278	21412
869.408	21389
869.539	21332
869.669	21397
869.799	21329
869.929	21431
870.06	21374
870.19	21622
870.32	21591
870.45	21637
870.58	21641
870.71	21800
870.84	21679
870.97	21625
871.1	21667
871.23	21941
871.36	21751
871.489	21876
871.619	21861
871.749	21846
871.879	21762
872.008	21960
872.138	21899
872.267	21869
872.397	21603
872.526	21652
872.656	21781
872.785	21656
872.915	21835
873.044	22025
873.173	21850
873.303	21869
873.432	21979
873.561	21964
873.69	21915
873.819	21816
873.948	21975
874.077	21953
874.206	21937
874.335	21873
874.464	22090
874.593	22131
874.722	22124
874.851	22200
874.979	22192
875.108	22242
875.237	22105
875.365	22010
875.494	22188
875.623	22139
875.751	22078
875.88	22204
876.008	22265
876.136	22261
876.265	22481
876.393	22725
876.521	22538
876.65	22611
876.778	22459
876.906	22474
877.034	22474
877.162	22462
877.29	22310
877.418	22489
877.546	22344
877.674	22386
877.802	22493
877.93	22424
878.058	22421
878.185	22253
878.313	22428
878.441	22470
878.568	22341
878.696	22432
878.824	22584
878.951	22485
879.079	22698
879.206	22778
879.333	22649
879.461	22500
879.588	22573
879.715	22459
879.842	22869
879.97	22523
880.097	22230
880.224	22223
880.351	22318
880.478	22310
880.605	22318
880.732	22314
880.859	22531
880.986	22257
881.112	22268
881.239	22177
881.366	22006
881.493	22013
881.619	21876
881.746	21949
881.872	21781
881.999	21907
882.125	21857
882.252	21861
882.378	21785
882.505	21915
882.631	21553
882.757	21614
882.883	21705
883.01	21564
883.136	21534
883.262	21317
883.388	21420
883.514	21652
883.64	21534
883.766	21500
883.892	21348
884.018	21439
884.143	21557
884.269	21557
884.395	21264
884.52	21252
884.646	21184
884.772	21108
884.897	20979
885.023	21085
885.148	21359
885.274	21325
885.399	21275
885.524	21074
885.65	21173
885.775	21119
885.9	21093
886.025	21367
886.15	21306
886.275	21108
886.4	21116
886.525	21203
886.65	21104
886.775	21100
886.9	21268
887.025	21329
887.149	21142
887.274	21058
887.399	20960
887.523	20864
887.648	20971
887.773	20891
887.897	21047
888.021	21043
888.146	20845
888.27	20963
888.395	21104
888.519	20982
888.643	21005
888.767	20948
888.891	20815
889.015	20708
889.139	20857
889.263	20785
889.387	20876
889.511	20979
889.635	20823
889.759	20697
889.883	20670
890.006	20712
890.13	20872
890.254	20686
890.377	20705
890.501	20511
890.624	20450
890.748	20427
890.871	20400
890.995	20275
891.118	20320
891.241	20336
891.364	20244
891.488	20484
891.611	20298
891.734	20431
891.857	20400
891.98	20381
892.103	20404
892.226	20332
892.349	20294
892.471	20142
892.594	20309
892.717	20256
892.839	20259
892.962	20305
893.085	20320
893.207	20339
893.33	20161
893.452	20115
893.575	20256
893.697	20126
893.819	20469
893.941	20374
894.064	20278
894.186	20065
894.308	20195
894.43	20400
894.552	20473
894.674	20377
894.796	20107
894.918	20244
895.04	20206
895.161	20298
895.283	20294
895.405	20142
895.526	20233
895.648	20145
895.769	20157
895.891	20298
896.012	20259
896.134	20229
896.255	20259
896.376	20176
896.498	20244
896.619	20278
896.74	20161
896.861	20313
896.982	20632
897.103	20651
897.224	20450
897.345	20423
897.466	20438
897.587	20366
897.708	20461
897.828	20503
897.949	20351
898.07	20362
898.19	20294
898.311	20514
898.431	20332
898.552	20446
898.672	20454
898.792	20484
898.913	20503
899.033	20305
899.153	20278
899.273	20050
899.393	20115
899.513	20218
899.633	20244
899.753	20134
899.873	20111
899.993	20229
900.113	20115
900.232	20153
900.352	20210
900.472	20084
900.591	20031
900.711	19997
900.83	19875
900.95	20024
901.069	20062
901.189	19875
901.308	19590
901.427	19495
901.546	19480
901.665	19613
901.784	19586
901.904	19400
902.023	19403
902.141	19148
902.26	19088
902.379	19141
902.498	19027
902.617	19019
902.735	19148
902.854	19129
902.973	18954
903.091	18764
903.21	18692
903.328	18654
903.446	18665
903.565	18471
903.683	18486
903.801	18433
903.919	18486
904.038	18498
904.156	18232
904.274	18369
904.392	18262
904.51	18319
904.627	18334
904.745	18308
904.863	18319
904.981	17920
905.098	17908
905.216	17977
905.334	18076
905.451	17931
905.569	17897
905.686	17961
905.803	17946
905.921	17832
906.038	17805
906.155	17821
906.272	17665
906.389	17684
906.506	17524
906.623	17497
906.74	17478
906.857	17395
906.974	17440
907.091	17493
907.208	17722
907.324	17539
907.441	17414
907.557	17459
907.674	17212
907.79	17075
907.907	17288
908.023	17162
908.139	17239
908.256	17189
908.372	17136
908.488	17124
908.604	16984
908.72	16877
908.836	16908
908.952	16835
909.068	16934
909.184	16968
909.3	16972
909.415	16976
909.531	17022
909.647	16733
909.762	16702
909.878	16596
909.993	16637
910.108	16516
910.224	16580
910.339	16485
910.454	16459
910.57	16523
910.685	16341
910.8	16546
910.915	16618
911.03	16512
911.145	16417
911.259	16265
911.374	16291
911.489	16177
911.604	16116
911.718	15983
911.833	15964
911.947	15865
912.062	15873
912.176	16025
912.291	16036
912.405	15968
912.519	16188
912.633	16154
912.748	16017
912.862	15937
912.976	15736
913.09	15637
913.204	15793
913.318	15846
913.431	15907
913.545	15865
913.659	16010
913.772	15762
913.886	15728
914	15549
914.113	15663
914.226	15743
914.34	15614
914.453	15450
914.566	15656
914.68	15447
914.793	15485
914.906	15256
915.019	15283
915.132	15123
915.245	15211
915.358	15241
915.47	15199
915.583	15203
915.696	15226
915.809	15264
915.921	15389
916.034	15051
916.146	15157
916.259	15112
916.371	15226
916.483	15230
916.595	15028
916.708	15009
916.82	14975
916.932	14975
917.044	14880
917.156	14979
917.268	14842
917.38	14914
917.491	14876
917.603	14929
917.715	14876
917.826	14887
917.938	14777
918.049	14629
918.161	14731
918.272	14963
918.384	14883
918.495	14743
918.606	14708
918.717	14579
918.828	14602
918.939	14648
919.05	14545
919.161	14617
919.272	14347
919.383	14389
919.494	14689
919.604	14804
919.715	14659
919.826	14590
919.936	14617
920.047	14526
920.157	14503
920.267	14712
920.378	14583
920.488	14469
920.598	14781
920.708	14895
920.818	14720
920.928	14594
921.038	14811
921.148	14743
921.258	14507
921.368	14355
921.477	14393
921.587	14298
921.697	14248
921.806	14358
921.916	14046
922.025	14035
922.134	13925
922.244	13818
922.353	13928
922.462	13772
922.571	13780
922.68	13651
922.789	13582
922.898	13582
923.007	13506
923.116	13609
923.224	13575
923.333	13552
923.442	13400
923.55	13403
923.659	13506
923.767	13533
923.876	13354
923.984	13502
924.092	13263
924.201	13316
924.309	13324
924.417	13324
924.525	13168
924.633	13278
924.741	14123
924.849	13091
924.956	13316
925.064	13050
925.172	12966
925.279	13107
925.387	12993
925.494	13004
925.602	13107
925.709	13076
925.816	12993
925.924	12939
926.031	13027
926.138	12977
926.245	12947
926.352	12886
926.459	12909
926.566	13091
926.673	12932
926.779	12768
926.886	12825
926.993	12677
927.099	12612
927.206	12604
927.312	12544
927.419	12578
927.525	12502
927.631	12616
927.737	12547
927.843	12308
927.95	12224
928.056	12448
928.162	12296
928.267	12486
928.373	13012
928.479	12498
928.585	12247
928.69	12258
928.796	12445
928.901	12186
929.007	12110
929.112	12213
929.218	12251
929.323	12144
929.428	12072
929.533	12197
929.638	11996
929.743	12110
929.848	12159
929.953	12125
930.058	11954
930.163	11836
930.267	11885
930.372	11984
930.477	11764
930.581	12019
930.685	11783
930.79	11684
930.894	11695
930.998	11688
931.103	11824
931.207	11478
931.311	11246
931.415	11223
931.519	11159
931.623	11113
