Data from test_V78500241_2348.txt Node
Date: Fri Mar 25 15:58:03 CST 2022
User: usil
Spectrometer: V785-0024
Trigger mode: 0
Integration Time (sec): 4.000000E-1
Scans to average: 1
Nonlinearity correction enabled: false
Boxcar width: 0
Storing dark spectrum: false
XAxis mode: Wavelengths
Number of Pixels in Spectrum: 1024
>>>>>Begin Spectral Data<<<<<
801.071	28687
801.214	28752
801.356	28466
801.499	28561
801.641	28417
801.783	28299
801.926	28322
802.068	28249
802.211	28337
802.353	28147
802.496	28169
802.638	27960
802.78	28135
802.923	27895
803.065	27964
803.208	27926
803.35	28055
803.492	28131
803.635	28219
803.777	28188
803.919	28223
804.061	28519
804.204	28299
804.346	28196
804.488	28181
804.63	28204
804.773	28211
804.915	28303
805.057	28356
805.199	28398
805.341	28504
805.483	28481
805.626	28451
805.768	28379
805.91	28413
806.052	28504
806.194	28295
806.336	28656
806.478	28459
806.62	28428
806.762	28557
806.904	28736
807.046	28847
807.188	28915
807.33	28885
807.472	28847
807.614	28774
807.756	28896
807.898	28831
808.04	28649
808.182	28820
808.324	28793
808.465	28824
808.607	28885
808.749	29140
808.891	29223
809.033	29147
809.174	29079
809.316	29124
809.458	29075
809.6	29064
809.741	29246
809.883	29181
810.025	29322
810.166	29280
810.308	29360
810.45	29299
810.591	29269
810.733	29265
810.875	29193
811.016	29102
811.158	28984
811.299	29189
811.441	29337
811.582	29315
811.724	29136
811.865	29056
812.007	29056
812.148	29140
812.29	29052
812.431	29322
812.573	29497
812.714	29592
812.855	29634
812.997	29767
813.138	29874
813.279	29821
813.421	29558
813.562	29589
813.703	29505
813.845	29341
813.986	29048
814.127	29022
814.268	28900
814.41	28793
814.551	28824
814.692	28824
814.833	28603
814.974	28847
815.115	28946
815.256	28691
815.397	28725
815.539	28710
815.68	28675
815.821	28584
815.962	28538
816.103	28706
816.244	28569
816.385	28542
816.526	28386
816.666	28234
816.807	28280
816.948	28051
817.089	28223
817.23	28021
817.371	28261
817.512	28181
817.653	28154
817.793	28082
817.934	28192
818.075	28196
818.216	28242
818.356	28124
818.497	28097
818.638	27956
818.778	27922
818.919	27949
819.06	28040
819.2	28010
819.341	28185
819.481	28211
819.622	28348
819.762	28577
819.903	28405
820.043	28223
820.184	28363
820.324	28306
820.465	28329
820.605	28299
820.746	28192
820.886	28219
821.026	28261
821.167	28272
821.307	28284
821.447	28185
821.588	28158
821.728	27972
821.868	27838
822.008	27709
822.149	27698
822.289	27618
822.429	27466
822.569	27298
822.709	27469
822.849	27138
822.99	27154
823.13	27043
823.27	27116
823.41	26979
823.55	26963
823.69	26921
823.83	26944
823.97	26948
824.11	26887
824.25	26845
824.389	26739
824.529	26895
824.669	26857
824.809	26944
824.949	27024
825.089	26921
825.228	26754
825.368	26781
825.508	26655
825.648	26583
825.787	26640
825.927	26773
826.067	26564
826.206	26762
826.346	26811
826.485	26746
826.625	26651
826.765	26777
826.904	26552
827.044	26511
827.183	26621
827.323	26423
827.462	26560
827.601	26568
827.741	26495
827.88	26469
828.02	26313
828.159	26446
828.298	26480
828.437	26343
828.577	26351
828.716	26453
828.855	26317
828.994	26100
829.134	26088
829.273	26199
829.412	26084
829.551	26107
829.69	26069
829.829	26130
829.968	26183
830.107	26119
830.246	25993
830.385	26092
830.524	26016
830.663	25868
830.802	25750
830.941	25719
831.08	25651
831.219	25696
831.357	25871
831.496	25856
831.635	25734
831.774	25643
831.913	25529
832.051	25464
832.19	25487
832.329	25590
832.467	25453
832.606	25419
832.744	25335
832.883	25434
833.022	25335
833.16	25350
833.299	25460
833.437	25445
833.576	25445
833.714	25464
833.852	25464
833.991	25464
834.129	25540
834.267	25506
834.406	25388
834.544	25430
834.682	25320
834.821	25377
834.959	25639
835.097	25445
835.235	25381
835.373	25453
835.511	25373
835.65	25285
835.788	25369
835.926	25091
836.064	25012
836.202	25129
836.34	25312
836.478	25304
836.615	25198
836.753	25244
836.891	25422
837.029	25137
837.167	25217
837.305	25148
837.443	25133
837.58	25065
837.718	25202
837.856	25133
837.993	24958
838.131	24996
838.269	24992
838.406	24905
838.544	24764
838.681	24642
838.819	24825
838.956	24582
839.094	24536
839.231	24490
839.369	24779
839.506	24943
839.643	24772
839.781	24426
839.918	24361
840.055	24483
840.193	24452
840.33	24388
840.467	24486
840.604	24490
840.742	24688
840.879	24285
841.016	24277
841.153	24266
841.29	24486
841.427	24445
841.564	24418
841.701	24437
841.838	24334
841.975	24395
842.112	24285
842.249	24190
842.385	24167
842.522	24452
842.659	24209
842.796	24167
842.933	24102
843.069	24129
843.206	23961
843.343	24258
843.479	24125
843.616	24266
843.752	24007
843.889	23973
844.025	24194
844.162	23939
844.298	24091
844.435	23973
844.571	23851
844.708	23912
844.844	24182
844.98	24079
845.117	23961
845.253	23840
845.389	23783
845.525	23798
845.661	23745
845.798	23695
845.934	23589
846.07	23649
846.206	23680
846.342	23737
846.478	23684
846.614	23406
846.75	23341
846.886	23417
847.022	23455
847.158	23326
847.294	23482
847.429	23444
847.565	23318
847.701	23543
847.837	23147
847.972	23132
848.108	23261
848.244	23223
848.379	23181
848.515	23052
848.65	22858
848.786	22953
848.921	23064
849.057	23242
849.192	23140
849.328	23006
849.463	22946
849.598	22900
849.734	22809
849.869	22866
850.004	22793
850.14	22828
850.275	22771
850.41	22672
850.545	22717
850.68	22733
850.815	22721
850.95	22847
851.085	22930
851.22	22915
851.355	22820
851.49	22854
851.625	22729
851.76	22702
851.895	22649
852.03	22713
852.165	22790
852.299	22831
852.434	22850
852.569	22820
852.703	22763
852.838	22820
852.973	22862
853.107	22873
853.242	22752
853.376	22653
853.511	22611
853.645	22500
853.78	22599
853.914	22615
854.048	22523
854.183	22523
854.317	22611
854.451	22797
854.585	22596
854.72	22535
854.854	22637
854.988	22413
855.122	22459
855.256	22280
855.39	22577
855.524	22622
855.658	22565
855.792	22584
855.926	22748
856.06	22611
856.194	22725
856.327	22577
856.461	22497
856.595	22489
856.729	22516
856.862	22618
856.996	22535
857.13	22645
857.263	22637
857.397	22698
857.53	22508
857.664	22637
857.797	22622
857.931	22694
858.064	22679
858.197	22679
858.331	22588
858.464	22459
858.597	22535
858.731	22599
858.864	22516
858.997	22542
859.13	22634
859.263	22649
859.396	22717
859.529	22538
859.662	22538
859.795	22546
859.928	22557
860.061	22767
860.194	22786
860.327	22721
860.46	22596
860.592	22755
860.725	22752
860.858	22675
860.99	22584
861.123	22489
861.256	22455
861.388	22519
861.521	23151
861.653	22382
861.786	22360
861.918	22443
862.05	22459
862.183	22573
862.315	22519
862.447	22618
862.58	22424
862.712	22405
862.844	22215
862.976	22314
863.108	22295
863.24	22915
863.372	22067
863.504	22299
863.636	22295
863.768	22360
863.9	22337
864.032	22257
864.164	22200
864.296	22230
864.428	22363
864.559	22348
864.691	22386
864.823	22295
864.954	22299
865.086	22291
865.217	22287
865.349	22139
865.48	22211
865.612	22070
865.743	22188
865.875	22143
866.006	22090
866.137	22173
866.269	22230
866.4	22147
866.531	22154
866.662	22105
866.793	22051
866.924	22150
867.055	22116
867.186	22101
867.317	21964
867.448	21991
867.579	22070
867.71	22040
867.841	22090
867.972	22090
868.103	22147
868.233	22055
868.364	22166
868.495	22162
868.625	22287
868.756	22440
868.886	22280
869.017	22322
869.147	22527
869.278	22409
869.408	22375
869.539	22394
869.669	22455
869.799	22341
869.929	22428
870.06	22672
870.19	22508
870.32	22702
870.45	22725
870.58	22778
870.71	22786
870.84	22801
870.97	22778
871.1	22790
871.23	22885
871.36	22942
871.489	22812
871.619	22896
871.749	22908
871.879	23022
872.008	22987
872.138	22957
872.267	22915
872.397	22801
872.526	22713
872.656	22733
872.785	22729
872.915	22900
873.044	23033
873.173	22942
873.303	23064
873.432	22987
873.561	23014
873.69	22927
873.819	22858
873.948	23018
874.077	23003
874.206	22892
874.335	22980
874.464	23033
874.593	23197
874.722	23105
874.851	23216
874.979	23231
875.108	23216
875.237	23136
875.365	23067
875.494	23220
875.623	23155
875.751	23060
875.88	23193
876.008	23223
876.136	23376
876.265	23638
876.393	23680
876.521	23611
876.65	23729
876.778	23547
876.906	23463
877.034	23516
877.162	23478
877.29	23391
877.418	23463
877.546	23436
877.674	23463
877.802	23444
877.93	23417
878.058	23490
878.185	23288
878.313	23421
878.441	23509
878.568	23349
878.696	23360
878.824	23665
878.951	23596
879.079	23699
879.206	23756
879.333	23531
879.461	23592
879.588	23589
879.715	23562
879.842	23836
879.97	23505
880.097	23322
880.224	23235
880.351	23372
880.478	23315
880.605	23277
880.732	23391
880.859	23543
880.986	23368
881.112	23402
881.239	23147
881.366	22995
881.493	22995
881.619	22980
881.746	22889
881.872	23044
881.999	22862
882.125	22831
882.252	22873
882.378	22805
882.505	23029
882.631	22816
882.757	22519
882.883	22683
883.01	22474
883.136	22531
883.262	22497
883.388	22398
883.514	22535
883.64	22584
883.766	22535
883.892	22409
884.018	22238
884.143	22356
884.269	22519
884.395	22295
884.52	22188
884.646	22234
884.772	22101
884.897	22143
885.023	22246
885.148	22200
885.274	22348
885.399	22280
885.524	22181
885.65	22314
885.775	22211
885.9	22230
886.025	22318
886.15	22268
886.275	22143
886.4	22051
886.525	22158
886.65	22150
886.775	22185
886.9	22291
887.025	22318
887.149	22223
887.274	21945
887.399	21987
887.523	21861
887.648	21835
887.773	21835
887.897	21949
888.021	21926
888.146	21873
888.27	22032
888.395	22025
888.519	21960
888.643	21991
888.767	21953
888.891	21873
889.015	21838
889.139	21781
889.263	21682
889.387	21812
889.511	21926
889.635	21774
889.759	21663
889.883	21705
890.006	21736
890.13	21816
890.254	21603
890.377	21709
890.501	21511
890.624	21530
890.748	21523
890.871	21283
890.995	21291
891.118	21195
891.241	21412
891.364	21336
891.488	21420
891.611	21382
891.734	21291
891.857	21321
891.98	21332
892.103	21313
892.226	21226
892.349	21131
892.471	21150
892.594	21218
892.717	21226
892.839	21127
892.962	21161
893.085	21176
893.207	21116
893.33	21123
893.452	20979
893.575	21195
893.697	21142
893.819	21256
893.941	21428
894.064	21279
894.186	21211
894.308	21001
894.43	21249
894.552	21302
894.674	21222
894.796	21032
894.918	21070
895.04	21131
895.161	21100
895.283	21169
895.405	21116
895.526	21146
895.648	21017
895.769	21157
895.891	21093
896.012	21195
896.134	21142
896.255	21093
896.376	21077
896.498	21089
896.619	21123
896.74	21161
896.861	21157
896.982	21534
897.103	21576
897.224	21348
897.345	21317
897.466	21226
897.587	21264
897.708	21466
897.828	21321
897.949	21233
898.07	21211
898.19	21199
898.311	21355
898.431	21313
898.552	21370
898.672	21405
898.792	21321
898.913	21332
899.033	21169
899.153	21131
899.273	21104
899.393	20967
899.513	21123
899.633	21009
899.753	21184
899.873	21020
899.993	20986
900.113	21100
900.232	21142
900.352	20914
900.472	20998
900.591	20807
900.711	20929
900.83	20735
900.95	20963
901.069	20868
901.189	20750
901.308	20492
901.427	20328
901.546	20465
901.665	20473
901.784	20408
901.904	20244
902.023	20301
902.141	20020
902.26	19849
902.379	19986
902.498	19974
902.617	19932
902.735	19932
902.854	19818
902.973	19841
903.091	19670
903.21	19518
903.328	19681
903.446	19445
903.565	19441
903.683	19388
903.801	19228
903.919	19270
904.038	19365
904.156	19160
904.274	19278
904.392	19114
904.51	19012
904.627	19088
904.745	19118
904.863	19126
904.981	18909
905.098	18795
905.216	18734
905.334	18776
905.451	18787
905.569	18711
905.686	18791
905.803	18837
905.921	18589
906.038	18707
906.155	18642
906.272	18403
906.389	18448
906.506	18289
906.623	18315
906.74	18315
906.857	18167
906.974	18201
907.091	18323
907.208	18247
907.324	18350
907.441	18159
907.557	18068
907.674	18038
907.79	18022
907.907	17984
908.023	18034
908.139	18053
908.256	17901
908.372	17893
908.488	17889
908.604	17722
908.72	17714
908.836	17748
908.952	17661
909.068	17726
909.184	17767
909.3	17733
909.415	17714
909.531	17722
909.647	17455
909.762	17566
909.878	17516
909.993	17376
910.108	17379
910.224	17353
910.339	17303
910.454	17318
910.57	17079
910.685	17174
910.8	17455
910.915	17383
911.03	17193
911.145	17006
911.259	16961
911.374	16946
911.489	16984
911.604	16949
911.718	16672
911.833	16733
911.947	16683
912.062	16607
912.176	16790
912.291	16752
912.405	16812
912.519	16923
912.633	16942
912.748	16850
912.862	16805
912.976	16523
913.09	16485
913.204	16538
913.318	16523
913.431	16691
913.545	16675
913.659	16660
913.772	16390
913.886	16398
914	16207
914.113	16451
914.226	16432
914.34	16367
914.453	16196
914.566	16322
914.68	16272
914.793	16147
914.906	15998
915.019	15922
915.132	15922
915.245	15922
915.358	15960
915.47	15953
915.583	15899
915.696	15888
915.809	16101
915.921	16158
916.034	15808
916.146	15816
916.259	15743
916.371	15816
916.483	15766
916.595	15812
916.708	15720
916.82	15728
916.932	15694
917.044	15679
917.156	15686
917.268	15496
917.38	15511
917.491	15500
917.603	15466
917.715	15633
917.826	15698
917.938	15473
918.049	15378
918.161	15526
918.272	15523
918.384	15667
918.495	15500
918.606	15359
918.717	15268
918.828	15294
918.939	15374
919.05	15199
919.161	15260
919.272	15123
919.383	15199
919.494	15249
919.604	15466
919.715	15275
919.826	15127
919.936	15180
920.047	15245
920.157	15325
920.267	15481
920.378	15291
920.488	15161
920.598	15344
920.708	15549
920.818	15370
920.928	15416
921.038	15591
921.148	15447
921.258	15184
921.368	15176
921.477	14952
921.587	15028
921.697	14815
921.806	14967
921.916	14864
922.025	14568
922.134	14674
922.244	14621
922.353	14621
922.462	14454
922.571	14476
922.68	14195
922.789	14275
922.898	14252
923.007	14161
923.116	14275
923.224	14176
923.333	14145
923.442	14157
923.55	13993
923.659	14043
923.767	14058
923.876	14065
923.984	14103
924.092	13989
924.201	13955
924.309	13883
924.417	13917
924.525	13856
924.633	13856
924.741	14689
924.849	13731
924.956	13822
925.064	13590
925.172	13510
925.279	13578
925.387	13655
925.494	13655
925.602	13723
925.709	13696
925.816	13597
925.924	13434
926.031	13548
926.138	13563
926.245	13514
926.352	13388
926.459	13567
926.566	13552
926.673	13483
926.779	13312
926.886	13312
926.993	13152
927.099	13118
927.206	13031
927.312	13118
927.419	13141
927.525	13187
927.631	13069
927.737	13008
927.843	12951
927.95	12894
928.056	13012
928.162	13019
928.267	12973
928.373	13616
928.479	13103
928.585	12833
928.69	12886
928.796	12913
928.901	12878
929.007	12650
929.112	12764
929.218	12722
929.323	12642
929.428	12658
929.533	12726
929.638	12559
929.743	12688
929.848	12662
929.953	12570
930.058	12395
930.163	12330
930.267	12391
930.372	12456
930.477	12296
930.581	12494
930.685	12391
930.79	12197
930.894	12247
930.998	12121
931.103	12330
931.207	11927
931.311	11912
931.415	11855
931.519	11627
931.623	11608
