Data from test_V78500241_1659.txt Node
Date: Fri Mar 25 15:53:17 CST 2022
User: usil
Spectrometer: V785-0024
Trigger mode: 0
Integration Time (sec): 4.000000E-1
Scans to average: 1
Nonlinearity correction enabled: false
Boxcar width: 0
Storing dark spectrum: false
XAxis mode: Wavelengths
Number of Pixels in Spectrum: 1024
>>>>>Begin Spectral Data<<<<<
801.071	28162
801.214	28200
801.356	27975
801.499	27808
801.641	27812
801.783	27739
801.926	27964
802.068	27934
802.211	27686
802.353	27747
802.496	27625
802.638	27675
802.78	27458
802.923	27458
803.065	27329
803.208	27374
803.35	27466
803.492	27633
803.635	27576
803.777	27564
803.919	27701
804.061	28029
804.204	27701
804.346	27652
804.488	27519
804.63	27648
804.773	27564
804.915	27880
805.057	27827
805.199	27656
805.341	27770
805.483	27850
805.626	27732
805.768	27549
805.91	27698
806.052	27876
806.194	27774
806.336	27937
806.478	27953
806.62	27911
806.762	28002
806.904	28120
807.046	28272
807.188	28398
807.33	28325
807.472	28268
807.614	28318
807.756	28337
807.898	28169
808.04	28040
808.182	27964
808.324	28325
808.465	28181
808.607	28405
808.749	28417
808.891	28497
809.033	28596
809.174	28634
809.316	28531
809.458	28504
809.6	28466
809.741	28664
809.883	28573
810.025	28820
810.166	28755
810.308	28801
810.45	28691
810.591	28839
810.733	28538
810.875	28440
811.016	28367
811.158	28306
811.299	28607
811.441	28721
811.582	28668
811.724	28421
811.865	28542
812.007	28360
812.148	28550
812.29	28664
812.431	28702
812.573	28881
812.714	28953
812.855	28972
812.997	29132
813.138	29220
813.279	29208
813.421	29025
813.562	28923
813.703	28748
813.845	28854
813.986	28489
814.127	28257
814.268	28188
814.41	28276
814.551	28116
814.692	28276
814.833	28204
814.974	28185
815.115	28177
815.256	28078
815.397	28131
815.539	28006
815.68	27888
815.821	27789
815.962	27800
816.103	28097
816.244	27907
816.385	27743
816.526	27698
816.666	27526
816.807	27595
816.948	27667
817.089	27610
817.23	27553
817.371	27450
817.512	27294
817.653	27500
817.793	27336
817.934	27427
818.075	27477
818.216	27500
818.356	27458
818.497	27279
818.638	27230
818.778	27207
818.919	27275
819.06	27249
819.2	27268
819.341	27561
819.481	27435
819.622	27675
819.762	27808
819.903	27667
820.043	27694
820.184	27488
820.324	27633
820.465	27671
820.605	27667
820.746	27492
820.886	27443
821.026	27698
821.167	27591
821.307	27488
821.447	27564
821.588	27481
821.728	27427
821.868	27116
822.008	27055
822.149	26986
822.289	26979
822.429	26663
822.569	26750
822.709	26617
822.849	26423
822.99	26408
823.13	26469
823.27	26408
823.41	26393
823.55	26153
823.69	26191
823.83	26362
823.97	26103
824.11	26256
824.25	26016
824.389	26005
824.529	26263
824.669	26145
824.809	26259
824.949	26275
825.089	26191
825.228	26210
825.368	25871
825.508	25997
825.648	25955
825.787	25989
825.927	26134
826.067	25982
826.206	26084
826.346	25909
826.485	26046
826.625	26043
826.765	26069
826.904	26176
827.044	25746
827.183	25704
827.323	25647
827.462	25693
827.601	25803
827.741	25746
827.88	25799
828.02	25575
828.159	25666
828.298	25639
828.437	25799
828.577	25746
828.716	25750
828.855	25571
828.994	25430
829.134	25350
829.273	25487
829.412	25289
829.551	25381
829.69	25377
829.829	25400
829.968	25472
830.107	25544
830.246	25411
830.385	25407
830.524	25335
830.663	25164
830.802	25091
830.941	25004
831.08	24947
831.219	25084
831.357	24996
831.496	25240
831.635	25129
831.774	24920
831.913	24913
832.051	24981
832.19	24833
832.329	24787
832.467	24715
832.606	24673
832.744	24730
832.883	24582
833.022	24829
833.16	24673
833.299	24703
833.437	24711
833.576	24776
833.714	24764
833.852	24688
833.991	24730
834.129	24829
834.267	24795
834.406	24650
834.544	24859
834.682	24665
834.821	24692
834.959	24973
835.097	24760
835.235	24890
835.373	24719
835.511	24665
835.65	24631
835.788	24604
835.926	24445
836.064	24369
836.202	24365
836.34	24448
836.478	24589
836.615	24654
836.753	24688
836.891	24589
837.029	24604
837.167	24391
837.305	24467
837.443	24323
837.58	24391
837.718	24429
837.856	24281
837.993	24376
838.131	24483
838.269	24357
838.406	24167
838.544	24235
838.681	24018
838.819	24003
838.956	23893
839.094	23847
839.231	23912
839.369	24110
839.506	24277
839.643	24049
839.781	23855
839.918	23802
840.055	23882
840.193	23847
840.33	23817
840.467	23824
840.604	23809
840.742	24064
840.879	23573
841.016	23672
841.153	23668
841.29	23870
841.427	23733
841.564	23748
841.701	23707
841.838	23699
841.975	23684
842.112	23672
842.249	23577
842.385	23497
842.522	23756
842.659	23726
842.796	23543
842.933	23524
843.069	23417
843.206	23433
843.343	23562
843.479	23497
843.616	23516
843.752	23322
843.889	23360
844.025	23459
844.162	23303
844.298	23444
844.435	23178
844.571	23208
844.708	23284
844.844	23471
844.98	23299
845.117	23501
845.253	23193
845.389	23113
845.525	23162
845.661	23159
845.798	23075
845.934	23254
846.07	23022
846.206	23014
846.342	23102
846.478	23029
846.614	22759
846.75	22660
846.886	22706
847.022	22812
847.158	22942
847.294	22748
847.429	22805
847.565	22717
847.701	22934
847.837	22679
847.972	22508
848.108	22519
848.244	22542
848.379	22314
848.515	22325
848.65	22432
848.786	22405
848.921	22402
849.057	22557
849.192	22409
849.328	22421
849.463	22322
849.598	22314
849.734	22204
849.869	22268
850.004	22063
850.14	22234
850.275	22287
850.41	22036
850.545	22116
850.68	22032
850.815	22147
850.95	22173
851.085	22382
851.22	22215
851.355	22112
851.49	22207
851.625	22067
851.76	22147
851.895	22021
852.03	22097
852.165	22002
852.299	22055
852.434	22070
852.569	22223
852.703	22116
852.838	22185
852.973	22204
853.107	22188
853.242	22093
853.376	21956
853.511	21819
853.645	21956
853.78	22177
853.914	21956
854.048	21994
854.183	21953
854.317	21907
854.451	22090
854.585	21949
854.72	21915
854.854	21941
854.988	22002
855.122	21876
855.256	21899
855.39	21873
855.524	22013
855.658	21987
855.792	21911
855.926	22013
856.06	22074
856.194	22025
856.327	21934
856.461	21774
856.595	21880
856.729	21884
856.862	21949
856.996	21964
857.13	22006
857.263	22036
857.397	22032
857.53	21953
857.664	22017
857.797	21926
857.931	22185
858.064	21975
858.197	21949
858.331	21911
858.464	22021
858.597	21819
858.731	22006
858.864	21857
858.997	21865
859.13	22074
859.263	21892
859.396	22059
859.529	21941
859.662	21930
859.795	21884
859.928	21964
860.061	22139
860.194	22082
860.327	21972
860.46	22025
860.592	22101
860.725	22124
860.858	22204
860.99	21964
861.123	21812
861.256	21827
861.388	21903
861.521	22462
861.653	21941
861.786	21625
861.918	21797
862.05	21827
862.183	21953
862.315	21922
862.447	21987
862.58	21895
862.712	21606
862.844	21610
862.976	21747
863.108	21751
863.24	22063
863.372	21625
863.504	21717
863.636	21557
863.768	21603
863.9	21694
864.032	21603
864.164	21675
864.296	21595
864.428	21766
864.559	21759
864.691	21618
864.823	21507
864.954	21504
865.086	21686
865.217	21553
865.349	21469
865.48	21542
865.612	21439
865.743	21698
865.875	21504
866.006	21412
866.137	21591
866.269	21553
866.4	21530
866.531	21462
866.662	21401
866.793	21397
866.924	21496
867.055	21542
867.186	21488
867.317	21469
867.448	21329
867.579	21405
867.71	21416
867.841	21332
867.972	21519
868.103	21340
868.233	21572
868.364	21435
868.495	21568
868.625	21759
868.756	21827
868.886	21523
869.017	21660
869.147	21827
869.278	21816
869.408	21789
869.539	21728
869.669	21797
869.799	21759
869.929	21907
870.06	21778
870.19	22036
870.32	21903
870.45	22055
870.58	22097
870.71	22234
870.84	22177
870.97	22017
871.1	22097
871.23	22318
871.36	22341
871.489	22124
871.619	22211
871.749	22440
871.879	22360
872.008	22405
872.138	22398
872.267	22333
872.397	22147
872.526	22086
872.656	22116
872.785	22207
872.915	22325
873.044	22352
873.173	22405
873.303	22413
873.432	22306
873.561	22325
873.69	22246
873.819	22424
873.948	22432
874.077	22390
874.206	22318
874.335	22329
874.464	22440
874.593	22542
874.722	22542
874.851	22603
874.979	22455
875.108	22611
875.237	22497
875.365	22462
875.494	22519
875.623	22710
875.751	22417
875.88	22596
876.008	22557
876.136	22645
876.265	22793
876.393	23018
876.521	23064
876.65	22934
876.778	22889
876.906	22885
877.034	22828
877.162	22854
877.29	22828
877.418	22869
877.546	22847
877.674	22904
877.802	23006
877.93	22866
878.058	22930
878.185	22843
878.313	22668
878.441	22942
878.568	22622
878.696	22744
878.824	22930
878.951	22889
879.079	23003
879.206	23113
879.333	23048
879.461	22873
879.588	23060
879.715	23102
879.842	23075
879.97	22968
880.097	22683
880.224	22740
880.351	22755
880.478	22683
880.605	22698
880.732	22717
880.859	22938
880.986	22801
881.112	22809
881.239	22542
881.366	22409
881.493	22451
881.619	22356
881.746	22280
881.872	22268
881.999	22253
882.125	22226
882.252	22242
882.378	22105
882.505	22325
882.631	22059
882.757	21937
882.883	21987
883.01	22067
883.136	21926
883.262	21888
883.388	21732
883.514	21827
883.64	21930
883.766	21949
883.892	21724
884.018	21816
884.143	21922
884.269	22006
884.395	21698
884.52	21637
884.646	21652
884.772	21587
884.897	21507
885.023	21549
885.148	21682
885.274	21793
885.399	21679
885.524	21564
885.65	21538
885.775	21485
885.9	21648
886.025	21663
886.15	21671
886.275	21511
886.4	21401
886.525	21572
886.65	21576
886.775	21401
886.9	21625
887.025	21736
887.149	21504
887.274	21485
887.399	21363
887.523	21378
887.648	21233
887.773	21249
887.897	21401
888.021	21408
888.146	21249
888.27	21435
888.395	21469
888.519	21401
888.643	21401
888.767	21405
888.891	21165
889.015	21108
889.139	21264
889.263	21081
889.387	21230
889.511	21329
889.635	21287
889.759	21252
889.883	20979
890.006	21184
890.13	21249
890.254	21001
890.377	20990
890.501	20891
890.624	21013
890.748	20990
890.871	20815
890.995	20564
891.118	20705
891.241	20758
891.364	20705
891.488	20746
891.611	20743
891.734	20648
891.857	20720
891.98	20819
892.103	20792
892.226	20579
892.349	20743
892.471	20526
892.594	20606
892.717	20682
892.839	20511
892.962	20571
893.085	20705
893.207	20560
893.33	20412
893.452	20609
893.575	20667
893.697	20545
893.819	20739
893.941	20811
894.064	20765
894.186	20465
894.308	20514
894.43	20556
894.552	20682
894.674	20613
894.796	20473
894.918	20594
895.04	20537
895.161	20659
895.283	20705
895.405	20621
895.526	20545
895.648	20575
895.769	20606
895.891	20659
896.012	20564
896.134	20667
896.255	20648
896.376	20552
896.498	20568
896.619	20689
896.74	20545
896.861	20705
896.982	21028
897.103	21032
897.224	20895
897.345	20872
897.466	20910
897.587	20819
897.708	20979
897.828	20777
897.949	20826
898.07	20560
898.19	20697
898.311	20868
898.431	20746
898.552	20842
898.672	20960
898.792	20842
898.913	20883
899.033	20689
899.153	20606
899.273	20514
899.393	20503
899.513	20636
899.633	20434
899.753	20522
899.873	20465
899.993	20492
900.113	20598
900.232	20469
900.352	20609
900.472	20286
900.591	20271
900.711	20324
900.83	20313
900.95	20518
901.069	20419
901.189	20271
901.308	20046
901.427	19932
901.546	19887
901.665	19917
901.784	19925
901.904	19731
902.023	19597
902.141	19552
902.26	19407
902.379	19582
902.498	19381
902.617	19358
902.735	19457
902.854	19358
902.973	19289
903.091	19137
903.21	19114
903.328	19023
903.446	18932
903.565	18882
903.683	18890
903.801	18772
903.919	18772
904.038	18779
904.156	18612
904.274	18814
904.392	18703
904.51	18623
904.627	18597
904.745	18677
904.863	18707
904.981	18448
905.098	18407
905.216	18270
905.334	18403
905.451	18262
905.569	18308
905.686	18270
905.803	18247
905.921	18163
906.038	18117
906.155	18209
906.272	18019
906.389	17885
906.506	17878
906.623	17893
906.74	17764
906.857	17691
906.974	17672
907.091	17897
907.208	17904
907.324	17843
907.441	17695
907.557	17512
907.674	17535
907.79	17391
907.907	17619
908.023	17627
908.139	17459
908.256	17509
908.372	17471
908.488	17360
908.604	17246
908.72	17200
908.836	17273
908.952	17269
909.068	17200
909.184	17406
909.3	17212
909.415	17307
909.531	17269
909.647	16965
909.762	17060
909.878	16976
909.993	16911
910.108	16927
910.224	16892
910.339	16949
910.454	16828
910.57	16805
910.685	16653
910.8	16927
910.915	16866
911.03	16702
911.145	16588
911.259	16527
911.374	16531
911.489	16531
911.604	16367
911.718	16356
911.833	16413
911.947	16169
912.062	16044
912.176	16261
912.291	16325
912.405	16375
912.519	16523
912.633	16424
912.748	16379
912.862	16226
912.976	16105
913.09	15975
913.204	16074
913.318	16040
913.431	16226
913.545	16204
913.659	16215
913.772	15987
913.886	15964
914	15903
914.113	15934
914.226	15979
914.34	16006
914.453	15835
914.566	15869
914.68	15812
914.793	15759
914.906	15572
915.019	15454
915.132	15443
915.245	15584
915.358	15408
915.47	15428
915.583	15458
915.696	15420
915.809	15576
915.921	15629
916.034	15408
916.146	15355
916.259	15420
916.371	15458
916.483	15405
916.595	15260
916.708	15336
916.82	15329
916.932	15237
917.044	15222
917.156	15169
917.268	15127
917.38	15116
917.491	15058
917.603	15119
917.715	15249
917.826	15222
917.938	15146
918.049	15032
918.161	15085
918.272	15176
918.384	15211
918.495	14986
918.606	14914
918.717	14819
918.828	14868
918.939	14853
919.05	14754
919.161	14876
919.272	14667
919.383	14682
919.494	14941
919.604	15051
919.715	14872
919.826	14693
919.936	14743
920.047	14800
920.157	14857
920.267	15032
920.378	14868
920.488	14796
920.598	14975
920.708	15093
920.818	15020
920.928	15009
921.038	15127
921.148	15055
921.258	14830
921.368	14720
921.477	14556
921.587	14556
921.697	14377
921.806	14492
921.916	14461
922.025	14237
922.134	14233
922.244	14153
922.353	14244
922.462	14069
922.571	14027
922.68	13909
922.789	13727
922.898	13822
923.007	13784
923.116	13845
923.224	13837
923.333	13864
923.442	13677
923.55	13616
923.659	13658
923.767	13753
923.876	13537
923.984	13719
924.092	13563
924.201	13632
924.309	13597
924.417	13620
924.525	13552
924.633	13430
924.741	14134
924.849	13343
924.956	13369
925.064	13244
925.172	13293
925.279	13251
925.387	13247
925.494	13232
925.602	13434
925.709	13247
925.816	13050
925.924	13141
926.031	13324
926.138	13221
926.245	13266
926.352	13088
926.459	13266
926.566	13228
926.673	13095
926.779	12985
926.886	13053
926.993	12817
927.099	12719
927.206	12852
927.312	12665
927.419	12878
927.525	12757
927.631	12821
927.737	12719
927.843	12627
927.95	12650
928.056	12642
928.162	12585
928.267	12707
928.373	13255
928.479	12673
928.585	12483
928.69	12616
928.796	12532
928.901	12498
929.007	12311
929.112	12456
929.218	12422
929.323	12315
929.428	12289
929.533	12475
929.638	12323
929.743	12289
929.848	12285
929.953	12209
930.058	12114
930.163	12038
930.267	11988
930.372	12163
930.477	11946
930.581	12182
930.685	12030
930.79	11866
930.894	11912
930.998	11767
931.103	11992
931.207	11710
931.311	11630
931.415	11429
931.519	11280
931.623	11223
