Data from test_V78500241_2157.txt Node
Date: Fri Mar 25 15:56:44 CST 2022
User: usil
Spectrometer: V785-0024
Trigger mode: 0
Integration Time (sec): 4.000000E-1
Scans to average: 1
Nonlinearity correction enabled: false
Boxcar width: 0
Storing dark spectrum: false
XAxis mode: Wavelengths
Number of Pixels in Spectrum: 1024
>>>>>Begin Spectral Data<<<<<
801.071	29033
801.214	28752
801.356	28679
801.499	28626
801.641	28535
801.783	28645
801.926	28550
802.068	28592
802.211	28557
802.353	28573
802.496	28386
802.638	28287
802.78	28192
802.923	28249
803.065	28147
803.208	28246
803.35	28223
803.492	28398
803.635	28561
803.777	28405
803.919	28413
804.061	28843
804.204	28569
804.346	28519
804.488	28306
804.63	28561
804.773	28390
804.915	28451
805.057	28645
805.199	28443
805.341	28611
805.483	28683
805.626	28668
805.768	28577
805.91	28641
806.052	28668
806.194	28596
806.336	28824
806.478	28809
806.62	28736
806.762	28953
806.904	28972
807.046	29155
807.188	28987
807.33	29181
807.472	29136
807.614	29162
807.756	29181
807.898	29003
808.04	29010
808.182	28869
808.324	29121
808.465	29140
808.607	29231
808.749	29303
808.891	29497
809.033	29524
809.174	29383
809.316	29307
809.458	29372
809.6	29303
809.741	29421
809.883	29520
810.025	29684
810.166	29657
810.308	29577
810.45	29649
810.591	29539
810.733	29322
810.875	29421
811.016	29349
811.158	29288
811.299	29406
811.441	29395
811.582	29684
811.724	29387
811.865	29406
812.007	29375
812.148	29410
812.29	29417
812.431	29558
812.573	29562
812.714	29901
812.855	29954
812.997	29874
813.138	30167
813.279	29939
813.421	29920
813.562	29882
813.703	29718
813.845	29581
813.986	29356
814.127	29220
814.268	29220
814.41	29197
814.551	28991
814.692	29056
814.833	29067
814.974	28980
815.115	29151
815.256	28850
815.397	28915
815.539	28949
815.68	28850
815.821	28725
815.962	28843
816.103	28885
816.244	28820
816.385	28710
816.526	28615
816.666	28580
816.807	28394
816.948	28630
817.089	28493
817.23	28470
817.371	28401
817.512	28375
817.653	28462
817.793	28417
817.934	28432
818.075	28481
818.216	28459
818.356	28318
818.497	28310
818.638	28044
818.778	28181
818.919	28242
819.06	28318
819.2	28291
819.341	28318
819.481	28409
819.622	28542
819.762	28797
819.903	28805
820.043	28710
820.184	28607
820.324	28603
820.465	28561
820.605	28497
820.746	28599
820.886	28344
821.026	28478
821.167	28470
821.307	28550
821.447	28417
821.588	28363
821.728	28162
821.868	28059
822.008	27911
822.149	27911
822.289	27895
822.429	27515
822.569	27523
822.709	27648
822.849	27477
822.99	27454
823.13	27363
823.27	27393
823.41	27207
823.55	26994
823.69	27241
823.83	27355
823.97	27138
824.11	27112
824.25	26960
824.389	27180
824.529	27066
824.669	27085
824.809	27211
824.949	27112
825.089	27119
825.228	27142
825.368	26929
825.508	26891
825.648	26918
825.787	26899
825.927	27131
826.067	26857
826.206	26868
826.346	27074
826.485	27032
826.625	26933
826.765	27096
826.904	26929
827.044	26712
827.183	26811
827.323	26632
827.462	26670
827.601	26629
827.741	26716
827.88	26724
828.02	26552
828.159	26594
828.298	26606
828.437	26663
828.577	26686
828.716	26617
828.855	26518
828.994	26282
829.134	26282
829.273	26305
829.412	26161
829.551	26290
829.69	26328
829.829	26423
829.968	26575
830.107	26343
830.246	26469
830.385	26290
830.524	26180
830.663	26111
830.802	26088
830.941	26058
831.08	25814
831.219	26031
831.357	26122
831.496	26206
831.635	25997
831.774	25887
831.913	25928
832.051	25715
832.19	25784
832.329	25826
832.467	25700
832.606	25696
832.744	25540
832.883	25578
833.022	25575
833.16	25575
833.299	25582
833.437	25628
833.576	25795
833.714	25628
833.852	25761
833.991	25753
834.129	25719
834.267	25772
834.406	25715
834.544	25635
834.682	25590
834.821	25537
834.959	25776
835.097	25712
835.235	25624
835.373	25620
835.511	25578
835.65	25586
835.788	25506
835.926	25365
836.064	25358
836.202	25304
836.34	25712
836.478	25723
836.615	25457
836.753	25377
836.891	25426
837.029	25441
837.167	25266
837.305	25457
837.443	25206
837.58	25270
837.718	25438
837.856	25388
837.993	25164
838.131	25198
838.269	25080
838.406	25171
838.544	25236
838.681	24985
838.819	25012
838.956	24817
839.094	24787
839.231	24707
839.369	24962
839.506	25129
839.643	25103
839.781	24802
839.918	24604
840.055	24711
840.193	24673
840.33	24563
840.467	24616
840.604	24829
840.742	25027
840.879	24620
841.016	24665
841.153	24642
841.29	24871
841.427	24551
841.564	24684
841.701	24665
841.838	24578
841.975	24540
842.112	24604
842.249	24525
842.385	24559
842.522	24757
842.659	24509
842.796	24414
842.933	24475
843.069	24391
843.206	24323
843.343	24574
843.479	24448
843.616	24422
843.752	24266
843.889	24258
844.025	24353
844.162	24315
844.298	24277
844.435	24292
844.571	24155
844.708	24270
844.844	24399
844.98	24380
845.117	24300
845.253	24228
845.389	24087
845.525	24053
845.661	23923
845.798	23923
845.934	23908
846.07	23885
846.206	23832
846.342	23992
846.478	23859
846.614	23676
846.75	23581
846.886	23570
847.022	23710
847.158	23680
847.294	23786
847.429	23592
847.565	23665
847.701	23775
847.837	23459
847.972	23372
848.108	23524
848.244	23467
848.379	23292
848.515	23174
848.65	23128
848.786	23208
848.921	23048
849.057	23379
849.192	23246
849.328	23284
849.463	23280
849.598	23227
849.734	23109
849.869	23041
850.004	22972
850.14	22976
850.275	22987
850.41	22816
850.545	22809
850.68	22976
850.815	22938
850.95	22938
851.085	23170
851.22	23143
851.355	22968
851.49	22965
851.625	22892
851.76	22984
851.895	22858
852.03	22904
852.165	22881
852.299	23041
852.434	23033
852.569	23117
852.703	22976
852.838	23064
852.973	23204
853.107	23113
853.242	22900
853.376	22858
853.511	22592
853.645	22725
853.78	23025
853.914	22915
854.048	22736
854.183	22801
854.317	22843
854.451	23006
854.585	22900
854.72	22828
854.854	22896
854.988	22774
855.122	22774
855.256	22744
855.39	22702
855.524	22877
855.658	22831
855.792	22725
855.926	22831
856.06	22900
856.194	22843
856.327	22710
856.461	22748
856.595	22706
856.729	22862
856.862	22934
856.996	22858
857.13	22930
857.263	22782
857.397	22930
857.53	22774
857.664	22896
857.797	22923
857.931	22835
858.064	22934
858.197	22892
858.331	22755
858.464	22790
858.597	22645
858.731	22698
858.864	22687
858.997	22691
859.13	22812
859.263	22797
859.396	22984
859.529	22782
859.662	22782
859.795	22835
859.928	22923
860.061	22965
860.194	22999
860.327	22801
860.46	22877
860.592	22942
860.725	22919
860.858	23006
860.99	22835
861.123	22801
861.256	22782
861.388	22782
861.521	23478
861.653	22588
861.786	22645
861.918	22733
862.05	22691
862.183	22656
862.315	22771
862.447	22934
862.58	22641
862.712	22451
862.844	22519
862.976	22634
863.108	22656
863.24	22858
863.372	22402
863.504	22599
863.636	22504
863.768	22481
863.9	22618
864.032	22379
864.164	22455
864.296	22630
864.428	22599
864.559	22542
864.691	22573
864.823	22584
864.954	22481
865.086	22451
865.217	22382
865.349	22230
865.48	22398
865.612	22432
865.743	22436
865.875	22481
866.006	22428
866.137	22405
866.269	22352
866.4	22375
866.531	22310
866.662	22363
866.793	22261
866.924	22382
867.055	22421
867.186	22291
867.317	22337
867.448	22341
867.579	22375
867.71	22147
867.841	22173
867.972	22287
868.103	22280
868.233	22306
868.364	22284
868.495	22402
868.625	22531
868.756	22691
868.886	22440
869.017	22580
869.147	22626
869.278	22634
869.408	22554
869.539	22535
869.669	22531
869.799	22504
869.929	22721
870.06	22767
870.19	22835
870.32	22904
870.45	22968
870.58	22980
870.71	22976
870.84	23079
870.97	22976
871.1	23014
871.23	23121
871.36	23155
871.489	22991
871.619	23010
871.749	23197
871.879	23102
872.008	23261
872.138	22995
872.267	23269
872.397	23124
872.526	23033
872.656	22987
872.785	23018
872.915	23136
873.044	23197
873.173	23208
873.303	23284
873.432	23216
873.561	23315
873.69	23242
873.819	23109
873.948	23200
874.077	23185
874.206	23025
874.335	23181
874.464	23166
874.593	23414
874.722	23200
874.851	23376
874.979	23311
875.108	23414
875.237	23433
875.365	23261
875.494	23395
875.623	23307
875.751	23242
875.88	23387
876.008	23551
876.136	23615
876.265	23756
876.393	23748
876.521	23847
876.65	23779
876.778	23722
876.906	23714
877.034	23714
877.162	23722
877.29	23672
877.418	23779
877.546	23771
877.674	23752
877.802	23684
877.93	23642
878.058	23585
878.185	23558
878.313	23630
878.441	23707
878.568	23444
878.696	23665
878.824	23703
878.951	23783
879.079	23783
879.206	24076
879.333	23923
879.461	23722
879.588	23695
879.715	23832
879.842	24018
879.97	23851
880.097	23410
880.224	23478
880.351	23493
880.478	23585
880.605	23535
880.732	23501
880.859	23661
880.986	23630
881.112	23478
881.239	23345
881.366	23231
881.493	23189
881.619	23071
881.746	22999
881.872	22995
881.999	23185
882.125	22923
882.252	23022
882.378	23102
882.505	23227
882.631	22706
882.757	22744
882.883	22828
883.01	22854
883.136	22774
883.262	22561
883.388	22645
883.514	22763
883.64	22736
883.766	22622
883.892	22485
884.018	22554
884.143	22622
884.269	22725
884.395	22394
884.52	22459
884.646	22405
884.772	22276
884.897	22322
885.023	22409
885.148	22538
885.274	22402
885.399	22554
885.524	22280
885.65	22322
885.775	22386
885.9	22291
886.025	22432
886.15	22386
886.275	22367
886.4	22352
886.525	22344
886.65	22242
886.775	22253
886.9	22363
887.025	22519
887.149	22371
887.274	22131
887.399	22291
887.523	22070
887.648	21964
887.773	22032
887.897	22135
888.021	22314
888.146	22086
888.27	22192
888.395	22280
888.519	22150
888.643	22097
888.767	22295
888.891	22074
889.015	21888
889.139	21956
889.263	21915
889.387	22036
889.511	22029
889.635	22044
889.759	21918
889.883	21956
890.006	21873
890.13	21930
890.254	21930
890.377	21804
890.501	21663
890.624	21667
890.748	21679
890.871	21583
890.995	21504
891.118	21496
891.241	21504
891.364	21488
891.488	21603
891.611	21523
891.734	21530
891.857	21572
891.98	21519
892.103	21587
892.226	21420
892.349	21481
892.471	21298
892.594	21275
892.717	21355
892.839	21329
892.962	21534
893.085	21473
893.207	21447
893.33	21408
893.452	21340
893.575	21317
893.697	21344
893.819	21477
893.941	21447
894.064	21603
894.186	21351
894.308	21207
894.43	21473
894.552	21553
894.674	21287
894.796	21249
894.918	21340
895.04	21302
895.161	21530
895.283	21340
895.405	21195
895.526	21370
895.648	21401
895.769	21412
895.891	21336
896.012	21435
896.134	21359
896.255	21336
896.376	21344
896.498	21321
896.619	21401
896.74	21378
896.861	21389
896.982	21580
897.103	21850
897.224	21507
897.345	21606
897.466	21545
897.587	21568
897.708	21679
897.828	21644
897.949	21507
898.07	21355
898.19	21488
898.311	21637
898.431	21428
898.552	21507
898.672	21496
898.792	21549
898.913	21553
899.033	21325
899.153	21367
899.273	21230
899.393	21161
899.513	21310
899.633	21264
899.753	21233
899.873	21233
899.993	21279
900.113	21150
900.232	21195
900.352	21222
900.472	21074
900.591	20902
900.711	21058
900.83	21058
900.95	21108
901.069	21116
901.189	20906
901.308	20568
901.427	20651
901.546	20575
901.665	20648
901.784	20579
901.904	20564
902.023	20415
902.141	20149
902.26	20134
902.379	20259
902.498	20122
902.617	20100
902.735	20005
902.854	20168
902.973	20088
903.091	19731
903.21	19586
903.328	19696
903.446	19662
903.565	19575
903.683	19487
903.801	19445
903.919	19441
904.038	19373
904.156	19304
904.274	19438
904.392	19297
904.51	19312
904.627	19282
904.745	19388
904.863	19312
904.981	19015
905.098	18905
905.216	18970
905.334	18962
905.451	18920
905.569	18947
905.686	18981
905.803	18924
905.921	18764
906.038	18909
906.155	18806
906.272	18536
906.389	18585
906.506	18494
906.623	18483
906.74	18475
906.857	18441
906.974	18319
907.091	18403
907.208	18597
907.324	18475
907.441	18437
907.557	18262
907.674	18152
907.79	18159
907.907	18232
908.023	18213
908.139	18125
908.256	18019
908.372	18140
908.488	17946
908.604	17927
908.72	17939
908.836	17851
908.952	17817
909.068	17893
909.184	17984
909.3	17870
909.415	17882
909.531	17863
909.647	17649
909.762	17665
909.878	17630
909.993	17661
910.108	17512
910.224	17581
910.339	17524
910.454	17528
910.57	17353
910.685	17223
910.8	17566
910.915	17455
911.03	17406
911.145	17292
911.259	17200
911.374	17155
911.489	17079
911.604	16972
911.718	16976
911.833	16923
911.947	16869
912.062	16744
912.176	16961
912.291	17025
912.405	16831
912.519	17151
912.633	17075
912.748	16900
912.862	16885
912.976	16778
913.09	16668
913.204	16679
913.318	16748
913.431	16892
913.545	16824
913.659	16824
913.772	16519
913.886	16592
914	16398
914.113	16675
914.226	16607
914.34	16512
914.453	16363
914.566	16436
914.68	16367
914.793	16284
914.906	16219
915.019	16078
915.132	15979
915.245	16082
915.358	16013
915.47	16135
915.583	15964
915.696	16017
915.809	16029
915.921	16223
916.034	15983
916.146	15915
916.259	15846
916.371	16040
916.483	15911
916.595	15865
916.708	15918
916.82	15838
916.932	15922
917.044	15953
917.156	15770
917.268	15599
917.38	15736
917.491	15705
917.603	15713
917.715	15743
917.826	15599
917.938	15599
918.049	15519
918.161	15564
918.272	15713
918.384	15660
918.495	15542
918.606	15473
918.717	15321
918.828	15507
918.939	15519
919.05	15435
919.161	15351
919.272	15294
919.383	15256
919.494	15488
919.604	15599
919.715	15370
919.826	15374
919.936	15370
920.047	15389
920.157	15408
920.267	15622
920.378	15348
920.488	15291
920.598	15496
920.708	15553
920.818	15515
920.928	15469
921.038	15694
921.148	15717
921.258	15367
921.368	15135
921.477	15176
921.587	15024
921.697	14933
921.806	15097
921.916	14975
922.025	14838
922.134	14735
922.244	14583
922.353	14727
922.462	14689
922.571	14613
922.68	14343
922.789	14347
922.898	14305
923.007	14286
923.116	14404
923.224	14370
923.333	14336
923.442	14225
923.55	14073
923.659	14229
923.767	14149
923.876	14100
923.984	14199
924.092	14081
924.201	14058
924.309	14024
924.417	13989
924.525	13967
924.633	14031
924.741	14819
924.849	13757
924.956	13928
925.064	13719
925.172	13769
925.279	13704
925.387	13814
925.494	13685
925.602	13833
925.709	13693
925.816	13613
925.924	13696
926.031	13704
926.138	13620
926.245	13727
926.352	13518
926.459	13658
926.566	13628
926.673	13597
926.779	13384
926.886	13491
926.993	13430
927.099	13202
927.206	13244
927.312	13194
927.419	13289
927.525	13221
927.631	13377
927.737	13217
927.843	13168
927.95	13000
928.056	13103
928.162	13023
928.267	13080
928.373	13746
928.479	13175
928.585	12958
928.69	12996
928.796	12958
928.901	12878
929.007	12741
929.112	12875
929.218	12935
929.323	12837
929.428	12795
929.533	12875
929.638	12707
929.743	12741
929.848	12749
929.953	12677
930.058	12589
930.163	12399
930.267	12490
930.372	12620
930.477	12323
930.581	12627
930.685	12544
930.79	12410
930.894	12426
930.998	12300
931.103	12372
931.207	12136
931.311	11950
931.415	11874
931.519	11691
931.623	11608
