Data from test_V78500241_3073.txt Node
Date: Fri Mar 25 16:03:05 CST 2022
User: usil
Spectrometer: V785-0024
Trigger mode: 0
Integration Time (sec): 4.000000E-1
Scans to average: 1
Nonlinearity correction enabled: false
Boxcar width: 0
Storing dark spectrum: false
XAxis mode: Wavelengths
Number of Pixels in Spectrum: 1024
>>>>>Begin Spectral Data<<<<<
801.071	28691
801.214	28816
801.356	28519
801.499	28466
801.641	28367
801.783	28382
801.926	28318
802.068	28417
802.211	28352
802.353	28246
802.496	28169
802.638	28040
802.78	27911
802.923	28093
803.065	27892
803.208	28086
803.35	28200
803.492	28147
803.635	28401
803.777	28329
803.919	28272
804.061	28622
804.204	28451
804.346	28261
804.488	28230
804.63	28310
804.773	28303
804.915	28489
805.057	28554
805.199	28291
805.341	28386
805.483	28512
805.626	28398
805.768	28497
805.91	28466
806.052	28504
806.194	28344
806.336	28664
806.478	28519
806.62	28554
806.762	28744
806.904	28812
807.046	29041
807.188	28949
807.33	28961
807.472	29010
807.614	28877
807.756	28904
807.898	28805
808.04	28847
808.182	28866
808.324	28911
808.465	28904
808.607	28972
808.749	29254
808.891	29155
809.033	29360
809.174	29303
809.316	29147
809.458	29204
809.6	29086
809.741	29185
809.883	29368
810.025	29520
810.166	29474
810.308	29486
810.45	29353
810.591	29395
810.733	29166
810.875	29132
811.016	29010
811.158	29083
811.299	29356
811.441	29356
811.582	29467
811.724	29239
811.865	29155
812.007	29212
812.148	29311
812.29	29223
812.431	29467
812.573	29520
812.714	29547
812.855	29710
812.997	29794
813.138	29992
813.279	29836
813.421	29737
813.562	29695
813.703	29668
813.845	29334
813.986	29292
814.127	29094
814.268	28885
814.41	29041
814.551	28847
814.692	28812
814.833	28938
814.974	28790
815.115	29079
815.256	28915
815.397	28793
815.539	28706
815.68	28858
815.821	28637
815.962	28706
816.103	28854
816.244	28664
816.385	28531
816.526	28535
816.666	28394
816.807	28238
816.948	28230
817.089	28493
817.23	28200
817.371	28128
817.512	28215
817.653	28150
817.793	28070
817.934	28265
818.075	28314
818.216	28192
818.356	28173
818.497	28147
818.638	28067
818.778	28078
818.919	28048
819.06	28105
819.2	28162
819.341	28173
819.481	28341
819.622	28413
819.762	28588
819.903	28489
820.043	28546
820.184	28367
820.324	28413
820.465	28443
820.605	28371
820.746	28470
820.886	28421
821.026	28424
821.167	28470
821.307	28367
821.447	28265
821.588	28207
821.728	28105
821.868	27953
822.008	27785
822.149	27880
822.289	27656
822.429	27386
822.569	27545
822.709	27405
822.849	27157
822.99	27317
823.13	27169
823.27	27241
823.41	27062
823.55	26971
823.69	27135
823.83	27093
823.97	26971
824.11	26842
824.25	26781
824.389	26826
824.529	27005
824.669	27013
824.809	27116
824.949	26994
825.089	27009
825.228	26891
825.368	26785
825.508	26689
825.648	26758
825.787	26826
825.927	26864
826.067	26785
826.206	26686
826.346	26842
826.485	26887
826.625	26689
826.765	26823
826.904	26769
827.044	26602
827.183	26431
827.323	26400
827.462	26590
827.601	26564
827.741	26552
827.88	26545
828.02	26351
828.159	26503
828.298	26511
828.437	26587
828.577	26370
828.716	26480
828.855	26324
828.994	26153
829.134	26252
829.273	26176
829.412	26161
829.551	26077
829.69	26138
829.829	26149
829.968	26210
830.107	26069
830.246	26130
830.385	26157
830.524	26142
830.663	26062
830.802	25944
830.941	25795
831.08	25723
831.219	25837
831.357	25875
831.496	25947
831.635	25894
831.774	25670
831.913	25712
832.051	25609
832.19	25460
832.329	25643
832.467	25540
832.606	25468
832.744	25373
832.883	25567
833.022	25327
833.16	25506
833.299	25518
833.437	25605
833.576	25613
833.714	25689
833.852	25578
833.991	25529
834.129	25685
834.267	25506
834.406	25578
834.544	25616
834.682	25533
834.821	25639
834.959	25681
835.097	25491
835.235	25521
835.373	25483
835.511	25529
835.65	25285
835.788	25430
835.926	25179
836.064	25251
836.202	25118
836.34	25441
836.478	25441
836.615	25400
836.753	25365
836.891	25563
837.029	25304
837.167	25339
837.305	25263
837.443	25240
837.58	25103
837.718	25255
837.856	25179
837.993	25069
838.131	25194
838.269	24996
838.406	25072
838.544	24989
838.681	24840
838.819	24757
838.956	24681
839.094	24696
839.231	24597
839.369	24920
839.506	25133
839.643	24837
839.781	24665
839.918	24540
840.055	24517
840.193	24688
840.33	24589
840.467	24471
840.604	24658
840.742	24764
840.879	24418
841.016	24399
841.153	24414
841.29	24559
841.427	24475
841.564	24646
841.701	24429
841.838	24502
841.975	24429
842.112	24410
842.249	24418
842.385	24308
842.522	24544
842.659	24407
842.796	24323
842.933	24403
843.069	24251
843.206	24076
843.343	24311
843.479	24300
843.616	24254
843.752	24213
843.889	24076
844.025	24224
844.162	24030
844.298	24133
844.435	24079
844.571	24038
844.708	24079
844.844	24083
844.98	24144
845.117	24239
845.253	23980
845.389	23889
845.525	23847
845.661	23771
845.798	23714
845.934	23882
846.07	23798
846.206	23843
846.342	23999
846.478	23733
846.614	23630
846.75	23539
846.886	23478
847.022	23642
847.158	23649
847.294	23592
847.429	23570
847.565	23547
847.701	23680
847.837	23307
847.972	23242
848.108	23299
848.244	23311
848.379	23208
848.515	23102
848.65	23037
848.786	23246
848.921	23109
849.057	23212
849.192	23178
849.328	23143
849.463	23124
849.598	23155
849.734	22980
849.869	22942
850.004	22892
850.14	22835
850.275	22809
850.41	22763
850.545	22797
850.68	22904
850.815	22957
850.95	22877
851.085	22946
851.22	22972
851.355	22938
851.49	22869
851.625	22816
851.76	22831
851.895	22858
852.03	22824
852.165	22816
852.299	22900
852.434	23006
852.569	22828
852.703	22858
852.838	22866
852.973	22972
853.107	22938
853.242	22805
853.376	22679
853.511	22611
853.645	22634
853.78	22835
853.914	22656
854.048	22759
854.183	22706
854.317	22797
854.451	22915
854.585	22736
854.72	22835
854.854	22847
854.988	22596
855.122	22664
855.256	22588
855.39	22687
855.524	22634
855.658	22725
855.792	22603
855.926	22596
856.06	22763
856.194	22755
856.327	22580
856.461	22660
856.595	22694
856.729	22672
856.862	22710
856.996	22812
857.13	22752
857.263	22786
857.397	22790
857.53	22713
857.664	22687
857.797	22645
857.931	22793
858.064	22698
858.197	22748
858.331	22573
858.464	22645
858.597	22512
858.731	22744
858.864	22592
858.997	22702
859.13	22687
859.263	22599
859.396	22835
859.529	22611
859.662	22656
859.795	22679
859.928	22797
860.061	22854
860.194	22736
860.327	22774
860.46	22767
860.592	22740
860.725	22850
860.858	22847
860.99	22660
861.123	22542
861.256	22599
861.388	22580
861.521	23455
861.653	22500
861.786	22565
861.918	22622
862.05	22542
862.183	22626
862.315	22569
862.447	22653
862.58	22538
862.712	22432
862.844	22268
862.976	22580
863.108	22428
863.24	22824
863.372	22325
863.504	22428
863.636	22390
863.768	22436
863.9	22481
864.032	22405
864.164	22299
864.296	22436
864.428	22375
864.559	22443
864.691	22440
864.823	22447
864.954	22386
865.086	22440
865.217	22329
865.349	22230
865.48	22154
865.612	22306
865.743	22333
865.875	22322
866.006	22215
866.137	22268
866.269	22284
866.4	22169
866.531	22246
866.662	22116
866.793	22223
866.924	22147
867.055	22226
867.186	22272
867.317	22158
867.448	22013
867.579	22154
867.71	22147
867.841	22002
867.972	22097
868.103	22128
868.233	22253
868.364	22173
868.495	22333
868.625	22440
868.756	22424
868.886	22417
869.017	22314
869.147	22527
869.278	22596
869.408	22432
869.539	22440
869.669	22489
869.799	22421
869.929	22622
870.06	22531
870.19	22713
870.32	22725
870.45	22839
870.58	22767
870.71	22847
870.84	22984
870.97	22862
871.1	22809
871.23	22923
871.36	23018
871.489	22938
871.619	23056
871.749	23132
871.879	23041
872.008	23231
872.138	23086
872.267	23041
872.397	22999
872.526	22911
872.656	22839
872.785	22843
872.915	23052
873.044	23239
873.173	23143
873.303	23041
873.432	23143
873.561	23094
873.69	23022
873.819	23014
873.948	23200
874.077	23044
874.206	22984
874.335	22999
874.464	23124
874.593	23440
874.722	23277
874.851	23265
874.979	23307
875.108	23303
875.237	23277
875.365	23239
875.494	23155
875.623	23181
875.751	23136
875.88	23353
876.008	23387
876.136	23349
876.265	23687
876.393	23874
876.521	23851
876.65	23786
876.778	23684
876.906	23604
877.034	23668
877.162	23509
877.29	23566
877.418	23646
877.546	23653
877.674	23531
877.802	23562
877.93	23589
878.058	23512
878.185	23539
878.313	23539
878.441	23611
878.568	23414
878.696	23448
878.824	23547
878.951	23661
879.079	23958
879.206	23870
879.333	23741
879.461	23649
879.588	23737
879.715	23859
879.842	23939
879.97	23615
880.097	23455
880.224	23433
880.351	23463
880.478	23345
880.605	23349
880.732	23296
880.859	23661
880.986	23524
881.112	23528
881.239	23364
881.366	23296
881.493	23094
881.619	22987
881.746	23041
881.872	22984
881.999	22965
882.125	22900
882.252	22972
882.378	22938
882.505	23022
882.631	22767
882.757	22588
882.883	22759
883.01	22687
883.136	22577
883.262	22561
883.388	22546
883.514	22706
883.64	22672
883.766	22535
883.892	22474
884.018	22478
884.143	22656
884.269	22675
884.395	22322
884.52	22303
884.646	22348
884.772	22322
884.897	22173
885.023	22268
885.148	22424
885.274	22478
885.399	22344
885.524	22268
885.65	22242
885.775	22325
885.9	22318
886.025	22284
886.15	22337
886.275	22272
886.4	22169
886.525	22234
886.65	22318
886.775	22143
886.9	22428
887.025	22538
887.149	22287
887.274	21949
887.399	22078
887.523	22032
887.648	21979
887.773	21964
887.897	22128
888.021	22109
888.146	22021
888.27	22215
888.395	22211
888.519	22051
888.643	22116
888.767	22010
888.891	21960
889.015	21846
889.139	21892
889.263	21724
889.387	21956
889.511	21987
889.635	21945
889.759	21884
889.883	21793
890.006	21781
890.13	21804
890.254	21743
890.377	21804
890.501	21625
890.624	21511
890.748	21591
890.871	21466
890.995	21378
891.118	21332
891.241	21313
891.364	21492
891.488	21504
891.611	21378
891.734	21477
891.857	21443
891.98	21348
892.103	21450
892.226	21329
892.349	21306
892.471	21226
892.594	21367
892.717	21260
892.839	21169
892.962	21329
893.085	21291
893.207	21226
893.33	21119
893.452	21256
893.575	21241
893.697	21199
893.819	21344
893.941	21401
894.064	21370
894.186	21233
894.308	21287
894.43	21298
894.552	21367
894.674	21321
894.796	21127
894.918	21241
895.04	21264
895.161	21370
895.283	21302
895.405	21119
895.526	21233
895.648	21176
895.769	21332
895.891	21336
896.012	21359
896.134	21260
896.255	21332
896.376	21138
896.498	21222
896.619	21252
896.74	21256
896.861	21260
896.982	21591
897.103	21648
897.224	21466
897.345	21496
897.466	21355
897.587	21389
897.708	21557
897.828	21435
897.949	21469
898.07	21203
898.19	21447
898.311	21504
898.431	21359
898.552	21496
898.672	21526
898.792	21458
898.913	21420
899.033	21245
899.153	21237
899.273	21089
899.393	21169
899.513	21222
899.633	21142
899.753	21188
899.873	21123
899.993	21142
900.113	21077
900.232	21047
900.352	21085
900.472	21020
900.591	20937
900.711	20960
900.83	20861
900.95	21001
901.069	21051
901.189	20880
901.308	20609
901.427	20518
901.546	20408
901.665	20503
901.784	20640
901.904	20423
902.023	20233
902.141	20138
902.26	20065
902.379	20119
902.498	20111
902.617	19959
902.735	20005
902.854	19989
902.973	19856
903.091	19578
903.21	19700
903.328	19818
903.446	19609
903.565	19468
903.683	19514
903.801	19304
903.919	19324
904.038	19426
904.156	19297
904.274	19206
904.392	19103
904.51	19232
904.627	19187
904.745	19274
904.863	19274
904.981	18943
905.098	18810
905.216	18753
905.334	18951
905.451	18916
905.569	18886
905.686	18943
905.803	18829
905.921	18623
906.038	18745
906.155	18757
906.272	18456
906.389	18566
906.506	18525
906.623	18467
906.74	18338
906.857	18448
906.974	18266
907.091	18403
907.208	18441
907.324	18410
907.441	18296
907.557	18258
907.674	18155
907.79	18136
907.907	18117
908.023	18064
908.139	18053
908.256	17996
908.372	18003
908.488	17843
908.604	17840
908.72	17843
908.836	17813
908.952	17707
909.068	17870
909.184	17885
909.3	17889
909.415	17897
909.531	17756
909.647	17649
909.762	17448
909.878	17505
909.993	17543
910.108	17505
910.224	17421
910.339	17414
910.454	17303
910.57	17383
910.685	17292
910.8	17520
910.915	17512
911.03	17387
911.145	17143
911.259	17124
911.374	17113
911.489	16976
911.604	16984
911.718	16908
911.833	16847
911.947	16786
912.062	16759
912.176	16892
912.291	16858
912.405	16820
912.519	16984
912.633	17064
912.748	16915
912.862	16687
912.976	16812
913.09	16512
913.204	16634
913.318	16691
913.431	16729
913.545	16645
913.659	16630
913.772	16626
913.886	16516
914	16550
914.113	16512
914.226	16512
914.34	16447
914.453	16333
914.566	16417
914.68	16341
914.793	16310
914.906	16055
915.019	15998
915.132	15880
915.245	16021
915.358	15991
915.47	16067
915.583	16032
915.696	16029
915.809	16143
915.921	16097
916.034	15808
916.146	15956
916.259	16010
916.371	15926
916.483	15934
916.595	15831
916.708	15823
916.82	15918
916.932	15812
917.044	15762
917.156	15652
917.268	15637
917.38	15713
917.491	15610
917.603	15633
917.715	15656
917.826	15686
917.938	15599
918.049	15454
918.161	15572
918.272	15694
918.384	15637
918.495	15553
918.606	15435
918.717	15260
918.828	15370
918.939	15450
919.05	15298
919.161	15420
919.272	15127
919.383	15199
919.494	15397
919.604	15564
919.715	15439
919.826	15249
919.936	15321
920.047	15428
920.157	15325
920.267	15416
920.378	15355
920.488	15268
920.598	15431
920.708	15690
920.818	15568
920.928	15435
921.038	15576
921.148	15705
921.258	15393
921.368	15226
921.477	15017
921.587	15154
921.697	14921
921.806	14960
921.916	14876
922.025	14746
922.134	14739
922.244	14720
922.353	14625
922.462	14682
922.571	14537
922.68	14301
922.789	14336
922.898	14412
923.007	14366
923.116	14309
923.224	14286
923.333	14301
923.442	14210
923.55	14126
923.659	14195
923.767	14214
923.876	14046
923.984	14130
924.092	14054
924.201	14046
924.309	14073
924.417	14077
924.525	14027
924.633	14039
924.741	14815
924.849	13871
924.956	13940
925.064	13765
925.172	13628
925.279	13662
925.387	13731
925.494	13689
925.602	13902
925.709	13738
925.816	13514
925.924	13715
926.031	13746
926.138	13708
926.245	13712
926.352	13514
926.459	13677
926.566	13662
926.673	13620
926.779	13384
926.886	13453
926.993	13331
927.099	13190
927.206	13225
927.312	13282
927.419	13278
927.525	13247
927.631	13263
927.737	13164
927.843	13183
927.95	12932
928.056	13038
928.162	13091
928.267	13126
928.373	13799
928.479	13091
928.585	12856
928.69	12996
928.796	12954
928.901	12897
929.007	12795
929.112	12882
929.218	12856
929.323	12783
929.428	12700
929.533	12871
929.638	12719
929.743	12658
929.848	12757
929.953	12677
930.058	12540
930.163	12410
930.267	12467
930.372	12578
930.477	12388
930.581	12593
930.685	12452
930.79	12292
930.894	12342
930.998	12243
931.103	12399
931.207	12068
931.311	11961
931.415	11851
931.519	11718
931.623	11726
