Data from test_V78500241_2500.txt Node
Date: Fri Mar 25 15:59:07 CST 2022
User: usil
Spectrometer: V785-0024
Trigger mode: 0
Integration Time (sec): 4.000000E-1
Scans to average: 1
Nonlinearity correction enabled: false
Boxcar width: 0
Storing dark spectrum: false
XAxis mode: Wavelengths
Number of Pixels in Spectrum: 1024
>>>>>Begin Spectral Data<<<<<
801.071	28120
801.214	28147
801.356	27888
801.499	27945
801.641	27675
801.783	27717
801.926	27842
802.068	27682
802.211	27690
802.353	27595
802.496	27466
802.638	27325
802.78	27351
802.923	27340
803.065	27302
803.208	27389
803.35	27408
803.492	27603
803.635	27656
803.777	27633
803.919	27580
804.061	27819
804.204	27724
804.346	27633
804.488	27564
804.63	27614
804.773	27572
804.915	27690
805.057	27747
805.199	27618
805.341	27694
805.483	27759
805.626	27823
805.768	27564
805.91	27808
806.052	27686
806.194	27614
806.336	27972
806.478	27720
806.62	27903
806.762	27823
806.904	27998
807.046	28265
807.188	28166
807.33	28185
807.472	28272
807.614	28139
807.756	28173
807.898	28074
808.04	28131
808.182	28021
808.324	28124
808.465	28169
808.607	28299
808.749	28462
808.891	28497
809.033	28729
809.174	28535
809.316	28287
809.458	28432
809.6	28481
809.741	28538
809.883	28382
810.025	28755
810.166	28664
810.308	28793
810.45	28580
810.591	28554
810.733	28462
810.875	28325
811.016	28337
811.158	28310
811.299	28421
811.441	28588
811.582	28516
811.724	28360
811.865	28284
812.007	28481
812.148	28417
812.29	28523
812.431	28565
812.573	28717
812.714	28835
812.855	28919
812.997	28987
813.138	29132
813.279	29128
813.421	28984
813.562	28831
813.703	28596
813.845	28611
813.986	28310
814.127	28181
814.268	28048
814.41	28109
814.551	28150
814.692	28177
814.833	28021
814.974	27975
815.115	28006
815.256	27953
815.397	28105
815.539	27945
815.68	27960
815.821	27888
815.962	27968
816.103	27991
816.244	27838
816.385	27747
816.526	27603
816.666	27450
816.807	27397
816.948	27348
817.089	27511
817.23	27367
817.371	27348
817.512	27412
817.653	27348
817.793	27272
817.934	27291
818.075	27351
818.216	27386
818.356	27405
818.497	27272
818.638	27146
818.778	27180
818.919	27214
819.06	27233
819.2	27241
819.341	27420
819.481	27401
819.622	27496
819.762	27838
819.903	27641
820.043	27542
820.184	27519
820.324	27549
820.465	27545
820.605	27564
820.746	27599
820.886	27397
821.026	27564
821.167	27359
821.307	27500
821.447	27439
821.588	27374
821.728	27272
821.868	27051
822.008	26868
822.149	26910
822.289	26807
822.429	26625
822.569	26499
822.709	26442
822.849	26324
822.99	26473
823.13	26278
823.27	26286
823.41	26233
823.55	26214
823.69	26176
823.83	26301
823.97	26092
824.11	26027
824.25	25921
824.389	26016
824.529	26065
824.669	26149
824.809	26126
824.949	26145
825.089	26176
825.228	26088
825.368	25746
825.508	25849
825.648	25894
825.787	25986
825.927	25898
826.067	25894
826.206	25951
826.346	26012
826.485	25932
826.625	25871
826.765	26054
826.904	25917
827.044	25708
827.183	25772
827.323	25590
827.462	25575
827.601	25575
827.741	25647
827.88	25677
828.02	25483
828.159	25521
828.298	25613
828.437	25548
828.577	25502
828.716	25548
828.855	25468
828.994	25472
829.134	25339
829.273	25495
829.412	25225
829.551	25373
829.69	25213
829.829	25278
829.968	25377
830.107	25297
830.246	25251
830.385	25198
830.524	25217
830.663	25110
830.802	24916
830.941	24890
831.08	24787
831.219	25050
831.357	25015
831.496	25148
831.635	24886
831.774	24837
831.913	24806
832.051	24719
832.19	24654
832.329	24753
832.467	24654
832.606	24525
832.744	24642
832.883	24547
833.022	24513
833.16	24509
833.299	24570
833.437	24661
833.576	24646
833.714	24722
833.852	24772
833.991	24661
834.129	24749
834.267	24730
834.406	24696
834.544	24677
834.682	24528
834.821	24665
834.959	24741
835.097	24566
835.235	24715
835.373	24597
835.511	24540
835.65	24563
835.788	24464
835.926	24422
836.064	24235
836.202	24201
836.34	24559
836.478	24456
836.615	24365
836.753	24376
836.891	24547
837.029	24437
837.167	24376
837.305	24258
837.443	24205
837.58	24308
837.718	24456
837.856	24289
837.993	24136
838.131	24247
838.269	24114
838.406	24155
838.544	24003
838.681	23927
838.819	23923
838.956	23790
839.094	23710
839.231	23748
839.369	23923
839.506	24095
839.643	23961
839.781	23828
839.918	23790
840.055	23733
840.193	23745
840.33	23596
840.467	23627
840.604	23684
840.742	23984
840.879	23486
841.016	23566
841.153	23505
841.29	23684
841.427	23570
841.564	23665
841.701	23722
841.838	23547
841.975	23501
842.112	23482
842.249	23455
842.385	23440
842.522	23649
842.659	23387
842.796	23429
842.933	23501
843.069	23429
843.206	23315
843.343	23459
843.479	23410
843.616	23490
843.752	23318
843.889	23155
844.025	23212
844.162	23033
844.298	23288
844.435	23166
844.571	23258
844.708	23231
844.844	23345
844.98	23296
845.117	23364
845.253	23136
845.389	23246
845.525	23155
845.661	23083
845.798	22911
845.934	23071
846.07	22786
846.206	22957
846.342	23067
846.478	22858
846.614	22637
846.75	22645
846.886	22691
847.022	22786
847.158	22706
847.294	22660
847.429	22717
847.565	22626
847.701	22869
847.837	22386
847.972	22238
848.108	22550
848.244	22443
848.379	22299
848.515	22363
848.65	22322
848.786	22268
848.921	22299
849.057	22306
849.192	22246
849.328	22371
849.463	22360
849.598	22158
849.734	22177
849.869	22101
850.004	21964
850.14	21949
850.275	21953
850.41	22006
850.545	21979
850.68	22006
850.815	22101
850.95	22082
851.085	22162
851.22	22249
851.355	22093
851.49	21937
851.625	22055
851.76	22017
851.895	22006
852.03	21884
852.165	22006
852.299	21991
852.434	22124
852.569	22044
852.703	22021
852.838	22063
852.973	22097
853.107	22215
853.242	21945
853.376	21774
853.511	21838
853.645	21793
853.78	21800
853.914	21960
854.048	21755
854.183	21892
854.317	21884
854.451	21987
854.585	21831
854.72	21812
854.854	21846
854.988	21827
855.122	21816
855.256	21728
855.39	21778
855.524	21888
855.658	21835
855.792	21770
855.926	21819
856.06	21907
856.194	21869
856.327	21774
856.461	21679
856.595	21835
856.729	21797
856.862	21960
856.996	21869
857.13	21892
857.263	21808
857.397	21937
857.53	21816
857.664	21915
857.797	21816
857.931	21987
858.064	21888
858.197	21934
858.331	21751
858.464	21717
858.597	21675
858.731	21907
858.864	21774
858.997	21846
859.13	21808
859.263	21800
859.396	21899
859.529	21743
859.662	21732
859.795	21804
859.928	21713
860.061	21918
860.194	21991
860.327	21975
860.46	21812
860.592	22070
860.725	21983
860.858	21994
860.99	21854
861.123	21854
861.256	21720
861.388	21823
861.521	22424
861.653	21797
861.786	21564
861.918	21686
862.05	21732
862.183	21705
862.315	21800
862.447	21941
862.58	21686
862.712	21519
862.844	21401
862.976	21637
863.108	21625
863.24	21854
863.372	21622
863.504	21587
863.636	21561
863.768	21644
863.9	21447
864.032	21519
864.164	21496
864.296	21549
864.428	21576
864.559	21564
864.691	21652
864.823	21583
864.954	21462
865.086	21534
865.217	21405
865.349	21291
865.48	21325
865.612	21530
865.743	21500
865.875	21397
866.006	21428
866.137	21336
866.269	21481
866.4	21428
866.531	21481
866.662	21401
866.793	21408
866.924	21481
867.055	21325
867.186	21359
867.317	21351
867.448	21378
867.579	21283
867.71	21294
867.841	21249
867.972	21344
868.103	21294
868.233	21367
868.364	21336
868.495	21485
868.625	21591
868.756	21694
868.886	21637
869.017	21599
869.147	21557
869.278	21667
869.408	21633
869.539	21519
869.669	21663
869.799	21606
869.929	21766
870.06	21705
870.19	21835
870.32	21823
870.45	22063
870.58	21979
870.71	21956
870.84	22131
870.97	21983
871.1	22025
871.23	22215
871.36	22090
871.489	22048
871.619	22143
871.749	22238
871.879	22223
872.008	22234
872.138	22139
872.267	22181
872.397	22101
872.526	22013
872.656	22139
872.785	22025
872.915	22188
873.044	22352
873.173	22185
873.303	22257
873.432	22291
873.561	22196
873.69	22322
873.819	22284
873.948	22306
874.077	22173
874.206	22185
874.335	22246
874.464	22246
874.593	22428
874.722	22413
874.851	22508
874.979	22535
875.108	22455
875.237	22386
875.365	22394
875.494	22299
875.623	22478
875.751	22421
875.88	22504
876.008	22641
876.136	22474
876.265	22957
876.393	23018
876.521	23029
876.65	22854
876.778	22782
876.906	22786
877.034	22797
877.162	22797
877.29	22691
877.418	22896
877.546	22615
877.674	22710
877.802	22805
877.93	22805
878.058	22778
878.185	22702
878.313	22790
878.441	22759
878.568	22668
878.696	22653
878.824	22812
878.951	22881
879.079	22930
879.206	23018
879.333	22984
879.461	22984
879.588	22923
879.715	23041
879.842	23029
879.97	22892
880.097	22577
880.224	22679
880.351	22691
880.478	22588
880.605	22630
880.732	22561
880.859	22782
880.986	22710
881.112	22618
881.239	22599
881.366	22192
881.493	22230
881.619	22162
881.746	22150
881.872	22265
881.999	22139
882.125	22135
882.252	22207
882.378	22150
882.505	22356
882.631	22017
882.757	21846
882.883	21937
883.01	21812
883.136	21816
883.262	21884
883.388	21679
883.514	21823
883.64	21930
883.766	21724
883.892	21660
884.018	21625
884.143	21781
884.269	21899
884.395	21545
884.52	21507
884.646	21568
884.772	21500
884.897	21488
885.023	21488
885.148	21633
885.274	21526
885.399	21564
885.524	21553
885.65	21561
885.775	21618
885.9	21542
886.025	21629
886.15	21515
886.275	21408
886.4	21374
886.525	21507
886.65	21458
886.775	21348
886.9	21557
887.025	21701
887.149	21447
887.274	21268
887.399	21252
887.523	21260
887.648	21249
887.773	21207
887.897	21233
888.021	21260
888.146	21237
888.27	21325
888.395	21310
888.519	21161
888.643	21260
888.767	21287
888.891	21173
889.015	21043
889.139	21096
889.263	20933
889.387	21180
889.511	21294
889.635	21066
889.759	21161
889.883	21032
890.006	20979
890.13	21188
890.254	21138
890.377	21043
890.501	20838
890.624	20819
890.748	20815
890.871	20678
890.995	20598
891.118	20617
891.241	20598
891.364	20663
891.488	20792
891.611	20739
891.734	20678
891.857	20682
891.98	20556
892.103	20670
892.226	20625
892.349	20613
892.471	20343
892.594	20549
892.717	20575
892.839	20571
892.962	20629
893.085	20537
893.207	20552
893.33	20465
893.452	20423
893.575	20537
893.697	20408
893.819	20693
893.941	20788
894.064	20659
894.186	20503
894.308	20446
894.43	20602
894.552	20727
894.674	20659
894.796	20415
894.918	20552
895.04	20442
895.161	20632
895.283	20518
895.405	20457
895.526	20560
895.648	20587
895.769	20541
895.891	20533
896.012	20682
896.134	20511
896.255	20613
896.376	20450
896.498	20655
896.619	20667
896.74	20564
896.861	20454
896.982	20777
897.103	20994
897.224	20811
897.345	20708
897.466	20716
897.587	20587
897.708	20849
897.828	20697
897.949	20655
898.07	20549
898.19	20720
898.311	20682
898.431	20815
898.552	20819
898.672	20853
898.792	20796
898.913	20864
899.033	20743
899.153	20750
899.273	20503
899.393	20454
899.513	20514
899.633	20408
899.753	20552
899.873	20389
899.993	20431
900.113	20393
900.232	20469
900.352	20343
900.472	20225
900.591	20153
900.711	20320
900.83	20176
900.95	20339
901.069	20320
901.189	20168
901.308	19906
901.427	19833
901.546	19883
901.665	19852
901.784	19818
901.904	19845
902.023	19609
902.141	19419
902.26	19449
902.379	19441
902.498	19381
902.617	19320
902.735	19396
902.854	19327
902.973	19369
903.091	19046
903.21	18996
903.328	18996
903.446	18837
903.565	18776
903.683	18753
903.801	18798
903.919	18783
904.038	18703
904.156	18681
904.274	18715
904.392	18498
904.51	18528
904.627	18582
904.745	18650
904.863	18681
904.981	18292
905.098	18178
905.216	18216
905.334	18273
905.451	18270
905.569	18194
905.686	18247
905.803	18220
905.921	18019
906.038	18034
906.155	17999
906.272	17882
906.389	17988
906.506	17813
906.623	17832
906.74	17771
906.857	17638
906.974	17695
907.091	17718
907.208	17878
907.324	17680
907.441	17623
907.557	17474
907.674	17532
907.79	17398
907.907	17444
908.023	17478
908.139	17596
908.256	17528
908.372	17372
908.488	17345
908.604	17140
908.72	17261
908.836	17212
908.952	17212
909.068	17174
909.184	17235
909.3	17178
909.415	17204
909.531	17231
909.647	16908
909.762	16854
909.878	16847
909.993	16873
910.108	16835
910.224	16835
910.339	16828
910.454	16744
910.57	16664
910.685	16596
910.8	16873
910.915	16946
911.03	16717
911.145	16603
911.259	16394
911.374	16550
911.489	16322
911.604	16303
911.718	16234
911.833	16185
911.947	16128
912.062	16040
912.176	16173
912.291	16226
912.405	16158
912.519	16398
912.633	16382
912.748	16318
912.862	16280
912.976	16090
913.09	15903
913.204	16071
913.318	16082
913.431	16249
913.545	16166
913.659	16105
913.772	15949
913.886	15895
914	15865
914.113	15918
914.226	15937
914.34	15888
914.453	15717
914.566	15903
914.68	15808
914.793	15648
914.906	15435
915.019	15389
915.132	15458
915.245	15469
915.358	15424
915.47	15447
915.583	15408
915.696	15382
915.809	15534
915.921	15580
916.034	15458
916.146	15393
916.259	15348
916.371	15526
916.483	15367
916.595	15222
916.708	15241
916.82	15226
916.932	15237
917.044	15169
917.156	15169
917.268	15074
917.38	15043
917.491	15055
917.603	14994
917.715	15123
917.826	15051
917.938	14982
918.049	15036
918.161	14998
918.272	15112
918.384	15142
918.495	15036
918.606	14853
918.717	14800
918.828	14826
918.939	14792
919.05	14743
919.161	14686
919.272	14644
919.383	14606
919.494	14925
919.604	15001
919.715	14800
919.826	14716
919.936	14750
920.047	14777
920.157	14876
920.267	14891
920.378	14815
920.488	14788
920.598	14986
920.708	15055
920.818	14979
920.928	14937
921.038	15108
921.148	15085
921.258	14731
921.368	14606
921.477	14503
921.587	14518
921.697	14415
921.806	14575
921.916	14332
922.025	14180
922.134	14130
922.244	14225
922.353	14176
922.462	14027
922.571	13963
922.68	13814
922.789	13807
922.898	13826
923.007	13822
923.116	13837
923.224	13864
923.333	13849
923.442	13670
923.55	13727
923.659	13639
923.767	13746
923.876	13594
923.984	13655
924.092	13518
924.201	13563
924.309	13518
924.417	13575
924.525	13411
924.633	13499
924.741	14271
924.849	13285
924.956	13407
925.064	13278
925.172	13175
925.279	13232
925.387	13213
925.494	13259
925.602	13324
925.709	13270
925.816	13114
925.924	13160
926.031	13213
926.138	13270
926.245	13198
926.352	13183
926.459	13194
926.566	13228
926.673	13061
926.779	12985
926.886	13031
926.993	12837
927.099	12768
927.206	12719
927.312	12741
927.419	12878
927.525	12821
927.631	12757
927.737	12650
927.843	12700
927.95	12555
928.056	12616
928.162	12738
928.267	12654
928.373	13278
928.479	12650
928.585	12471
928.69	12559
928.796	12597
928.901	12486
929.007	12353
929.112	12445
929.218	12441
929.323	12330
929.428	12319
929.533	12483
929.638	12235
929.743	12380
929.848	12418
929.953	12235
930.058	12163
930.163	12045
930.267	11992
930.372	12117
930.477	11999
930.581	12194
930.685	12049
930.79	11942
930.894	11931
930.998	11832
931.103	11965
931.207	11558
931.311	11600
931.415	11482
931.519	11334
931.623	11269
