Data from test_V78500241_1858.txt Node
Date: Fri Mar 25 15:54:40 CST 2022
User: usil
Spectrometer: V785-0024
Trigger mode: 0
Integration Time (sec): 4.000000E-1
Scans to average: 1
Nonlinearity correction enabled: false
Boxcar width: 0
Storing dark spectrum: false
XAxis mode: Wavelengths
Number of Pixels in Spectrum: 1024
>>>>>Begin Spectral Data<<<<<
801.071	28443
801.214	28516
801.356	28177
801.499	28257
801.641	28150
801.783	28048
801.926	28048
802.068	28131
802.211	27914
802.353	27846
802.496	27724
802.638	27671
802.78	27755
802.923	27705
803.065	27637
803.208	27625
803.35	27781
803.492	27842
803.635	27994
803.777	27876
803.919	27876
804.061	28394
804.204	27953
804.346	27911
804.488	27819
804.63	28101
804.773	27934
804.915	27949
805.057	28162
805.199	27937
805.341	28067
805.483	28154
805.626	28109
805.768	28120
805.91	28082
806.052	28147
806.194	28013
806.336	28253
806.478	28101
806.62	28082
806.762	28207
806.904	28371
807.046	28630
807.188	28611
807.33	28538
807.472	28596
807.614	28508
807.756	28417
807.898	28401
808.04	28337
808.182	28436
808.324	28440
808.465	28432
808.607	28778
808.749	28729
808.891	28930
809.033	29022
809.174	28793
809.316	28603
809.458	28828
809.6	28733
809.741	28930
809.883	29003
810.025	29029
810.166	29071
810.308	29037
810.45	29071
810.591	28862
810.733	28748
810.875	28839
811.016	28698
811.158	28748
811.299	28812
811.441	28930
811.582	28995
811.724	28683
811.865	28710
812.007	28748
812.148	28710
812.29	28949
812.431	28896
812.573	29197
812.714	29140
812.855	29303
812.997	29360
813.138	29596
813.279	29395
813.421	29155
813.562	29227
813.703	29147
813.845	28911
813.986	28809
814.127	28634
814.268	28485
814.41	28386
814.551	28497
814.692	28698
814.833	28436
814.974	28417
815.115	28440
815.256	28478
815.397	28405
815.539	28310
815.68	28284
815.821	28242
815.962	28211
816.103	28253
816.244	28074
816.385	28032
816.526	28025
816.666	27926
816.807	27892
816.948	27960
817.089	28032
817.23	27812
817.371	27766
817.512	27846
817.653	27949
817.793	27618
817.934	27724
818.075	27804
818.216	27835
818.356	27675
818.497	27671
818.638	27435
818.778	27504
818.919	27526
819.06	27629
819.2	27660
819.341	27797
819.481	27850
819.622	27892
819.762	28002
819.903	28101
820.043	27918
820.184	27937
820.324	27934
820.465	28040
820.605	28029
820.746	27975
820.886	27694
821.026	27751
821.167	27960
821.307	27953
821.447	27895
821.588	27644
821.728	27587
821.868	27416
822.008	27302
822.149	27302
822.289	27233
822.429	27081
822.569	27032
822.709	26998
822.849	26682
822.99	26838
823.13	26769
823.27	26845
823.41	26712
823.55	26484
823.69	26568
823.83	26686
823.97	26537
824.11	26476
824.25	26244
824.389	26480
824.529	26541
824.669	26476
824.809	26469
824.949	26461
825.089	26453
825.228	26450
825.368	26317
825.508	26317
825.648	26294
825.787	26366
825.927	26404
826.067	26282
826.206	26210
826.346	26317
826.485	26412
826.625	26298
826.765	26240
826.904	26317
827.044	26122
827.183	26027
827.323	26062
827.462	26065
827.601	26054
827.741	25906
827.88	26065
828.02	25879
828.159	25966
828.298	26062
828.437	26062
828.577	26054
828.716	26035
828.855	25966
828.994	25818
829.134	25518
829.273	25689
829.412	25647
829.551	25674
829.69	25620
829.829	25723
829.968	25814
830.107	25677
830.246	25761
830.385	25590
830.524	25578
830.663	25495
830.802	25365
830.941	25434
831.08	25255
831.219	25354
831.357	25400
831.496	25563
831.635	25324
831.774	25259
831.913	25122
832.051	25088
832.19	25202
832.329	24981
832.467	24958
832.606	24951
832.744	24897
832.883	24935
833.022	24981
833.16	24916
833.299	25027
833.437	25031
833.576	25171
833.714	25069
833.852	24970
833.991	25221
834.129	25194
834.267	25004
834.406	24943
834.544	25042
834.682	24996
834.821	24935
834.959	25137
835.097	24943
835.235	24996
835.373	24966
835.511	25148
835.65	24928
835.788	24901
835.926	24817
836.064	24730
836.202	24764
836.34	24901
836.478	24939
836.615	24905
836.753	24958
836.891	24863
837.029	24859
837.167	24840
837.305	24642
837.443	24776
837.58	24555
837.718	24764
837.856	24681
837.993	24627
838.131	24677
838.269	24483
838.406	24525
838.544	24540
838.681	24216
838.819	24426
838.956	24129
839.094	24003
839.231	24167
839.369	24376
839.506	24540
839.643	24372
839.781	24167
839.918	24007
840.055	24125
840.193	24117
840.33	24003
840.467	24072
840.604	24171
840.742	24254
840.879	24057
841.016	24007
841.153	23954
841.29	24239
841.427	24053
841.564	24152
841.701	24083
841.838	23904
841.975	23874
842.112	23942
842.249	23832
842.385	23855
842.522	24026
842.659	23783
842.796	23737
842.933	23798
843.069	23897
843.206	23802
843.343	23684
843.479	23954
843.616	23855
843.752	23592
843.889	23619
844.025	23726
844.162	23623
844.298	23657
844.435	23661
844.571	23501
844.708	23615
844.844	23821
844.98	23684
845.117	23608
845.253	23406
845.389	23452
845.525	23459
845.661	23364
845.798	23356
845.934	23379
846.07	23334
846.206	23326
846.342	23505
846.478	23284
846.614	23170
846.75	22942
846.886	22976
847.022	23060
847.158	22976
847.294	23067
847.429	23075
847.565	23044
847.701	23341
847.837	22828
847.972	22748
848.108	22911
848.244	22763
848.379	22725
848.515	22645
848.65	22675
848.786	22615
848.921	22755
849.057	22694
849.192	22771
849.328	22713
849.463	22596
849.598	22577
849.734	22557
849.869	22516
850.004	22421
850.14	22459
850.275	22398
850.41	22329
850.545	22303
850.68	22405
850.815	22459
850.95	22386
851.085	22630
851.22	22424
851.355	22318
851.49	22455
851.625	22238
851.76	22360
851.895	22382
852.03	22280
852.165	22310
852.299	22504
852.434	22246
852.569	22352
852.703	22550
852.838	22478
852.973	22504
853.107	22565
853.242	22276
853.376	22143
853.511	22124
853.645	22188
853.78	22299
853.914	22242
854.048	22112
854.183	22188
854.317	22287
854.451	22394
854.585	22219
854.72	22204
854.854	22322
854.988	22128
855.122	22322
855.256	22090
855.39	22257
855.524	22257
855.658	22204
855.792	22265
855.926	22265
856.06	22329
856.194	22272
856.327	22207
856.461	22238
856.595	22200
856.729	22150
856.862	22223
856.996	22234
857.13	22253
857.263	22325
857.397	22379
857.53	22105
857.664	22348
857.797	22242
857.931	22223
858.064	22234
858.197	22394
858.331	22310
858.464	22082
858.597	22112
858.731	22169
858.864	22257
858.997	22204
859.13	22166
859.263	22223
859.396	22310
859.529	22215
859.662	22223
859.795	22112
859.928	22287
860.061	22318
860.194	22402
860.327	22287
860.46	22158
860.592	22367
860.725	22261
860.858	22367
860.99	22090
861.123	22017
861.256	22230
861.388	22226
861.521	22968
861.653	22192
861.786	22048
861.918	21972
862.05	22082
862.183	22177
862.315	22150
862.447	22128
862.58	22078
862.712	22036
862.844	21846
862.976	22032
863.108	21987
863.24	22466
863.372	21861
863.504	21911
863.636	21960
863.768	21873
863.9	21934
864.032	21816
864.164	21842
864.296	21861
864.428	21842
864.559	22025
864.691	21895
864.823	21903
864.954	21884
865.086	21857
865.217	21751
865.349	21705
865.48	21747
865.612	21739
865.743	21903
865.875	21975
866.006	21781
866.137	21759
866.269	21892
866.4	21728
866.531	21690
866.662	21599
866.793	21686
866.924	21671
867.055	21656
867.186	21720
867.317	21713
867.448	21637
867.579	21732
867.71	21618
867.841	21694
867.972	21603
868.103	21732
868.233	21717
868.364	21770
868.495	21895
868.625	21953
868.756	22150
868.886	21873
869.017	21918
869.147	22002
869.278	21983
869.408	22082
869.539	21873
869.669	22147
869.799	22048
869.929	22143
870.06	22128
870.19	22284
870.32	22150
870.45	22223
870.58	22303
870.71	22489
870.84	22394
870.97	22409
871.1	22287
871.23	22508
871.36	22485
871.489	22538
871.619	22557
871.749	22489
871.879	22596
872.008	22725
872.138	22531
872.267	22618
872.397	22565
872.526	22409
872.656	22352
872.785	22310
872.915	22561
873.044	22637
873.173	22603
873.303	22599
873.432	22767
873.561	22622
873.69	22542
873.819	22683
873.948	22603
874.077	22649
874.206	22546
874.335	22504
874.464	22603
874.593	22816
874.722	22698
874.851	22858
874.979	22835
875.108	22866
875.237	22683
875.365	22713
875.494	22793
875.623	22809
875.751	22763
875.88	22824
876.008	22991
876.136	22927
876.265	23147
876.393	23315
876.521	23303
876.65	23231
876.778	23280
876.906	23261
877.034	23159
877.162	23143
877.29	23143
877.418	23223
877.546	23269
877.674	23166
877.802	23022
877.93	23178
878.058	22976
878.185	23018
878.313	23048
878.441	23117
878.568	22976
878.696	23018
878.824	23227
878.951	23258
879.079	23292
879.206	23452
879.333	23356
879.461	23181
879.588	23326
879.715	23216
879.842	23341
879.97	23193
880.097	22896
880.224	22999
880.351	22938
880.478	22942
880.605	22987
880.732	23010
880.859	23143
880.986	22949
881.112	22923
881.239	22900
881.366	22702
881.493	22546
881.619	22443
881.746	22497
881.872	22493
881.999	22455
882.125	22413
882.252	22459
882.378	22504
882.505	22573
882.631	22352
882.757	22219
882.883	22295
883.01	22192
883.136	22226
883.262	22036
883.388	21964
883.514	22219
883.64	22211
883.766	22173
883.892	21983
884.018	21930
884.143	22173
884.269	22204
884.395	21972
884.52	21873
884.646	21960
884.772	21816
884.897	21751
885.023	21759
885.148	21899
885.274	21991
885.399	21903
885.524	21861
885.65	21793
885.775	21911
885.9	21705
886.025	21911
886.15	21838
886.275	21736
886.4	21781
886.525	21915
886.65	21667
886.775	21686
886.9	22048
887.025	22006
887.149	21778
887.274	21732
887.399	21576
887.523	21667
887.648	21469
887.773	21572
887.897	21705
888.021	21587
888.146	21507
888.27	21682
888.395	21705
888.519	21591
888.643	21713
888.767	21603
888.891	21485
889.015	21435
889.139	21401
889.263	21386
889.387	21530
889.511	21591
889.635	21481
889.759	21294
889.883	21306
890.006	21370
890.13	21458
890.254	21279
890.377	21351
890.501	21260
890.624	21081
890.748	21135
890.871	21100
890.995	21020
891.118	20952
891.241	20933
891.364	20994
891.488	21169
891.611	20952
891.734	20895
891.857	20971
891.98	20906
892.103	20994
892.226	21005
892.349	20815
892.471	20857
892.594	20811
892.717	20785
892.839	20777
892.962	20929
893.085	20963
893.207	20765
893.33	20773
893.452	20830
893.575	20933
893.697	20769
893.819	20967
893.941	21070
894.064	20941
894.186	20777
894.308	20800
894.43	20906
894.552	20971
894.674	20975
894.796	20648
894.918	20765
895.04	20739
895.161	20819
895.283	20834
895.405	20845
895.526	20785
895.648	20853
895.769	20823
895.891	20933
896.012	20948
896.134	20754
896.255	20883
896.376	20773
896.498	20762
896.619	20788
896.74	20788
896.861	20826
896.982	21093
897.103	21245
897.224	21100
897.345	21032
897.466	20910
897.587	21028
897.708	21135
897.828	21074
897.949	20986
898.07	20857
898.19	20937
898.311	21036
898.431	20876
898.552	21089
898.672	21047
898.792	21108
898.913	21123
899.033	20990
899.153	20849
899.273	20781
899.393	20720
899.513	20857
899.633	20746
899.753	20754
899.873	20644
899.993	20864
900.113	20602
900.232	20826
900.352	20598
900.472	20575
900.591	20545
900.711	20689
900.83	20473
900.95	20537
901.069	20511
901.189	20381
901.308	20115
901.427	20069
901.546	20218
901.665	20168
901.784	20020
901.904	19997
902.023	19791
902.141	19643
902.26	19632
902.379	19776
902.498	19582
902.617	19510
902.735	19674
902.854	19609
902.973	19571
903.091	19213
903.21	19244
903.328	19240
903.446	19213
903.565	19099
903.683	19000
903.801	18966
903.919	18947
904.038	18924
904.156	18863
904.274	18981
904.392	18783
904.51	18814
904.627	18776
904.745	18886
904.863	18848
904.981	18631
905.098	18528
905.216	18513
905.334	18528
905.451	18357
905.569	18426
905.686	18627
905.803	18407
905.921	18247
906.038	18296
906.155	18407
906.272	18209
906.389	18152
906.506	18087
906.623	18083
906.74	17999
906.857	17973
906.974	17950
907.091	18098
907.208	18049
907.324	18007
907.441	17927
907.557	17771
907.674	17783
907.79	17615
907.907	17714
908.023	17699
908.139	17790
908.256	17672
908.372	17573
908.488	17589
908.604	17471
908.72	17493
908.836	17444
908.952	17376
909.068	17368
909.184	17543
909.3	17421
909.415	17501
909.531	17402
909.647	17155
909.762	17079
909.878	17105
909.993	17155
910.108	17174
910.224	17117
910.339	17064
910.454	16934
910.57	16881
910.685	16866
910.8	17246
910.915	17121
911.03	17025
911.145	16725
911.259	16706
911.374	16759
911.489	16618
911.604	16733
911.718	16485
911.833	16360
911.947	16405
912.062	16310
912.176	16447
912.291	16451
912.405	16409
912.519	16679
912.633	16687
912.748	16546
912.862	16470
912.976	16238
913.09	16177
913.204	16299
913.318	16379
913.431	16329
913.545	16413
913.659	16394
913.772	16242
913.886	16063
914	16173
914.113	16200
914.226	16173
914.34	16177
914.453	15937
914.566	16120
914.68	16029
914.793	15861
914.906	15789
915.019	15671
915.132	15641
915.245	15705
915.358	15618
915.47	15705
915.583	15618
915.696	15705
915.809	15800
915.921	15736
916.034	15629
916.146	15553
916.259	15549
916.371	15671
916.483	15698
916.595	15519
916.708	15511
916.82	15538
916.932	15374
917.044	15473
917.156	15336
917.268	15386
917.38	15386
917.491	15298
917.603	15294
917.715	15507
917.826	15393
917.938	15264
918.049	15062
918.161	15252
918.272	15378
918.384	15291
918.495	15207
918.606	15127
918.717	15024
918.828	15081
918.939	15081
919.05	15051
919.161	14952
919.272	14830
919.383	14914
919.494	15085
919.604	15192
919.715	15043
919.826	14921
919.936	14918
920.047	14994
920.157	14994
920.267	15032
920.378	15089
920.488	14925
920.598	15211
920.708	15207
920.818	15211
920.928	15123
921.038	15237
921.148	15195
921.258	14986
921.368	14864
921.477	14769
921.587	14716
921.697	14590
921.806	14727
921.916	14541
922.025	14438
922.134	14275
922.244	14221
922.353	14461
922.462	14180
922.571	14100
922.68	14058
922.789	14107
922.898	14027
923.007	14027
923.116	14065
923.224	14031
923.333	13906
923.442	13776
923.55	13818
923.659	13864
923.767	13887
923.876	13795
923.984	13830
924.092	13780
924.201	13784
924.309	13772
924.417	13620
924.525	13704
924.633	13662
924.741	14480
924.849	13514
924.956	13578
925.064	13426
925.172	13297
925.279	13441
925.387	13438
925.494	13441
925.602	13468
925.709	13411
925.816	13213
925.924	13350
926.031	13430
926.138	13358
926.245	13362
926.352	13240
926.459	13285
926.566	13369
926.673	13270
926.779	13213
926.886	13152
926.993	12954
927.099	12970
927.206	13008
927.312	12825
927.419	12954
927.525	13023
927.631	12871
927.737	12817
927.843	12798
927.95	12688
928.056	12802
928.162	12776
928.267	12798
928.373	13422
928.479	12806
928.585	12597
928.69	12696
928.796	12776
928.901	12566
929.007	12426
929.112	12597
929.218	12646
929.323	12464
929.428	12456
929.533	12620
929.638	12315
929.743	12418
929.848	12509
929.953	12357
930.058	12338
930.163	12098
930.267	12197
930.372	12308
930.477	12133
930.581	12296
930.685	12148
930.79	12076
930.894	12140
930.998	12110
931.103	12121
931.207	11798
931.311	11756
931.415	11703
931.519	11440
931.623	11433
