Data from test_V78500241_1707.txt Node
Date: Fri Mar 25 15:53:37 CST 2022
User: usil
Spectrometer: V785-0024
Trigger mode: 0
Integration Time (sec): 4.000000E-1
Scans to average: 1
Nonlinearity correction enabled: false
Boxcar width: 0
Storing dark spectrum: false
XAxis mode: Wavelengths
Number of Pixels in Spectrum: 1024
>>>>>Begin Spectral Data<<<<<
801.071	28207
801.214	28204
801.356	27937
801.499	27941
801.641	27720
801.783	27762
801.926	27797
802.068	27766
802.211	27660
802.353	27671
802.496	27591
802.638	27557
802.78	27378
802.923	27401
803.065	27283
803.208	27363
803.35	27443
803.492	27682
803.635	27595
803.777	27637
803.919	27671
804.061	27926
804.204	27698
804.346	27599
804.488	27656
804.63	27637
804.773	27652
804.915	27865
805.057	27793
805.199	27671
805.341	27682
805.483	27819
805.626	27751
805.768	27827
805.91	27899
806.052	27865
806.194	27732
806.336	27922
806.478	27812
806.62	27838
806.762	28029
806.904	28067
807.046	28367
807.188	28150
807.33	28188
807.472	28234
807.614	28314
807.756	28207
807.898	27960
808.04	27926
808.182	28234
808.324	28261
808.465	28192
808.607	28561
808.749	28542
808.891	28447
809.033	28599
809.174	28538
809.316	28565
809.458	28417
809.6	28462
809.741	28386
809.883	28645
810.025	28710
810.166	28706
810.308	28668
810.45	28843
810.591	28759
810.733	28622
810.875	28546
811.016	28474
811.158	28348
811.299	28561
811.441	28679
811.582	28516
811.724	28580
811.865	28500
812.007	28500
812.148	28489
812.29	28561
812.431	28694
812.573	28748
812.714	28938
812.855	28908
812.997	28999
813.138	29269
813.279	29056
813.421	29037
813.562	28976
813.703	28927
813.845	28809
813.986	28436
814.127	28291
814.268	28173
814.41	28223
814.551	28002
814.692	28074
814.833	28162
814.974	28150
815.115	28181
815.256	28021
815.397	28109
815.539	28070
815.68	27979
815.821	27842
815.962	28139
816.103	28032
816.244	27888
816.385	27838
816.526	27667
816.666	27469
816.807	27526
816.948	27576
817.089	27576
817.23	27538
817.371	27393
817.512	27507
817.653	27336
817.793	27454
817.934	27454
818.075	27515
818.216	27485
818.356	27363
818.497	27401
818.638	27116
818.778	27298
818.919	27260
819.06	27408
819.2	27348
819.341	27469
819.481	27401
819.622	27603
819.762	27755
819.903	27709
820.043	27675
820.184	27652
820.324	27580
820.465	27637
820.605	27549
820.746	27462
820.886	27568
821.026	27629
821.167	27492
821.307	27572
821.447	27351
821.588	27443
821.728	27180
821.868	27096
822.008	27127
822.149	27013
822.289	27047
822.429	26621
822.569	26693
822.709	26549
822.849	26415
822.99	26408
823.13	26484
823.27	26400
823.41	26328
823.55	26073
823.69	26305
823.83	26278
823.97	26168
824.11	26195
824.25	26062
824.389	25982
824.529	26282
824.669	26012
824.809	26206
824.949	26221
825.089	26157
825.228	26134
825.368	26065
825.508	26077
825.648	26054
825.787	26043
825.927	26065
826.067	26008
826.206	25947
826.346	26039
826.485	26039
826.625	25982
826.765	26100
826.904	25917
827.044	25723
827.183	25693
827.323	25727
827.462	25719
827.601	25670
827.741	25635
827.88	25719
828.02	25506
828.159	25746
828.298	25696
828.437	25734
828.577	25719
828.716	25780
828.855	25662
828.994	25430
829.134	25346
829.273	25411
829.412	25434
829.551	25297
829.69	25419
829.829	25327
829.968	25506
830.107	25460
830.246	25297
830.385	25263
830.524	25244
830.663	25213
830.802	25080
830.941	24996
831.08	24901
831.219	25023
831.357	25122
831.496	25304
831.635	25065
831.774	24905
831.913	24886
832.051	24928
832.19	24871
832.329	24776
832.467	24650
832.606	24707
832.744	24722
832.883	24711
833.022	24620
833.16	24627
833.299	24779
833.437	24757
833.576	24726
833.714	24768
833.852	24821
833.991	24673
834.129	24905
834.267	24829
834.406	24601
834.544	24696
834.682	24760
834.821	24711
834.959	24886
835.097	24517
835.235	24715
835.373	24612
835.511	24601
835.65	24692
835.788	24688
835.926	24399
836.064	24357
836.202	24460
836.34	24593
836.478	24665
836.615	24620
836.753	24540
836.891	24593
837.029	24563
837.167	24376
837.305	24574
837.443	24448
837.58	24445
837.718	24559
837.856	24369
837.993	24296
838.131	24361
838.269	24292
838.406	24319
838.544	24285
838.681	24007
838.819	24022
838.956	23923
839.094	23984
839.231	23893
839.369	23988
839.506	24148
839.643	24038
839.781	23843
839.918	23889
840.055	23935
840.193	23646
840.33	23691
840.467	23836
840.604	23931
840.742	23973
840.879	23623
841.016	23718
841.153	23608
841.29	23840
841.427	23695
841.564	23760
841.701	23783
841.838	23745
841.975	23581
842.112	23649
842.249	23493
842.385	23478
842.522	23691
842.659	23687
842.796	23436
842.933	23570
843.069	23467
843.206	23512
843.343	23558
843.479	23467
843.616	23551
843.752	23337
843.889	23284
844.025	23368
844.162	23250
844.298	23421
844.435	23269
844.571	23273
844.708	23318
844.844	23356
844.98	23410
845.117	23235
845.253	23060
845.389	23292
845.525	23143
845.661	23102
845.798	22930
845.934	23200
846.07	23010
846.206	23018
846.342	23029
846.478	22908
846.614	22854
846.75	22691
846.886	22736
847.022	22820
847.158	22733
847.294	22744
847.429	22809
847.565	22752
847.701	22980
847.837	22550
847.972	22417
848.108	22660
848.244	22535
848.379	22379
848.515	22432
848.65	22386
848.786	22341
848.921	22318
849.057	22424
849.192	22375
849.328	22402
849.463	22363
849.598	22257
849.734	22215
849.869	22120
850.004	22204
850.14	22139
850.275	22215
850.41	21930
850.545	22055
850.68	22017
850.815	22090
850.95	22006
851.085	22314
851.22	22226
851.355	22051
851.49	22021
851.625	22101
851.76	22002
851.895	22013
852.03	21991
852.165	22044
852.299	22143
852.434	22188
852.569	22120
852.703	22002
852.838	22131
852.973	22192
853.107	22230
853.242	21964
853.376	22010
853.511	21759
853.645	21915
853.78	21972
853.914	21953
854.048	21892
854.183	21907
854.317	22074
854.451	22143
854.585	21895
854.72	21880
854.854	22021
854.988	21846
855.122	21960
855.256	21747
855.39	21835
855.524	21991
855.658	21800
855.792	22002
855.926	21934
856.06	21994
856.194	21934
856.327	21876
856.461	21812
856.595	21854
856.729	21869
856.862	21953
856.996	22002
857.13	22021
857.263	21983
857.397	21937
857.53	21854
857.664	21964
857.797	22105
857.931	22059
858.064	21907
858.197	21945
858.331	21934
858.464	21861
858.597	21797
858.731	21846
858.864	21762
858.997	22021
859.13	21941
859.263	21922
859.396	21930
859.529	21857
859.662	21892
859.795	21918
859.928	21949
860.061	22112
860.194	22036
860.327	21934
860.46	21937
860.592	22021
860.725	21994
860.858	22013
860.99	21907
861.123	21888
861.256	21816
861.388	21964
861.521	22554
861.653	21720
861.786	21667
861.918	21663
862.05	21884
862.183	21808
862.315	21819
862.447	21876
862.58	21827
862.712	21656
862.844	21530
862.976	21739
863.108	21698
863.24	22082
863.372	21591
863.504	21663
863.636	21652
863.768	21549
863.9	21610
864.032	21629
864.164	21622
864.296	21599
864.428	21759
864.559	21652
864.691	21747
864.823	21511
864.954	21686
865.086	21705
865.217	21443
865.349	21393
865.48	21435
865.612	21530
865.743	21774
865.875	21519
866.006	21405
866.137	21466
866.269	21443
866.4	21507
866.531	21386
866.662	21389
866.793	21351
866.924	21431
867.055	21530
867.186	21488
867.317	21408
867.448	21275
867.579	21424
867.71	21249
867.841	21344
867.972	21431
868.103	21393
868.233	21283
868.364	21401
868.495	21401
868.625	21663
868.756	21838
868.886	21583
869.017	21694
869.147	21679
869.278	21846
869.408	21564
869.539	21667
869.669	21698
869.799	21766
869.929	21808
870.06	21812
870.19	22105
870.32	21850
870.45	22040
870.58	22204
870.71	22211
870.84	22188
870.97	22059
871.1	22097
871.23	22303
871.36	22204
871.489	22295
871.619	22261
871.749	22249
871.879	22276
872.008	22432
872.138	22215
872.267	22242
872.397	22131
872.526	22135
872.656	22109
872.785	22223
872.915	22329
873.044	22447
873.173	22337
873.303	22295
873.432	22421
873.561	22329
873.69	22261
873.819	22291
873.948	22322
874.077	22318
874.206	22257
874.335	22211
874.464	22363
874.593	22596
874.722	22398
874.851	22580
874.979	22554
875.108	22550
875.237	22512
875.365	22314
875.494	22500
875.623	22542
875.751	22424
875.88	22519
876.008	22599
876.136	22767
876.265	22816
876.393	22999
876.521	22946
876.65	22995
876.778	23025
876.906	22767
877.034	22778
877.162	22995
877.29	22847
877.418	22900
877.546	22866
877.674	22915
877.802	22900
877.93	22744
878.058	22793
878.185	22881
878.313	22706
878.441	22854
878.568	22702
878.696	22797
878.824	22801
878.951	23033
879.079	22930
879.206	23239
879.333	23025
879.461	22927
879.588	23006
879.715	22965
879.842	23064
879.97	22946
880.097	22679
880.224	22538
880.351	22630
880.478	22649
880.605	22641
880.732	22656
880.859	22911
880.986	22630
881.112	22687
881.239	22611
881.366	22489
881.493	22386
881.619	22154
881.746	22280
881.872	22223
881.999	22162
882.125	22181
882.252	22173
882.378	22238
882.505	22413
882.631	22196
882.757	22059
882.883	21979
883.01	21987
883.136	21953
883.262	21728
883.388	21732
883.514	22086
883.64	21972
883.766	21854
883.892	21751
884.018	21903
884.143	21953
884.269	21994
884.395	21701
884.52	21519
884.646	21751
884.772	21572
884.897	21538
885.023	21583
885.148	21622
885.274	21755
885.399	21679
885.524	21561
885.65	21519
885.775	21549
885.9	21583
886.025	21755
886.15	21743
886.275	21568
886.4	21488
886.525	21542
886.65	21572
886.775	21485
886.9	21694
887.025	21747
887.149	21576
887.274	21401
887.399	21477
887.523	21313
887.648	21336
887.773	21237
887.897	21420
888.021	21294
888.146	21192
888.27	21469
888.395	21382
888.519	21374
888.643	21332
888.767	21412
888.891	21176
889.015	21154
889.139	21252
889.263	21138
889.387	21218
889.511	21272
889.635	21279
889.759	21188
889.883	21100
890.006	21222
890.13	21287
890.254	21020
890.377	21013
890.501	20891
890.624	20918
890.748	21096
890.871	20864
890.995	20720
891.118	20629
891.241	20819
891.364	20754
891.488	20933
891.611	20697
891.734	20777
891.857	20750
891.98	20716
892.103	20773
892.226	20815
892.349	20651
892.471	20450
892.594	20583
892.717	20587
892.839	20590
892.962	20625
893.085	20708
893.207	20579
893.33	20526
893.452	20571
893.575	20731
893.697	20651
893.819	20800
893.941	20899
894.064	20708
894.186	20659
894.308	20549
894.43	20617
894.552	20648
894.674	20735
894.796	20263
894.918	20609
895.04	20526
895.161	20705
895.283	20640
895.405	20446
895.526	20632
895.648	20716
895.769	20659
895.891	20556
896.012	20670
896.134	20674
896.255	20602
896.376	20503
896.498	20617
896.619	20674
896.74	20621
896.861	20659
896.982	20933
897.103	21032
897.224	20830
897.345	20804
897.466	20815
897.587	20830
897.708	20826
897.828	20887
897.949	20830
898.07	20655
898.19	20659
898.311	20887
898.431	20769
898.552	20739
898.672	20880
898.792	20861
898.913	20773
899.033	20640
899.153	20598
899.273	20560
899.393	20545
899.513	20705
899.633	20545
899.753	20606
899.873	20583
899.993	20617
900.113	20484
900.232	20476
900.352	20442
900.472	20336
900.591	20263
900.711	20332
900.83	20347
900.95	20370
901.069	20412
901.189	20202
901.308	20027
901.427	19909
901.546	19970
901.665	20005
901.784	19894
901.904	19753
902.023	19712
902.141	19407
902.26	19426
902.379	19518
902.498	19445
902.617	19369
902.735	19369
902.854	19400
902.973	19350
903.091	19137
903.21	19129
903.328	19118
903.446	18962
903.565	18871
903.683	18741
903.801	18722
903.919	18878
904.038	18806
904.156	18631
904.274	18711
904.392	18623
904.51	18608
904.627	18563
904.745	18593
904.863	18642
904.981	18460
905.098	18262
905.216	18357
905.334	18296
905.451	18296
905.569	18243
905.686	18266
905.803	18315
905.921	18057
906.038	18121
906.155	18049
906.272	18030
906.389	17916
906.506	17798
906.623	17908
906.74	17828
906.857	17741
906.974	17695
907.091	17946
907.208	17980
907.324	17802
907.441	17729
907.557	17615
907.674	17592
907.79	17444
907.907	17558
908.023	17592
908.139	17604
908.256	17532
908.372	17410
908.488	17448
908.604	17341
908.72	17315
908.836	17318
908.952	17261
909.068	17311
909.184	17288
909.3	17254
909.415	17280
909.531	17235
909.647	17037
909.762	16976
909.878	16892
909.993	17010
910.108	16942
910.224	16991
910.339	16923
910.454	16881
910.57	16801
910.685	16687
910.8	16957
910.915	16828
911.03	16679
911.145	16603
911.259	16421
911.374	16512
911.489	16447
911.604	16455
911.718	16223
911.833	16280
911.947	16253
912.062	16139
912.176	16333
912.291	16295
912.405	16242
912.519	16459
912.633	16474
912.748	16295
912.862	16207
912.976	16158
913.09	16044
913.204	16101
913.318	15987
913.431	16207
913.545	16169
913.659	16124
913.772	16021
913.886	15804
914	15892
914.113	15964
914.226	15945
914.34	15926
914.453	15819
914.566	15945
914.68	15819
914.793	15778
914.906	15606
915.019	15504
915.132	15481
915.245	15549
915.358	15515
915.47	15454
915.583	15389
915.696	15629
915.809	15553
915.921	15644
916.034	15439
916.146	15462
916.259	15408
916.371	15515
916.483	15443
916.595	15184
916.708	15374
916.82	15408
916.932	15218
917.044	15313
917.156	15192
917.268	15077
917.38	15180
917.491	15165
917.603	15157
917.715	15214
917.826	15230
917.938	15093
918.049	14971
918.161	15081
918.272	15252
918.384	15249
918.495	15104
918.606	14864
918.717	14895
918.828	14921
918.939	14979
919.05	14758
919.161	14891
919.272	14697
919.383	14716
919.494	14853
919.604	15093
919.715	14929
919.826	14838
919.936	14807
920.047	14910
920.157	14925
920.267	14937
920.378	14830
920.488	14769
920.598	14975
920.708	15214
920.818	14937
920.928	14933
921.038	15173
921.148	15058
921.258	14765
921.368	14651
921.477	14636
921.587	14507
921.697	14408
921.806	14537
921.916	14423
922.025	14286
922.134	14187
922.244	14164
922.353	14286
922.462	14020
922.571	13986
922.68	13814
922.789	13909
922.898	13864
923.007	13784
923.116	13963
923.224	13833
923.333	13841
923.442	13674
923.55	13677
923.659	13681
923.767	13685
923.876	13628
923.984	13734
924.092	13544
924.201	13578
924.309	13620
924.417	13529
924.525	13514
924.633	13544
924.741	14237
924.849	13354
924.956	13449
925.064	13175
925.172	13232
925.279	13183
925.387	13244
925.494	13316
925.602	13324
925.709	13301
925.816	13149
925.924	13164
926.031	13278
926.138	13209
926.245	13225
926.352	13095
926.459	13213
926.566	13225
926.673	13126
926.779	12962
926.886	12932
926.993	12928
927.099	12745
927.206	12783
927.312	12692
927.419	12859
927.525	12787
927.631	12863
927.737	12696
927.843	12654
927.95	12555
928.056	12544
928.162	12555
928.267	12642
928.373	13282
928.479	12715
928.585	12490
928.69	12513
928.796	12654
928.901	12464
929.007	12285
929.112	12532
929.218	12414
929.323	12361
929.428	12357
929.533	12407
929.638	12289
929.743	12327
929.848	12289
929.953	12403
930.058	12152
930.163	12038
930.267	12068
930.372	12197
930.477	12022
930.581	12197
930.685	12072
930.79	11916
930.894	11923
930.998	11893
931.103	11942
931.207	11729
931.311	11623
931.415	11509
931.519	11318
931.623	11212
