Data from test_V78500241_814.txt Node
Date: Fri Mar 25 15:47:26 CST 2022
User: usil
Spectrometer: V785-0024
Trigger mode: 0
Integration Time (sec): 4.000000E-1
Scans to average: 1
Nonlinearity correction enabled: false
Boxcar width: 0
Storing dark spectrum: false
XAxis mode: Wavelengths
Number of Pixels in Spectrum: 1024
>>>>>Begin Spectral Data<<<<<
801.071	27618
801.214	27671
801.356	27344
801.499	27294
801.641	27188
801.783	27222
801.926	27336
802.068	27199
802.211	27081
802.353	27226
802.496	26960
802.638	26800
802.78	26880
802.923	26857
803.065	26887
803.208	26891
803.35	26883
803.492	26998
803.635	26990
803.777	27017
803.919	27184
804.061	27351
804.204	27218
804.346	27005
804.488	26929
804.63	27017
804.773	26952
804.915	27089
805.057	27100
805.199	27024
805.341	27127
805.483	27245
805.626	27165
805.768	27161
805.91	27272
806.052	27294
806.194	27157
806.336	27466
806.478	27173
806.62	27291
806.762	27302
806.904	27576
807.046	27770
807.188	27580
807.33	27629
807.472	27682
807.614	27538
807.756	27549
807.898	27443
808.04	27454
808.182	27523
808.324	27435
808.465	27500
808.607	27778
808.749	27766
808.891	27838
809.033	27991
809.174	27987
809.316	27907
809.458	27778
809.6	27865
809.741	27918
809.883	28029
810.025	28166
810.166	28025
810.308	28051
810.45	28181
810.591	28017
810.733	27835
810.875	27778
811.016	27652
811.158	27705
811.299	28002
811.441	27953
811.582	27880
811.724	27793
811.865	27880
812.007	27895
812.148	27854
812.29	27857
812.431	28063
812.573	28173
812.714	28287
812.855	28443
812.997	28268
813.138	28565
813.279	28405
813.421	28421
813.562	28375
813.703	28234
813.845	28040
813.986	27793
814.127	27720
814.268	27488
814.41	27549
814.551	27614
814.692	27679
814.833	27473
814.974	27572
815.115	27606
815.256	27336
815.397	27317
815.539	27355
815.68	27298
815.821	27169
815.962	27355
816.103	27222
816.244	27245
816.385	27192
816.526	27085
816.666	26758
816.807	26758
816.948	26975
817.089	26861
817.23	26895
817.371	26800
817.512	26914
817.653	26781
817.793	26792
817.934	26876
818.075	26861
818.216	26826
818.356	26670
818.497	26716
818.638	26507
818.778	26575
818.919	26682
819.06	26731
819.2	26716
819.341	26933
819.481	26830
819.622	26868
819.762	27104
819.903	27074
820.043	27036
820.184	26750
820.324	26891
820.465	26914
820.605	27043
820.746	26834
820.886	26727
821.026	26804
821.167	26785
821.307	26956
821.447	26811
821.588	26762
821.728	26720
821.868	26324
822.008	26244
822.149	26278
822.289	26263
822.429	26157
822.569	25860
822.709	25963
822.849	25989
822.99	25742
823.13	25833
823.27	25643
823.41	25559
823.55	25472
823.69	25540
823.83	25677
823.97	25487
824.11	25441
824.25	25350
824.389	25411
824.529	25495
824.669	25426
824.809	25548
824.949	25472
825.089	25510
825.228	25643
825.368	25236
825.508	25255
825.648	25377
825.787	25365
825.927	25381
826.067	25343
826.206	25358
826.346	25430
826.485	25331
826.625	25274
826.765	25339
826.904	25346
827.044	24996
827.183	25019
827.323	25050
827.462	25088
827.601	25012
827.741	25118
827.88	25137
828.02	24852
828.159	24920
828.298	24897
828.437	25126
828.577	24989
828.716	25088
828.855	24859
828.994	24726
829.134	24734
829.273	24715
829.412	24700
829.551	24749
829.69	24639
829.829	24700
829.968	24783
830.107	24715
830.246	24661
830.385	24593
830.524	24650
830.663	24517
830.802	24395
830.941	24365
831.08	24300
831.219	24422
831.357	24296
831.496	24654
831.635	24372
831.774	24163
831.913	24114
832.051	24087
832.19	24064
832.329	24098
832.467	23996
832.606	23870
832.744	23988
832.883	23885
833.022	23912
833.16	23908
833.299	24007
833.437	24015
833.576	24072
833.714	24038
833.852	24114
833.991	24091
834.129	24178
834.267	24190
834.406	24098
834.544	24049
834.682	24083
834.821	23984
834.959	24114
835.097	23923
835.235	24057
835.373	24068
835.511	24171
835.65	23939
835.788	23821
835.926	23775
836.064	23722
836.202	23707
836.34	23832
836.478	23931
836.615	23817
836.753	23897
836.891	23958
837.029	23893
837.167	23748
837.305	23707
837.443	23771
837.58	23714
837.718	23748
837.856	23676
837.993	23756
838.131	23687
838.269	23608
838.406	23665
838.544	23558
838.681	23307
838.819	23341
838.956	23239
839.094	23178
839.231	23307
839.369	23353
839.506	23726
839.643	23448
839.781	23189
839.918	23227
840.055	23280
840.193	23220
840.33	23181
840.467	23010
840.604	23265
840.742	23444
840.879	22991
841.016	23022
841.153	22972
841.29	23178
841.427	23162
841.564	23140
841.701	23246
841.838	22995
841.975	23086
842.112	23033
842.249	22930
842.385	22843
842.522	23121
842.659	22984
842.796	22854
842.933	22911
843.069	22809
843.206	22820
843.343	22797
843.479	22858
843.616	22831
843.752	22542
843.889	22592
844.025	22771
844.162	22653
844.298	22687
844.435	22653
844.571	22645
844.708	22611
844.844	22782
844.98	22786
845.117	22706
845.253	22516
845.389	22527
845.525	22493
845.661	22535
845.798	22318
845.934	22413
846.07	22284
846.206	22481
846.342	22478
846.478	22287
846.614	22188
846.75	22169
846.886	22067
847.022	22154
847.158	22215
847.294	22181
847.429	22219
847.565	22150
847.701	22409
847.837	21979
847.972	21888
848.108	21800
848.244	21937
848.379	21759
848.515	21705
848.65	21701
848.786	21755
848.921	21774
849.057	21846
849.192	21778
849.328	21759
849.463	21797
849.598	21667
849.734	21663
849.869	21572
850.004	21496
850.14	21462
850.275	21504
850.41	21348
850.545	21424
850.68	21321
850.815	21511
850.95	21477
851.085	21652
851.22	21488
851.355	21515
851.49	21306
851.625	21355
851.76	21515
851.895	21450
852.03	21386
852.165	21424
852.299	21428
852.434	21488
852.569	21443
852.703	21393
852.838	21492
852.973	21549
853.107	21538
853.242	21359
853.376	21222
853.511	21104
853.645	21306
853.78	21256
853.914	21184
854.048	21268
854.183	21287
854.317	21184
854.451	21439
854.585	21252
854.72	21302
854.854	21237
854.988	21127
855.122	21351
855.256	21173
855.39	21264
855.524	21298
855.658	21173
855.792	21306
855.926	21237
856.06	21344
856.194	21477
856.327	21218
856.461	21173
856.595	21329
856.729	21260
856.862	21397
856.996	21412
857.13	21344
857.263	21279
857.397	21416
857.53	21173
857.664	21313
857.797	21397
857.931	21428
858.064	21382
858.197	21351
858.331	21230
858.464	21184
858.597	21127
858.731	21123
858.864	21127
858.997	21195
859.13	21310
859.263	21291
859.396	21412
859.529	21291
859.662	21268
859.795	21249
859.928	21252
860.061	21424
860.194	21515
860.327	21416
860.46	21317
860.592	21370
860.725	21401
860.858	21272
860.99	21264
861.123	21294
861.256	21226
861.388	21370
861.521	21850
861.653	21138
861.786	21070
861.918	20982
862.05	21214
862.183	21127
862.315	21294
862.447	21161
862.58	21142
862.712	20960
862.844	21036
862.976	20956
863.108	21020
863.24	21363
863.372	20994
863.504	21028
863.636	21070
863.768	20952
863.9	20941
864.032	20937
864.164	20914
864.296	21081
864.428	21089
864.559	21032
864.691	21077
864.823	20944
864.954	21032
865.086	20975
865.217	20948
865.349	20914
865.48	20861
865.612	20849
865.743	21005
865.875	20857
866.006	20788
866.137	20864
866.269	20883
866.4	20804
866.531	20849
866.662	20769
866.793	20807
866.924	20792
867.055	20807
867.186	20902
867.317	20804
867.448	20689
867.579	20708
867.71	20682
867.841	20785
867.972	20887
868.103	20830
868.233	20876
868.364	20834
868.495	20944
868.625	20971
868.756	21165
868.886	20952
869.017	21051
869.147	21173
869.278	21218
869.408	21085
869.539	21192
869.669	21150
869.799	21116
869.929	21275
870.06	21123
870.19	21233
870.32	21283
870.45	21435
870.58	21534
870.71	21504
870.84	21542
870.97	21408
871.1	21523
871.23	21603
871.36	21622
871.489	21603
871.619	21583
871.749	21637
871.879	21603
872.008	21743
872.138	21739
872.267	21599
872.397	21454
872.526	21428
872.656	21431
872.785	21507
872.915	21675
873.044	21751
873.173	21804
873.303	21644
873.432	21785
873.561	21724
873.69	21682
873.819	21701
873.948	21705
874.077	21846
874.206	21507
874.335	21599
874.464	21690
874.593	21949
874.722	21861
874.851	21941
874.979	21918
875.108	21953
875.237	21800
875.365	21842
875.494	21895
875.623	21987
875.751	21956
875.88	21937
876.008	22017
876.136	22105
876.265	22287
876.393	22394
876.521	22310
876.65	22379
876.778	22325
876.906	22242
877.034	22242
877.162	22394
877.29	22306
877.418	22318
877.546	22219
877.674	22299
877.802	22253
877.93	22356
878.058	22188
878.185	22230
878.313	22303
878.441	22310
878.568	22032
878.696	22162
878.824	22188
878.951	22306
879.079	22451
879.206	22481
879.333	22554
879.461	22295
879.588	22443
879.715	22516
879.842	22478
879.97	22325
880.097	22082
880.224	22002
880.351	22067
880.478	22154
880.605	21964
880.732	22025
880.859	22238
880.986	22230
881.112	22162
881.239	21880
881.366	21827
881.493	21789
881.619	21724
881.746	21675
881.872	21606
881.999	21614
882.125	21511
882.252	21614
882.378	21656
882.505	21720
882.631	21511
882.757	21393
882.883	21622
883.01	21450
883.136	21317
883.262	21310
883.388	21241
883.514	21405
883.64	21462
883.766	21298
883.892	21161
884.018	21135
884.143	21336
884.269	21389
884.395	21085
884.52	20986
884.646	21043
884.772	20975
884.897	20990
885.023	20986
885.148	21039
885.274	21138
885.399	21013
885.524	21055
885.65	21001
885.775	20925
885.9	21009
886.025	20982
886.15	21062
886.275	20956
886.4	20906
886.525	20975
886.65	20914
886.775	20986
886.9	21195
887.025	21150
887.149	20948
887.274	20887
887.399	20693
887.523	20796
887.648	20678
887.773	20739
887.897	20819
888.021	20807
888.146	20697
888.27	20830
888.395	20811
888.519	20758
888.643	20743
888.767	20857
888.891	20727
889.015	20606
889.139	20636
889.263	20632
889.387	20667
889.511	20788
889.635	20697
889.759	20530
889.883	20579
890.006	20579
890.13	20571
890.254	20541
890.377	20541
890.501	20324
890.624	20313
890.748	20366
890.871	20317
890.995	20161
891.118	20176
891.241	20176
891.364	20149
891.488	20180
891.611	20107
891.734	20107
891.857	20153
891.98	20107
892.103	20240
892.226	20145
892.349	20024
892.471	19898
892.594	20035
892.717	20073
892.839	19959
892.962	20043
893.085	20145
893.207	20084
893.33	19890
893.452	20031
893.575	19986
893.697	20077
893.819	20199
893.941	20122
894.064	20115
894.186	20001
894.308	19909
894.43	20084
894.552	20195
894.674	20046
894.796	20031
894.918	19868
895.04	19982
895.161	20107
895.283	19997
895.405	20012
895.526	20024
895.648	20005
895.769	20122
895.891	20065
896.012	20065
896.134	20119
896.255	20115
896.376	20054
896.498	20058
896.619	20077
896.74	20081
896.861	20012
896.982	20438
897.103	20454
897.224	20370
897.345	20317
897.466	20153
897.587	20202
897.708	20366
897.828	20282
897.949	20225
898.07	20081
898.19	20305
898.311	20347
898.431	20199
898.552	20294
898.672	20427
898.792	20298
898.913	20294
899.033	20153
899.153	20020
899.273	19989
899.393	19959
899.513	20107
899.633	20092
899.753	20008
899.873	19928
899.993	20035
900.113	19989
900.232	19974
900.352	20054
900.472	19822
900.591	19757
900.711	19799
900.83	19719
900.95	19959
901.069	19852
901.189	19753
901.308	19506
901.427	19400
901.546	19426
901.665	19472
901.784	19331
901.904	19232
902.023	19183
902.141	18856
902.26	18932
902.379	18943
902.498	18814
902.617	18958
902.735	18954
902.854	18951
902.973	18798
903.091	18502
903.21	18467
903.328	18521
903.446	18471
903.565	18448
903.683	18494
903.801	18262
903.919	18422
904.038	18350
904.156	18243
904.274	18235
904.392	18087
904.51	18079
904.627	18091
904.745	18163
904.863	18243
904.981	18019
905.098	17813
905.216	17855
905.334	17828
905.451	17840
905.569	17870
905.686	17794
905.803	17851
905.921	17642
906.038	17657
906.155	17528
906.272	17509
906.389	17551
906.506	17387
906.623	17322
906.74	17284
906.857	17174
906.974	17356
907.091	17444
907.208	17440
907.324	17307
907.441	17368
907.557	17197
907.674	17128
907.79	16930
907.907	17045
908.023	17025
908.139	17235
908.256	17018
908.372	16972
908.488	16965
908.604	16816
908.72	16691
908.836	16866
908.952	16698
909.068	16957
909.184	16793
909.3	16740
909.415	16812
909.531	16820
909.647	16474
909.762	16569
909.878	16519
909.993	16493
910.108	16485
910.224	16402
910.339	16607
910.454	16363
910.57	16325
910.685	16215
910.8	16542
910.915	16382
911.03	16272
911.145	16147
911.259	16074
911.374	16112
911.489	16048
911.604	16006
911.718	15827
911.833	15800
911.947	15888
912.062	15739
912.176	15857
912.291	15869
912.405	15819
912.519	16025
912.633	15998
912.748	15778
912.862	15800
912.976	15705
913.09	15542
913.204	15629
913.318	15732
913.431	15736
913.545	15610
913.659	15751
913.772	15572
913.886	15500
914	15435
914.113	15450
914.226	15534
914.34	15572
914.453	15245
914.566	15549
914.68	15363
914.793	15252
914.906	15131
915.019	14963
915.132	15024
915.245	14925
915.358	15089
915.47	15089
915.583	15017
915.696	15043
915.809	15256
915.921	15245
916.034	15028
916.146	15036
916.259	14971
916.371	15058
916.483	15062
916.595	14842
916.708	15005
916.82	14804
916.932	14872
917.044	14842
917.156	14868
917.268	14701
917.38	14697
917.491	14720
917.603	14716
917.715	14765
917.826	14811
917.938	14697
918.049	14514
918.161	14644
918.272	14708
918.384	14777
918.495	14590
918.606	14461
918.717	14423
918.828	14530
918.939	14549
919.05	14431
919.161	14473
919.272	14218
919.383	14381
919.494	14465
919.604	14613
919.715	14415
919.826	14347
919.936	14385
920.047	14469
920.157	14511
920.267	14648
920.378	14393
920.488	14393
920.598	14640
920.708	14819
920.818	14568
920.928	14549
921.038	14739
921.148	14712
921.258	14412
921.368	14396
921.477	14252
921.587	14119
921.697	14035
921.806	14180
921.916	13970
922.025	13830
922.134	13780
922.244	13791
922.353	13890
922.462	13791
922.571	13556
922.68	13495
922.789	13434
922.898	13457
923.007	13438
923.116	13460
923.224	13377
923.333	13438
923.442	13312
923.55	13312
923.659	13327
923.767	13407
923.876	13285
923.984	13236
924.092	13133
924.201	13251
924.309	13240
924.417	13206
924.525	13156
924.633	13206
924.741	14096
924.849	12970
924.956	13069
925.064	12985
925.172	12825
925.279	12878
925.387	12939
925.494	12935
925.602	12993
925.709	12935
925.816	12840
925.924	12791
926.031	12886
926.138	12856
926.245	12890
926.352	12734
926.459	12913
926.566	12909
926.673	12738
926.779	12665
926.886	12639
926.993	12551
927.099	12593
927.206	12475
927.312	12407
927.419	12525
927.525	12544
927.631	12486
927.737	12407
927.843	12323
927.95	12148
928.056	12201
928.162	12350
928.267	12315
928.373	12939
928.479	12403
928.585	12186
928.69	12258
928.796	12323
928.901	12079
929.007	11999
929.112	12121
929.218	12072
929.323	12011
929.428	11980
929.533	12163
929.638	11916
929.743	12003
929.848	12053
929.953	12022
930.058	11843
930.163	11672
930.267	11691
930.372	11790
930.477	11699
930.581	11904
930.685	11809
930.79	11653
930.894	11646
930.998	11509
931.103	11737
931.207	11273
931.311	11288
931.415	11159
931.519	11048
931.623	10980
