Data from test_V78500241_579.txt Node
Date: Fri Mar 25 15:45:48 CST 2022
User: usil
Spectrometer: V785-0024
Trigger mode: 0
Integration Time (sec): 4.000000E-1
Scans to average: 1
Nonlinearity correction enabled: false
Boxcar width: 0
Storing dark spectrum: false
XAxis mode: Wavelengths
Number of Pixels in Spectrum: 1024
>>>>>Begin Spectral Data<<<<<
801.071	27797
801.214	27698
801.356	27534
801.499	27447
801.641	27085
801.783	27218
801.926	27268
802.068	27260
802.211	27173
802.353	27154
802.496	27081
802.638	26857
802.78	26815
802.923	26739
803.065	26834
803.208	26902
803.35	26971
803.492	27096
803.635	27066
803.777	26925
803.919	27047
804.061	27325
804.204	27104
804.346	26937
804.488	26906
804.63	27058
804.773	26937
804.915	26929
805.057	27161
805.199	27017
805.341	27108
805.483	27169
805.626	27116
805.768	26914
805.91	27188
806.052	27138
806.194	27142
806.336	27374
806.478	27233
806.62	27085
806.762	27256
806.904	27435
807.046	27701
807.188	27572
807.33	27557
807.472	27492
807.614	27557
807.756	27439
807.898	27340
808.04	27462
808.182	27481
808.324	27351
808.465	27378
808.607	27534
808.749	27629
808.891	27850
809.033	27873
809.174	28006
809.316	27945
809.458	27987
809.6	27850
809.741	27945
809.883	28101
810.025	28025
810.166	27926
810.308	27941
810.45	28002
810.591	27907
810.733	27914
810.875	27766
811.016	27663
811.158	27793
811.299	27857
811.441	27941
811.582	27972
811.724	27945
811.865	27713
812.007	27835
812.148	27808
812.29	27732
812.431	28010
812.573	28105
812.714	28215
812.855	28246
812.997	28306
813.138	28485
813.279	28352
813.421	28299
813.562	28318
813.703	28162
813.845	28006
813.986	27793
814.127	27507
814.268	27561
814.41	27618
814.551	27599
814.692	27519
814.833	27435
814.974	27393
815.115	27511
815.256	27264
815.397	27363
815.539	27340
815.68	27374
815.821	27161
815.962	27279
816.103	27260
816.244	27135
816.385	27051
816.526	27085
816.666	26796
816.807	26819
816.948	26819
817.089	27017
817.23	26823
817.371	26727
817.512	26739
817.653	26708
817.793	26758
817.934	26743
818.075	26762
818.216	26762
818.356	26750
818.497	26625
818.638	26453
818.778	26533
818.919	26625
819.06	26522
819.2	26644
819.341	26682
819.481	26697
819.622	26914
819.762	26963
819.903	27028
820.043	27058
820.184	26921
820.324	27005
820.465	26849
820.605	26876
820.746	26842
820.886	26655
821.026	26891
821.167	26804
821.307	26864
821.447	26834
821.588	26674
821.728	26613
821.868	26404
822.008	26278
822.149	26206
822.289	26164
822.429	25925
822.569	25963
822.709	25997
822.849	25769
822.99	25795
823.13	25830
823.27	25788
823.41	25628
823.55	25464
823.69	25362
823.83	25529
823.97	25613
824.11	25316
824.25	25358
824.389	25449
824.529	25441
824.669	25365
824.809	25453
824.949	25388
825.089	25540
825.228	25441
825.368	25240
825.508	25263
825.648	25217
825.787	25312
825.927	25190
826.067	25206
826.206	25209
826.346	25308
826.485	25232
826.625	25175
826.765	25339
826.904	25438
827.044	25076
827.183	24935
827.323	24886
827.462	24989
827.601	24932
827.741	24996
827.88	24996
828.02	24928
828.159	24939
828.298	25031
828.437	24962
828.577	24905
828.716	25145
828.855	24924
828.994	24593
829.134	24574
829.273	24692
829.412	24616
829.551	24639
829.69	24570
829.829	24639
829.968	24791
830.107	24795
830.246	24589
830.385	24703
830.524	24547
830.663	24483
830.802	24388
830.941	24205
831.08	24235
831.219	24304
831.357	24342
831.496	24505
831.635	24315
831.774	24148
831.913	24095
832.051	24117
832.19	23961
832.329	24117
832.467	23927
832.606	23916
832.744	23885
832.883	23885
833.022	23878
833.16	23954
833.299	23885
833.437	23916
833.576	23999
833.714	24003
833.852	24102
833.991	23988
834.129	24110
834.267	24053
834.406	24022
834.544	23954
834.682	23916
834.821	24022
834.959	24125
835.097	23935
835.235	24117
835.373	24026
835.511	23954
835.65	23813
835.788	23783
835.926	23642
836.064	23600
836.202	23592
836.34	23954
836.478	23878
836.615	23691
836.753	23794
836.891	23824
837.029	23775
837.167	23771
837.305	23775
837.443	23703
837.58	23668
837.718	23718
837.856	23771
837.993	23600
838.131	23653
838.269	23596
838.406	23531
838.544	23531
838.681	23318
838.819	23261
838.956	23185
839.094	23025
839.231	23128
839.369	23288
839.506	23509
839.643	23459
839.781	23090
839.918	23113
840.055	23105
840.193	23124
840.33	23025
840.467	23212
840.604	23128
840.742	23330
840.879	22934
841.016	23124
841.153	22942
841.29	23159
841.427	22919
841.564	23090
841.701	22919
841.838	22980
841.975	22999
842.112	22923
842.249	22786
842.385	22767
842.522	23117
842.659	22759
842.796	22847
842.933	22839
843.069	22687
843.206	22694
843.343	22877
843.479	22869
843.616	22816
843.752	22573
843.889	22672
844.025	22698
844.162	22641
844.298	22599
844.435	22577
844.571	22481
844.708	22603
844.844	22755
844.98	22660
845.117	22618
845.253	22493
845.389	22455
845.525	22485
845.661	22352
845.798	22310
845.934	22405
846.07	22219
846.206	22363
846.342	22485
846.478	22398
846.614	22124
846.75	22036
846.886	21991
847.022	22036
847.158	22017
847.294	22029
847.429	21960
847.565	21930
847.701	22230
847.837	21785
847.972	21812
848.108	21838
848.244	21937
848.379	21686
848.515	21663
848.65	21576
848.786	21747
848.921	21542
849.057	21751
849.192	21679
849.328	21614
849.463	21660
849.598	21519
849.734	21526
849.869	21564
850.004	21435
850.14	21500
850.275	21386
850.41	21291
850.545	21313
850.68	21291
850.815	21458
850.95	21306
851.085	21553
851.22	21564
851.355	21443
851.49	21424
851.625	21321
851.76	21332
851.895	21279
852.03	21336
852.165	21405
852.299	21424
852.434	21515
852.569	21424
852.703	21408
852.838	21561
852.973	21534
853.107	21412
853.242	21374
853.376	21344
853.511	21077
853.645	21218
853.78	21329
853.914	21340
854.048	21188
854.183	21108
854.317	21161
854.451	21454
854.585	21302
854.72	21188
854.854	21230
854.988	21211
855.122	21252
855.256	21161
855.39	21154
855.524	21230
855.658	21211
855.792	21203
855.926	21184
856.06	21268
856.194	21268
856.327	21176
856.461	21154
856.595	21233
856.729	21211
856.862	21294
856.996	21256
857.13	21291
857.263	21298
857.397	21294
857.53	21188
857.664	21275
857.797	21283
857.931	21218
858.064	21275
858.197	21401
858.331	21085
858.464	21161
858.597	21195
858.731	21169
858.864	21230
858.997	21169
859.13	21211
859.263	21344
859.396	21325
859.529	21176
859.662	21070
859.795	21123
859.928	21108
860.061	21420
860.194	21378
860.327	21203
860.46	21302
860.592	21351
860.725	21412
860.858	21283
860.99	21081
861.123	21142
861.256	21081
861.388	21199
861.521	21713
861.653	21176
861.786	20990
861.918	21036
862.05	21036
862.183	21184
862.315	21287
862.447	21260
862.58	21047
862.712	20902
862.844	20967
862.976	20979
863.108	20895
863.24	21279
863.372	20876
863.504	20853
863.636	20895
863.768	20941
863.9	20937
864.032	20746
864.164	20937
864.296	20891
864.428	20990
864.559	20990
864.691	20967
864.823	20929
864.954	20811
865.086	20838
865.217	20834
865.349	20689
865.48	20876
865.612	20857
865.743	20834
865.875	20883
866.006	20693
866.137	20918
866.269	20762
866.4	20727
866.531	20838
866.662	20629
866.793	20689
866.924	20758
867.055	20701
867.186	20731
867.317	20830
867.448	20724
867.579	20644
867.71	20727
867.841	20663
867.972	20689
868.103	20693
868.233	20750
868.364	20735
868.495	20883
868.625	20899
868.756	21062
868.886	20975
869.017	20960
869.147	21272
869.278	21066
869.408	20979
869.539	20967
869.669	21074
869.799	20998
869.929	21218
870.06	21116
870.19	21329
870.32	21359
870.45	21275
870.58	21351
870.71	21549
870.84	21408
870.97	21393
871.1	21424
871.23	21603
871.36	21580
871.489	21454
871.619	21595
871.749	21618
871.879	21553
872.008	21675
872.138	21545
872.267	21720
872.397	21329
872.526	21313
872.656	21439
872.785	21481
872.915	21523
873.044	21591
873.173	21660
873.303	21781
873.432	21686
873.561	21705
873.69	21633
873.819	21629
873.948	21595
874.077	21633
874.206	21553
874.335	21667
874.464	21759
874.593	21838
874.722	21800
874.851	21934
874.979	21789
875.108	21804
875.237	21679
875.365	21819
875.494	21835
875.623	21846
875.751	21823
875.88	21918
876.008	21949
876.136	22010
876.265	22135
876.393	22265
876.521	22371
876.65	22238
876.778	22188
876.906	22109
877.034	22150
877.162	22192
877.29	22188
877.418	22086
877.546	22211
877.674	22070
877.802	22306
877.93	22230
878.058	22131
878.185	22101
878.313	22044
878.441	22154
878.568	22017
878.696	22139
878.824	22348
878.951	22226
879.079	22219
879.206	22466
879.333	22363
879.461	22249
879.588	22207
879.715	22295
879.842	22398
879.97	22238
880.097	22074
880.224	21991
880.351	21991
880.478	21994
880.605	21964
880.732	22036
880.859	22337
880.986	22021
881.112	22067
881.239	21857
881.366	21713
881.493	21595
881.619	21557
881.746	21591
881.872	21553
881.999	21583
882.125	21435
882.252	21648
882.378	21542
882.505	21542
882.631	21393
882.757	21424
882.883	21336
883.01	21283
883.136	21279
883.262	21176
883.388	21199
883.514	21321
883.64	21363
883.766	21180
883.892	21142
884.018	21157
884.143	21264
884.269	21405
884.395	20998
884.52	20868
884.646	20861
884.772	20960
884.897	20853
885.023	20838
885.148	21024
885.274	21043
885.399	21020
885.524	20948
885.65	20921
885.775	20872
885.9	20895
886.025	21009
886.15	20914
886.275	20921
886.4	20800
886.525	20830
886.65	20864
886.775	20849
886.9	21093
887.025	21108
887.149	20902
887.274	20773
887.399	20762
887.523	20788
887.648	20754
887.773	20663
887.897	20849
888.021	20686
888.146	20594
888.27	20678
888.395	20769
888.519	20746
888.643	20659
888.767	20708
888.891	20537
889.015	20412
889.139	20518
889.263	20450
889.387	20537
889.511	20678
889.635	20522
889.759	20412
889.883	20571
890.006	20537
890.13	20522
890.254	20408
890.377	20461
890.501	20305
890.624	20233
890.748	20385
890.871	20035
890.995	20103
891.118	20180
891.241	20103
891.364	20069
891.488	20275
891.611	20020
891.734	20065
891.857	20191
891.98	20092
892.103	20043
892.226	19986
892.349	20084
892.471	19879
892.594	19959
892.717	19906
892.839	19894
892.962	19986
893.085	20001
893.207	19955
893.33	19906
893.452	19883
893.575	20005
893.697	19986
893.819	20096
893.941	20244
894.064	20145
894.186	19833
894.308	20001
894.43	20088
894.552	20062
894.674	20088
894.796	19974
894.918	19932
895.04	19944
895.161	20005
895.283	19989
895.405	19978
895.526	20103
895.648	19947
895.769	19974
895.891	19909
896.012	20153
896.134	20027
896.255	19982
896.376	19997
896.498	20005
896.619	20005
896.74	19879
896.861	20035
896.982	20313
897.103	20450
897.224	20256
897.345	20244
897.466	20092
897.587	20218
897.708	20309
897.828	20233
897.949	20191
898.07	20012
898.19	20240
898.311	20278
898.431	20233
898.552	20176
898.672	20286
898.792	20267
898.913	20122
899.033	19989
899.153	19928
899.273	19955
899.393	19925
899.513	20050
899.633	19936
899.753	19913
899.873	19837
899.993	20039
900.113	19879
900.232	19879
900.352	19921
900.472	19742
900.591	19738
900.711	19704
900.83	19647
900.95	19826
901.069	19818
901.189	19624
901.308	19430
901.427	19369
901.546	19308
901.665	19304
901.784	19426
901.904	19221
902.023	19008
902.141	18954
902.26	18947
902.379	18935
902.498	18962
902.617	18779
902.735	18901
902.854	18833
902.973	18795
903.091	18536
903.21	18646
903.328	18471
903.446	18380
903.565	18319
903.683	18342
903.801	18110
903.919	18216
904.038	18232
904.156	18140
904.274	18087
904.392	18019
904.51	18064
904.627	18060
904.745	18083
904.863	18053
904.981	17897
905.098	17897
905.216	17870
905.334	17783
905.451	17695
905.569	17779
905.686	17687
905.803	17703
905.921	17551
906.038	17600
906.155	17577
906.272	17376
906.389	17425
906.506	17307
906.623	17364
906.74	17296
906.857	17113
906.974	17090
907.091	17299
907.208	17326
907.324	17284
907.441	17239
907.557	17086
907.674	16961
907.79	17006
907.907	16995
908.023	16942
908.139	17083
908.256	16980
908.372	16869
908.488	16854
908.604	16767
908.72	16656
908.836	16793
908.952	16675
909.068	16729
909.184	16843
909.3	16752
909.415	16805
909.531	16713
909.647	16478
909.762	16417
909.878	16424
909.993	16561
910.108	16363
910.224	16466
910.339	16367
910.454	16291
910.57	16284
910.685	16169
910.8	16356
910.915	16405
911.03	16280
911.145	16059
911.259	16109
911.374	15968
911.489	15899
911.604	15873
911.718	15789
911.833	15736
911.947	15610
912.062	15648
912.176	15816
912.291	15842
912.405	15785
912.519	15998
912.633	15926
912.748	15808
912.862	15747
912.976	15591
913.09	15401
913.204	15584
913.318	15599
913.431	15724
913.545	15667
913.659	15610
913.772	15542
913.886	15374
914	15492
914.113	15420
914.226	15526
914.34	15466
914.453	15355
914.566	15355
914.68	15306
914.793	15157
914.906	15058
915.019	14990
915.132	14944
915.245	15024
915.358	15001
915.47	15062
915.583	15005
915.696	14971
915.809	15074
915.921	15081
916.034	15058
916.146	14887
916.259	14864
916.371	14929
916.483	14918
916.595	14929
916.708	14796
916.82	14887
916.932	14765
917.044	14804
917.156	14785
917.268	14655
917.38	14724
917.491	14777
917.603	14682
917.715	14743
917.826	14739
917.938	14655
918.049	14476
918.161	14590
918.272	14773
918.384	14731
918.495	14533
918.606	14461
918.717	14393
918.828	14514
918.939	14457
919.05	14488
919.161	14377
919.272	14172
919.383	14252
919.494	14427
919.604	14667
919.715	14419
919.826	14298
919.936	14400
920.047	14545
920.157	14313
920.267	14590
920.378	14408
920.488	14389
920.598	14552
920.708	14659
920.818	14560
920.928	14469
921.038	14693
921.148	14613
921.258	14320
921.368	14233
921.477	14176
921.587	14195
921.697	13997
921.806	14157
921.916	13978
922.025	13803
922.134	13814
922.244	13757
922.353	13826
922.462	13803
922.571	13571
922.68	13403
922.789	13403
922.898	13445
923.007	13422
923.116	13400
923.224	13400
923.333	13369
923.442	13247
923.55	13285
923.659	13156
923.767	13289
923.876	13202
923.984	13324
924.092	13099
924.201	13091
924.309	13244
924.417	13164
924.525	13088
924.633	13168
924.741	14123
924.849	13004
924.956	12985
925.064	12871
925.172	12795
925.279	12821
925.387	12844
925.494	12939
925.602	13008
925.709	12909
925.816	12825
925.924	12791
926.031	12859
926.138	12795
926.245	12848
926.352	12696
926.459	12829
926.566	12810
926.673	12734
926.779	12574
926.886	12597
926.993	12547
927.099	12426
927.206	12391
927.312	12300
927.419	12441
927.525	12384
927.631	12441
927.737	12346
927.843	12338
927.95	12098
928.056	12209
928.162	12201
928.267	12292
928.373	12916
928.479	12251
928.585	12136
928.69	12136
928.796	12197
928.901	12087
929.007	11927
929.112	12068
929.218	12064
929.323	12011
929.428	12007
929.533	12144
929.638	11863
929.743	11897
929.848	12015
929.953	11977
930.058	11798
930.163	11638
930.267	11604
930.372	11802
930.477	11627
930.581	11847
930.685	11767
930.79	11581
930.894	11627
930.998	11570
931.103	11737
931.207	11315
931.311	11197
931.415	11075
931.519	10995
931.623	10908
