Data from test_V78500241_2720.txt Node
Date: Fri Mar 25 16:00:38 CST 2022
User: usil
Spectrometer: V785-0024
Trigger mode: 0
Integration Time (sec): 4.000000E-1
Scans to average: 1
Nonlinearity correction enabled: false
Boxcar width: 0
Storing dark spectrum: false
XAxis mode: Wavelengths
Number of Pixels in Spectrum: 1024
>>>>>Begin Spectral Data<<<<<
801.071	28512
801.214	28512
801.356	28341
801.499	28333
801.641	28215
801.783	28192
801.926	28249
802.068	28204
802.211	27979
802.353	28090
802.496	27994
802.638	27888
802.78	27762
802.923	27842
803.065	27781
803.208	27774
803.35	27930
803.492	27960
803.635	28063
803.777	28063
803.919	28105
804.061	28306
804.204	28013
804.346	28059
804.488	27854
804.63	28021
804.773	28025
804.915	28215
805.057	28299
805.199	28025
805.341	28128
805.483	28257
805.626	28253
805.768	28116
805.91	28287
806.052	28268
806.194	28299
806.336	28287
806.478	28310
806.62	28405
806.762	28303
806.904	28424
807.046	28736
807.188	28641
807.33	28706
807.472	28763
807.614	28580
807.756	28618
807.898	28645
808.04	28565
808.182	28322
808.324	28565
808.465	28546
808.607	28672
808.749	29025
808.891	29071
809.033	29029
809.174	28881
809.316	29018
809.458	28892
809.6	28774
809.741	29136
809.883	29044
810.025	29113
810.166	29322
810.308	29140
810.45	29174
810.591	29041
810.733	28919
810.875	28984
811.016	28820
811.158	28797
811.299	29037
811.441	28991
811.582	29159
811.724	29003
811.865	28900
812.007	28991
812.148	28862
812.29	28984
812.431	29143
812.573	29303
812.714	29516
812.855	29337
812.997	29531
813.138	29615
813.279	29471
813.421	29482
813.562	29440
813.703	29140
813.845	29162
813.986	28965
814.127	28793
814.268	28679
814.41	28565
814.551	28550
814.692	28744
814.833	28554
814.974	28725
815.115	28580
815.256	28436
815.397	28481
815.539	28417
815.68	28603
815.821	28348
815.962	28421
816.103	28352
816.244	28360
816.385	28204
816.526	28109
816.666	28013
816.807	27903
816.948	28040
817.089	28055
817.23	27914
817.371	27937
817.512	28048
817.653	27884
817.793	27759
817.934	27922
818.075	28002
818.216	27987
818.356	27854
818.497	27793
818.638	27496
818.778	27637
818.919	27770
819.06	27793
819.2	27774
819.341	28013
819.481	28082
819.622	28120
819.762	28382
819.903	28291
820.043	28109
820.184	28032
820.324	28219
820.465	28025
820.605	27972
820.746	28120
820.886	27949
821.026	28002
821.167	27983
821.307	27972
821.447	27956
821.588	27873
821.728	27835
821.868	27557
822.008	27405
822.149	27431
822.289	27542
822.429	27264
822.569	27070
822.709	27123
822.849	26918
822.99	26994
823.13	26998
823.27	26940
823.41	26746
823.55	26678
823.69	26845
823.83	26815
823.97	26564
824.11	26640
824.25	26621
824.389	26594
824.529	26625
824.669	26590
824.809	26571
824.949	26746
825.089	26659
825.228	26556
825.368	26377
825.508	26389
825.648	26663
825.787	26583
825.927	26511
826.067	26571
826.206	26499
826.346	26465
826.485	26549
826.625	26461
826.765	26480
826.904	26590
827.044	26339
827.183	26252
827.323	26077
827.462	26263
827.601	26134
827.741	26317
827.88	26298
828.02	26073
828.159	26103
828.298	26050
828.437	26256
828.577	26031
828.716	26404
828.855	25955
828.994	25807
829.134	25807
829.273	25944
829.412	25868
829.551	25727
829.69	25860
829.829	25890
829.968	25936
830.107	25936
830.246	25769
830.385	25849
830.524	25788
830.663	25578
830.802	25540
830.941	25514
831.08	25434
831.219	25518
831.357	25491
831.496	25609
831.635	25518
831.774	25335
831.913	25297
832.051	25312
832.19	25213
832.329	25240
832.467	25091
832.606	25088
832.744	25015
832.883	25095
833.022	25171
833.16	25244
833.299	25126
833.437	25091
833.576	25114
833.714	25187
833.852	25263
833.991	25228
834.129	25350
834.267	25270
834.406	25183
834.544	25137
834.682	25278
834.821	25228
834.959	25460
835.097	25228
835.235	25339
835.373	25263
835.511	25209
835.65	25046
835.788	25072
835.926	25034
836.064	24859
836.202	24916
836.34	24977
836.478	25031
836.615	24985
836.753	24985
836.891	25000
837.029	25015
837.167	24985
837.305	25004
837.443	24947
837.58	24745
837.718	24886
837.856	24909
837.993	24837
838.131	24753
838.269	24760
838.406	24863
838.544	24745
838.681	24464
838.819	24448
838.956	24407
839.094	24213
839.231	24281
839.369	24608
839.506	24616
839.643	24578
839.781	24228
839.918	24277
840.055	24277
840.193	24243
840.33	24136
840.467	24254
840.604	24270
840.742	24494
840.879	24148
841.016	24110
841.153	24159
841.29	24266
841.427	24171
841.564	24144
841.701	24186
841.838	24159
841.975	24114
842.112	24114
842.249	24140
842.385	23977
842.522	24243
842.659	23999
842.796	23996
842.933	23958
843.069	23885
843.206	23897
843.343	24026
843.479	24018
843.616	23889
843.752	23729
843.889	23691
844.025	23893
844.162	23665
844.298	23851
844.435	23832
844.571	23630
844.708	23703
844.844	23950
844.98	23870
845.117	23912
845.253	23653
845.389	23547
845.525	23623
845.661	23687
845.798	23326
845.934	23604
846.07	23558
846.206	23497
846.342	23551
846.478	23402
846.614	23178
846.75	23258
846.886	23208
847.022	23345
847.158	23258
847.294	23223
847.429	23235
847.565	23159
847.701	23372
847.837	22938
847.972	22873
848.108	22991
848.244	22957
848.379	22877
848.515	22835
848.65	22744
848.786	22831
848.921	22889
849.057	22908
849.192	22809
849.328	22755
849.463	22721
849.598	22698
849.734	22687
849.869	22771
850.004	22535
850.14	22584
850.275	22554
850.41	22413
850.545	22481
850.68	22398
850.815	22573
850.95	22599
851.085	22584
851.22	22710
851.355	22603
851.49	22565
851.625	22538
851.76	22535
851.895	22497
852.03	22459
852.165	22516
852.299	22668
852.434	22683
852.569	22500
852.703	22497
852.838	22618
852.973	22672
853.107	22546
853.242	22577
853.376	22356
853.511	22276
853.645	22284
853.78	22508
853.914	22367
854.048	22382
854.183	22424
854.317	22504
854.451	22588
854.585	22306
854.72	22360
854.854	22462
854.988	22394
855.122	22265
855.256	22382
855.39	22409
855.524	22466
855.658	22402
855.792	22459
855.926	22440
856.06	22402
856.194	22421
856.327	22386
856.461	22261
856.595	22341
856.729	22284
856.862	22580
856.996	22462
857.13	22291
857.263	22455
857.397	22474
857.53	22272
857.664	22447
857.797	22519
857.931	22440
858.064	22424
858.197	22489
858.331	22356
858.464	22379
858.597	22234
858.731	22303
858.864	22352
858.997	22310
859.13	22405
859.263	22265
859.396	22561
859.529	22230
859.662	22390
859.795	22196
859.928	22428
860.061	22584
860.194	22519
860.327	22462
860.46	22546
860.592	22489
860.725	22630
860.858	22459
860.99	22398
861.123	22215
861.256	22409
861.388	22405
861.521	23212
861.653	22284
861.786	22207
861.918	22207
862.05	22337
862.183	22314
862.315	22360
862.447	22375
862.58	22322
862.712	22112
862.844	22040
862.976	22055
863.108	22177
863.24	22462
863.372	22101
863.504	22017
863.636	22044
863.768	22086
863.9	22063
864.032	21972
864.164	22025
864.296	21983
864.428	22272
864.559	22097
864.691	22063
864.823	22070
864.954	22059
865.086	21930
865.217	21991
865.349	21854
865.48	21945
865.612	21987
865.743	22090
865.875	22040
866.006	21960
866.137	21937
866.269	21941
866.4	21922
866.531	21903
866.662	21884
866.793	21960
866.924	21945
867.055	21911
867.186	21915
867.317	21968
867.448	21895
867.579	21949
867.71	21724
867.841	21827
867.972	21994
868.103	21808
868.233	21956
868.364	21983
868.495	22017
868.625	22090
868.756	22169
868.886	22074
869.017	22074
869.147	22276
869.278	22234
869.408	22143
869.539	22078
869.669	22204
869.799	22131
869.929	22318
870.06	22196
870.19	22493
870.32	22344
870.45	22474
870.58	22557
870.71	22656
870.84	22656
870.97	22557
871.1	22424
871.23	22641
871.36	22641
871.489	22554
871.619	22733
871.749	22733
871.879	22774
872.008	22763
872.138	22881
872.267	22634
872.397	22615
872.526	22538
872.656	22542
872.785	22634
872.915	22835
873.044	22839
873.173	22752
873.303	22801
873.432	22767
873.561	22965
873.69	22843
873.819	22672
873.948	22885
874.077	22812
874.206	22698
874.335	22748
874.464	22908
874.593	23052
874.722	22835
874.851	23105
874.979	22930
875.108	22923
875.237	22877
875.365	22919
875.494	22934
875.623	23010
875.751	22904
875.88	22995
876.008	23064
876.136	23060
876.265	23391
876.393	23452
876.521	23433
876.65	23463
876.778	23330
876.906	23379
877.034	23258
877.162	23318
877.29	23254
877.418	23273
877.546	23307
877.674	23372
877.802	23292
877.93	23292
878.058	23284
878.185	23242
878.313	23292
878.441	23277
878.568	23128
878.696	23166
878.824	23395
878.951	23410
879.079	23520
879.206	23562
879.333	23478
879.461	23303
879.588	23516
879.715	23414
879.842	23596
879.97	23360
880.097	23140
880.224	23071
880.351	23212
880.478	23200
880.605	22999
880.732	23147
880.859	23417
880.986	23200
881.112	23235
881.239	23132
881.366	22938
881.493	22717
881.619	22801
881.746	22645
881.872	22630
881.999	22626
882.125	22626
882.252	22752
882.378	22752
882.505	22691
882.631	22584
882.757	22417
882.883	22390
883.01	22489
883.136	22276
883.262	22181
883.388	22265
883.514	22398
883.64	22390
883.766	22276
883.892	22128
884.018	22135
884.143	22398
884.269	22344
884.395	22082
884.52	22006
884.646	22067
884.772	21968
884.897	21865
885.023	21972
885.148	22101
885.274	22188
885.399	22093
885.524	21964
885.65	22032
885.775	21937
885.9	22090
886.025	22173
886.15	22036
886.275	22036
886.4	21884
886.525	21854
886.65	21975
886.775	21857
886.9	22040
887.025	22215
887.149	21918
887.274	21884
887.399	21823
887.523	21698
887.648	21675
887.773	21568
887.897	21785
888.021	21751
888.146	21713
888.27	21812
888.395	21937
888.519	21785
888.643	21724
888.767	21793
888.891	21679
889.015	21671
889.139	21568
889.263	21530
889.387	21660
889.511	21679
889.635	21561
889.759	21587
889.883	21572
890.006	21507
890.13	21591
890.254	21504
890.377	21530
890.501	21405
890.624	21241
890.748	21348
890.871	21336
890.995	21066
891.118	20960
891.241	21173
891.364	20967
891.488	21272
891.611	21074
891.734	21127
891.857	21123
891.98	21116
892.103	21135
892.226	21154
892.349	21009
892.471	20944
892.594	20975
892.717	21043
892.839	21116
892.962	21142
893.085	20986
893.207	20777
893.33	20804
893.452	20956
893.575	21039
893.697	20944
893.819	21157
893.941	21283
894.064	21150
894.186	20929
894.308	20845
894.43	21085
894.552	21146
894.674	21058
894.796	20902
894.918	20891
895.04	21051
895.161	21005
895.283	21093
895.405	20952
895.526	20990
895.648	20925
895.769	21001
895.891	21039
896.012	21051
896.134	21017
896.255	21013
896.376	20944
896.498	20944
896.619	21108
896.74	21005
896.861	20944
896.982	21237
897.103	21340
897.224	21218
897.345	21195
897.466	21093
897.587	21195
897.708	21321
897.828	21180
897.949	21138
898.07	21081
898.19	21184
898.311	21325
898.431	21119
898.552	21131
898.672	21245
898.792	21214
898.913	21313
899.033	21100
899.153	20998
899.273	20819
899.393	20796
899.513	20902
899.633	20864
899.753	21005
899.873	20834
899.993	20929
900.113	20887
900.232	20842
900.352	20849
900.472	20682
900.591	20724
900.711	20739
900.83	20674
900.95	20804
901.069	20792
901.189	20625
901.308	20355
901.427	20278
901.546	20298
901.665	20221
901.784	20282
901.904	20229
902.023	19978
902.141	19902
902.26	19803
902.379	19795
902.498	19795
902.617	19757
902.735	19700
902.854	19765
902.973	19689
903.091	19419
903.21	19343
903.328	19449
903.446	19381
903.565	19270
903.683	19232
903.801	19141
903.919	19133
904.038	19202
904.156	18916
904.274	19012
904.392	18951
904.51	19023
904.627	18932
904.745	18909
904.863	18943
904.981	18760
905.098	18620
905.216	18555
905.334	18555
905.451	18795
905.569	18639
905.686	18627
905.803	18692
905.921	18448
906.038	18597
906.155	18502
906.272	18300
906.389	18319
906.506	18186
906.623	18152
906.74	18224
906.857	18121
906.974	18106
907.091	18152
907.208	18270
907.324	18159
907.441	18072
907.557	17904
907.674	17923
907.79	17832
907.907	17866
908.023	17950
908.139	17874
908.256	17832
908.372	17733
908.488	17703
908.604	17627
908.72	17493
908.836	17577
908.952	17539
909.068	17657
909.184	17760
909.3	17497
909.415	17543
909.531	17551
909.647	17372
909.762	17349
909.878	17239
909.993	17345
910.108	17307
910.224	17242
910.339	17284
910.454	17220
910.57	17098
910.685	17033
910.8	17223
910.915	17258
911.03	17010
911.145	16896
911.259	16873
911.374	16911
911.489	16729
911.604	16782
911.718	16645
911.833	16618
911.947	16466
912.062	16424
912.176	16596
912.291	16584
912.405	16592
912.519	16858
912.633	16782
912.748	16554
912.862	16459
912.976	16462
913.09	16360
913.204	16348
913.318	16558
913.431	16592
913.545	16436
913.659	16481
913.772	16421
913.886	16135
914	16196
914.113	16276
914.226	16348
914.34	16128
914.453	16063
914.566	16173
914.68	16101
914.793	16021
914.906	15827
915.019	15922
915.132	15637
915.245	15732
915.358	15759
915.47	15720
915.583	15819
915.696	15816
915.809	15816
915.921	15865
916.034	15641
916.146	15774
916.259	15701
916.371	15770
916.483	15743
916.595	15660
916.708	15584
916.82	15614
916.932	15580
917.044	15462
917.156	15511
917.268	15507
917.38	15511
917.491	15431
917.603	15397
917.715	15477
917.826	15435
917.938	15374
918.049	15214
918.161	15408
918.272	15542
918.384	15389
918.495	15268
918.606	15252
918.717	15108
918.828	15184
918.939	15298
919.05	15184
919.161	15013
919.272	14929
919.383	14986
919.494	15237
919.604	15321
919.715	15211
919.826	15017
919.936	15161
920.047	15233
920.157	15169
920.267	15283
920.378	15207
920.488	15154
920.598	15329
920.708	15382
920.818	15283
920.928	15256
921.038	15386
921.148	15428
921.258	15039
921.368	14990
921.477	14918
921.587	14845
921.697	14659
921.806	14960
921.916	14663
922.025	14594
922.134	14606
922.244	14454
922.353	14594
922.462	14427
922.571	14343
922.68	14183
922.789	14103
922.898	14168
923.007	14043
923.116	14187
923.224	14172
923.333	14195
923.442	14077
923.55	13963
923.659	13978
923.767	14016
923.876	13917
923.984	13993
924.092	13875
924.201	13925
924.309	13898
924.417	13940
924.525	13780
924.633	13750
924.741	14724
924.849	13582
924.956	13693
925.064	13609
925.172	13571
925.279	13540
925.387	13689
925.494	13544
925.602	13544
925.709	13582
925.816	13426
925.924	13548
926.031	13609
926.138	13487
926.245	13544
926.352	13392
926.459	13518
926.566	13552
926.673	13362
926.779	13247
926.886	13247
926.993	13179
927.099	13152
927.206	12905
927.312	12920
927.419	13221
927.525	13000
927.631	13091
927.737	12913
927.843	12996
927.95	12806
928.056	12989
928.162	12844
928.267	12989
928.373	13415
928.479	12985
928.585	12730
928.69	12817
928.796	12875
928.901	12753
929.007	12627
929.112	12726
929.218	12681
929.323	12623
929.428	12582
929.533	12703
929.638	12464
929.743	12513
929.848	12642
929.953	12506
930.058	12486
930.163	12308
930.267	12330
930.372	12353
930.477	12213
930.581	12395
930.685	12292
930.79	12178
930.894	12159
930.998	12114
931.103	12186
931.207	11874
931.311	11855
931.415	11756
931.519	11573
931.623	11573
