Data from test_V78500241_588.txt Node
Date: Fri Mar 25 15:45:52 CST 2022
User: usil
Spectrometer: V785-0024
Trigger mode: 0
Integration Time (sec): 4.000000E-1
Scans to average: 1
Nonlinearity correction enabled: false
Boxcar width: 0
Storing dark spectrum: false
XAxis mode: Wavelengths
Number of Pixels in Spectrum: 1024
>>>>>Begin Spectral Data<<<<<
801.071	27545
801.214	27519
801.356	27260
801.499	27116
801.641	27020
801.783	26979
801.926	27176
802.068	27089
802.211	26849
802.353	26800
802.496	26758
802.638	26731
802.78	26667
802.923	26613
803.065	26564
803.208	26522
803.35	26526
803.492	26746
803.635	26697
803.777	26659
803.919	26807
804.061	27055
804.204	26857
804.346	26796
804.488	26602
804.63	26762
804.773	26682
804.915	26857
805.057	26845
805.199	26868
805.341	26830
805.483	26963
805.626	26910
805.768	26872
805.91	26918
806.052	26979
806.194	26811
806.336	27260
806.478	26952
806.62	26975
806.762	27039
806.904	27264
807.046	27431
807.188	27408
807.33	27374
807.472	27332
807.614	27180
807.756	27397
807.898	27169
808.04	27131
808.182	27203
808.324	27104
808.465	27146
808.607	27439
808.749	27454
808.891	27587
809.033	27808
809.174	27515
809.316	27458
809.458	27633
809.6	27466
809.741	27717
809.883	27660
810.025	27819
810.166	27850
810.308	27770
810.45	28025
810.591	27728
810.733	27694
810.875	27439
811.016	27424
811.158	27485
811.299	27656
811.441	27652
811.582	27652
811.724	27568
811.865	27530
812.007	27572
812.148	27443
812.29	27644
812.431	27625
812.573	27762
812.714	27880
812.855	27975
812.997	28128
813.138	28291
813.279	28166
813.421	28055
813.562	27998
813.703	27934
813.845	27823
813.986	27370
814.127	27275
814.268	27093
814.41	27169
814.551	27195
814.692	27310
814.833	27150
814.974	27245
815.115	27218
815.256	27142
815.397	26967
815.539	27222
815.68	26994
815.821	26762
815.962	27062
816.103	27024
816.244	26933
816.385	26823
816.526	26758
816.666	26629
816.807	26442
816.948	26594
817.089	26621
817.23	26484
817.371	26453
817.512	26511
817.653	26552
817.793	26400
817.934	26556
818.075	26408
818.216	26450
818.356	26282
818.497	26461
818.638	26081
818.778	26119
818.919	26332
819.06	26202
819.2	26412
819.341	26552
819.481	26453
819.622	26556
819.762	26674
819.903	26632
820.043	26663
820.184	26636
820.324	26636
820.465	26526
820.605	26560
820.746	26583
820.886	26495
821.026	26518
821.167	26571
821.307	26712
821.447	26655
821.588	26442
821.728	26210
821.868	26046
822.008	26005
822.149	25909
822.289	25902
822.429	25666
822.569	25510
822.709	25666
822.849	25605
822.99	25445
823.13	25396
823.27	25419
823.41	25354
823.55	25107
823.69	25209
823.83	25171
823.97	25266
824.11	25004
824.25	24992
824.389	25061
824.529	25084
824.669	25065
824.809	25278
824.949	25221
825.089	25171
825.228	25076
825.368	24901
825.508	24890
825.648	24909
825.787	24958
825.927	25004
826.067	24932
826.206	24844
826.346	25012
826.485	24992
826.625	24878
826.765	25004
826.904	24928
827.044	24738
827.183	24741
827.323	24620
827.462	24635
827.601	24642
827.741	24639
827.88	24623
828.02	24544
828.159	24760
828.298	24650
828.437	24700
828.577	24661
828.716	24719
828.855	24631
828.994	24277
829.134	24346
829.273	24471
829.412	24285
829.551	24243
829.69	24254
829.829	24270
829.968	24403
830.107	24300
830.246	24289
830.385	24232
830.524	24243
830.663	24144
830.802	24182
830.941	23897
831.08	23958
831.219	23973
831.357	24018
831.496	24216
831.635	23912
831.774	23824
831.913	23767
832.051	23699
832.19	23783
832.329	23870
832.467	23642
832.606	23687
832.744	23547
832.883	23562
833.022	23649
833.16	23585
833.299	23608
833.437	23585
833.576	23714
833.714	23733
833.852	23710
833.991	23672
834.129	23916
834.267	23824
834.406	23722
834.544	23764
834.682	23878
834.821	23535
834.959	23863
835.097	23657
835.235	23790
835.373	23672
835.511	23543
835.65	23524
835.788	23554
835.926	23372
836.064	23402
836.202	23254
836.34	23528
836.478	23634
836.615	23429
836.753	23630
836.891	23649
837.029	23531
837.167	23520
837.305	23429
837.443	23440
837.58	23376
837.718	23455
837.856	23379
837.993	23360
838.131	23425
838.269	23174
838.406	23216
838.544	23227
838.681	22923
838.819	22942
838.956	22869
839.094	22831
839.231	22843
839.369	22930
839.506	23242
839.643	23067
839.781	22763
839.918	22774
840.055	22927
840.193	22721
840.33	22653
840.467	22812
840.604	22694
840.742	23056
840.879	22565
841.016	22691
841.153	22611
841.29	22816
841.427	22645
841.564	22797
841.701	22763
841.838	22687
841.975	22694
842.112	22698
842.249	22546
842.385	22538
842.522	22725
842.659	22786
842.796	22405
842.933	22497
843.069	22489
843.206	22421
843.343	22596
843.479	22432
843.616	22481
843.752	22280
843.889	22367
844.025	22249
844.162	22196
844.298	22272
844.435	22356
844.571	22067
844.708	22333
844.844	22375
844.98	22379
845.117	22386
845.253	22219
845.389	22185
845.525	22116
845.661	22181
845.798	22070
845.934	22025
846.07	21968
846.206	22086
846.342	22147
846.478	21968
846.614	21679
846.75	21648
846.886	21694
847.022	21835
847.158	21797
847.294	21781
847.429	21743
847.565	21785
847.701	21987
847.837	21557
847.972	21591
848.108	21679
848.244	21739
848.379	21435
848.515	21332
848.65	21351
848.786	21408
848.921	21351
849.057	21412
849.192	21393
849.328	21363
849.463	21454
849.598	21264
849.734	21222
849.869	21188
850.004	21127
850.14	21176
850.275	21127
850.41	21013
850.545	20979
850.68	21005
850.815	21127
850.95	21157
851.085	21317
851.22	21157
851.355	20990
851.49	21074
851.625	20998
851.76	21017
851.895	20994
852.03	20979
852.165	21150
852.299	21039
852.434	21272
852.569	21051
852.703	21188
852.838	21264
852.973	21195
853.107	21256
853.242	21096
853.376	20960
853.511	20906
853.645	20834
853.78	20975
853.914	20975
854.048	20944
854.183	20910
854.317	20906
854.451	21146
854.585	21017
854.72	21036
854.854	21005
854.988	20979
855.122	20990
855.256	20845
855.39	20823
855.524	20929
855.658	20986
855.792	20933
855.926	20891
856.06	21005
856.194	20963
856.327	20891
856.461	20906
856.595	20918
856.729	20781
856.862	20963
856.996	20807
857.13	21127
857.263	20979
857.397	20918
857.53	20864
857.664	20941
857.797	21028
857.931	21074
858.064	21028
858.197	21119
858.331	20899
858.464	20823
858.597	20777
858.731	20838
858.864	20933
858.997	20948
859.13	20826
859.263	20925
859.396	21032
859.529	20857
859.662	20921
859.795	20765
859.928	20944
860.061	21074
860.194	21089
860.327	21081
860.46	20994
860.592	21047
860.725	21138
860.858	21028
860.99	20952
861.123	20872
861.256	20910
861.388	20921
861.521	21519
861.653	20826
861.786	20594
861.918	20910
862.05	20640
862.183	20944
862.315	20876
862.447	20864
862.58	20785
862.712	20705
862.844	20594
862.976	20648
863.108	20686
863.24	21108
863.372	20769
863.504	20644
863.636	20636
863.768	20598
863.9	20629
864.032	20613
864.164	20625
864.296	20632
864.428	20830
864.559	20686
864.691	20590
864.823	20636
864.954	20609
865.086	20541
865.217	20560
865.349	20434
865.48	20450
865.612	20594
865.743	20701
865.875	20590
866.006	20442
866.137	20537
866.269	20617
866.4	20537
866.531	20488
866.662	20450
866.793	20511
866.924	20571
867.055	20473
867.186	20450
867.317	20347
867.448	20461
867.579	20374
867.71	20442
867.841	20396
867.972	20511
868.103	20461
868.233	20484
868.364	20480
868.495	20556
868.625	20663
868.756	20891
868.886	20606
869.017	20625
869.147	20823
869.278	20739
869.408	20823
869.539	20777
869.669	20845
869.799	20693
869.929	20849
870.06	20826
870.19	20994
870.32	20967
870.45	21093
870.58	21047
870.71	21256
870.84	21222
870.97	21123
871.1	21116
871.23	21298
871.36	21435
871.489	21161
871.619	21142
871.749	21374
871.879	21275
872.008	21462
872.138	21363
872.267	21298
872.397	21188
872.526	21089
872.656	21157
872.785	21150
872.915	21405
873.044	21378
873.173	21355
873.303	21382
873.432	21252
873.561	21477
873.69	21264
873.819	21313
873.948	21340
874.077	21435
874.206	21256
874.335	21348
874.464	21466
874.593	21545
874.722	21545
874.851	21599
874.979	21549
875.108	21652
875.237	21462
875.365	21515
875.494	21511
875.623	21568
875.751	21450
875.88	21652
876.008	21713
876.136	21827
876.265	21880
876.393	22158
876.521	21956
876.65	21972
876.778	22006
876.906	21934
877.034	21960
877.162	21968
877.29	21899
877.418	21949
877.546	21876
877.674	21698
877.802	21903
877.93	21937
878.058	21880
878.185	21709
878.313	21873
878.441	21819
878.568	21873
878.696	21922
878.824	21865
878.951	21979
879.079	22044
879.206	22230
879.333	22063
879.461	21960
879.588	22105
879.715	22135
879.842	22196
879.97	21968
880.097	21770
880.224	21789
880.351	21816
880.478	21732
880.605	21557
880.732	21842
880.859	22029
880.986	21865
881.112	21774
881.239	21656
881.366	21511
881.493	21462
881.619	21294
881.746	21245
881.872	21249
881.999	21386
882.125	21252
882.252	21351
882.378	21389
882.505	21462
882.631	21306
882.757	21066
882.883	21135
883.01	20990
883.136	20925
883.262	20941
883.388	20914
883.514	21036
883.64	21169
883.766	21005
883.892	20842
884.018	20826
884.143	20967
884.269	20986
884.395	20697
884.52	20693
884.646	20701
884.772	20609
884.897	20556
885.023	20758
885.148	20773
885.274	20902
885.399	20834
885.524	20743
885.65	20678
885.775	20636
885.9	20670
886.025	20743
886.15	20758
886.275	20754
886.4	20606
886.525	20655
886.65	20587
886.775	20602
886.9	20876
887.025	20880
887.149	20541
887.274	20560
887.399	20396
887.523	20438
887.648	20267
887.773	20404
887.897	20568
888.021	20507
888.146	20343
888.27	20530
888.395	20526
888.519	20503
888.643	20587
888.767	20469
888.891	20393
889.015	20263
889.139	20252
889.263	20240
889.387	20412
889.511	20442
889.635	20343
889.759	20180
889.883	20282
890.006	20282
890.13	20324
890.254	20191
890.377	20161
890.501	19974
890.624	19963
890.748	20077
890.871	19917
890.995	19780
891.118	19731
891.241	19989
891.364	19833
891.488	19883
891.611	19913
891.734	19826
891.857	19898
891.98	19868
892.103	19925
892.226	19822
892.349	19761
892.471	19620
892.594	19750
892.717	19750
892.839	19750
892.962	19818
893.085	19917
893.207	19670
893.33	19521
893.452	19639
893.575	19769
893.697	19719
893.819	19894
893.941	19898
894.064	19795
894.186	19658
894.308	19556
894.43	19772
894.552	19860
894.674	19917
894.796	19609
894.918	19639
895.04	19674
895.161	19845
895.283	19738
895.405	19742
895.526	19746
895.648	19647
895.769	19715
895.891	19841
896.012	19947
896.134	19830
896.255	19856
896.376	19670
896.498	19814
896.619	19651
896.74	19731
896.861	19799
896.982	20054
897.103	20084
897.224	20001
897.345	20073
897.466	19875
897.587	19913
897.708	20054
897.828	20138
897.949	20012
898.07	19864
898.19	19894
898.311	20103
898.431	19936
898.552	19830
898.672	19936
898.792	20069
898.913	20031
899.033	19753
899.153	19803
899.273	19750
899.393	19685
899.513	19814
899.633	19696
899.753	19666
899.873	19769
899.993	19776
900.113	19616
900.232	19594
900.352	19719
900.472	19575
900.591	19548
900.711	19499
900.83	19601
900.95	19715
901.069	19658
901.189	19324
901.308	19221
901.427	19183
901.546	19076
901.665	19251
901.784	19190
901.904	19050
902.023	18859
902.141	18700
902.26	18749
902.379	18673
902.498	18719
902.617	18513
902.735	18669
902.854	18585
902.973	18639
903.091	18418
903.21	18262
903.328	18247
903.446	18273
903.565	18155
903.683	18106
903.801	18041
903.919	18060
904.038	18087
904.156	17889
904.274	17961
904.392	17764
904.51	17904
904.627	17771
904.745	17843
904.863	17897
904.981	17592
905.098	17463
905.216	17539
905.334	17512
905.451	17535
905.569	17543
905.686	17554
905.803	17539
905.921	17341
906.038	17463
906.155	17383
906.272	17242
906.389	17337
906.506	17170
906.623	17037
906.74	17052
906.857	16908
906.974	17067
907.091	17136
907.208	17208
907.324	17178
907.441	16927
907.557	16850
907.674	16828
907.79	16653
907.907	16809
908.023	16778
908.139	16809
908.256	16759
908.372	16706
908.488	16649
908.604	16546
908.72	16554
908.836	16599
908.952	16455
909.068	16508
909.184	16573
909.3	16508
909.415	16485
909.531	16531
909.647	16223
909.762	16230
909.878	16173
909.993	16253
910.108	16253
910.224	16226
910.339	16226
910.454	16116
910.57	15998
910.685	15869
910.8	16287
910.915	16124
911.03	15941
911.145	15945
911.259	15854
911.374	15873
911.489	15732
911.604	15675
911.718	15671
911.833	15572
911.947	15500
912.062	15481
912.176	15709
912.291	15637
912.405	15553
912.519	15705
912.633	15709
912.748	15595
912.862	15549
912.976	15435
913.09	15226
913.204	15355
913.318	15351
913.431	15496
913.545	15485
913.659	15462
913.772	15279
913.886	15306
914	15192
914.113	15272
914.226	15310
914.34	15283
914.453	15154
914.566	15203
914.68	15112
914.793	15085
914.906	14891
915.019	14899
915.132	14682
915.245	14796
915.358	14861
915.47	14849
915.583	14838
915.696	14819
915.809	14948
915.921	14937
916.034	14670
916.146	14720
916.259	14697
916.371	14800
916.483	14792
916.595	14659
916.708	14636
916.82	14667
916.932	14670
917.044	14590
917.156	14610
917.268	14377
917.38	14518
917.491	14419
917.603	14499
917.715	14571
917.826	14632
917.938	14374
918.049	14358
918.161	14484
918.272	14606
918.384	14499
918.495	14404
918.606	14309
918.717	14290
918.828	14362
918.939	14301
919.05	14229
919.161	14286
919.272	14096
919.383	14180
919.494	14301
919.604	14454
919.715	14328
919.826	14237
919.936	14267
920.047	14336
920.157	14271
920.267	14434
920.378	14298
920.488	14320
920.598	14423
920.708	14583
920.818	14370
920.928	14434
921.038	14610
921.148	14560
921.258	14339
921.368	14134
921.477	13982
921.587	13989
921.697	13944
921.806	14020
921.916	13780
922.025	13765
922.134	13647
922.244	13586
922.353	13670
922.462	13578
922.571	13434
922.68	13403
922.789	13324
922.898	13339
923.007	13270
923.116	13354
923.224	13324
923.333	13324
923.442	13156
923.55	13122
923.659	13168
923.767	13175
923.876	13080
923.984	13225
924.092	13023
924.201	13065
924.309	13046
924.417	13042
924.525	13023
924.633	12840
924.741	14020
924.849	12821
924.956	12935
925.064	12772
925.172	12658
925.279	12760
925.387	12726
925.494	12760
925.602	12810
925.709	12783
925.816	12620
925.924	12757
926.031	12688
926.138	12711
926.245	12734
926.352	12604
926.459	12677
926.566	12772
926.673	12673
926.779	12566
926.886	12452
926.993	12270
927.099	12258
927.206	12270
927.312	12262
927.419	12327
927.525	12281
927.631	12407
927.737	12194
927.843	12136
927.95	12053
928.056	12102
928.162	12163
928.267	12258
928.373	12772
928.479	12239
928.585	11870
928.69	12064
928.796	12136
928.901	12015
929.007	11813
929.112	12041
929.218	11992
929.323	11923
929.428	11859
929.533	12049
929.638	11699
929.743	11843
929.848	11851
929.953	11855
930.058	11707
930.163	11581
930.267	11638
930.372	11649
930.477	11509
930.581	11790
930.685	11558
930.79	11493
930.894	11425
930.998	11421
931.103	11512
931.207	11201
931.311	11037
931.415	10980
931.519	10816
931.623	10809
