Data from test_V78500241_3735.txt Node
Date: Fri Mar 25 16:07:40 CST 2022
User: usil
Spectrometer: V785-0024
Trigger mode: 0
Integration Time (sec): 4.000000E-1
Scans to average: 1
Nonlinearity correction enabled: false
Boxcar width: 0
Storing dark spectrum: false
XAxis mode: Wavelengths
Number of Pixels in Spectrum: 1024
>>>>>Begin Spectral Data<<<<<
801.071	28074
801.214	28078
801.356	27861
801.499	27838
801.641	27561
801.783	27633
801.926	27736
802.068	27804
802.211	27705
802.353	27523
802.496	27504
802.638	27416
802.78	27344
802.923	27325
803.065	27226
803.208	27496
803.35	27351
803.492	27492
803.635	27587
803.777	27477
803.919	27656
804.061	27873
804.204	27728
804.346	27671
804.488	27378
804.63	27488
804.773	27477
804.915	27580
805.057	27660
805.199	27496
805.341	27667
805.483	27720
805.626	27682
805.768	27526
805.91	27842
806.052	27724
806.194	27618
806.336	27968
806.478	27797
806.62	27759
806.762	27762
806.904	27941
807.046	28261
807.188	28177
807.33	28166
807.472	28261
807.614	28105
807.756	28158
807.898	28002
808.04	27838
808.182	27994
808.324	28002
808.465	27975
808.607	28150
808.749	28394
808.891	28512
809.033	28546
809.174	28436
809.316	28375
809.458	28329
809.6	28295
809.741	28424
809.883	28542
810.025	28782
810.166	28755
810.308	28607
810.45	28824
810.591	28554
810.733	28531
810.875	28360
811.016	28207
811.158	28287
811.299	28451
811.441	28440
811.582	28557
811.724	28390
811.865	28276
812.007	28405
812.148	28386
812.29	28596
812.431	28702
812.573	28782
812.714	28706
812.855	29067
812.997	29075
813.138	29254
813.279	28915
813.421	28923
813.562	28820
813.703	28782
813.845	28603
813.986	28238
814.127	28090
814.268	28192
814.41	28109
814.551	28002
814.692	28124
814.833	28055
814.974	28158
815.115	28017
815.256	28067
815.397	27968
815.539	28109
815.68	27861
815.821	27823
815.962	27956
816.103	27975
816.244	27759
816.385	27728
816.526	27732
816.666	27416
816.807	27363
816.948	27466
817.089	27618
817.23	27367
817.371	27408
817.512	27233
817.653	27332
817.793	27393
817.934	27393
818.075	27348
818.216	27454
818.356	27336
818.497	27294
818.638	27100
818.778	27112
818.919	27150
819.06	27184
819.2	27310
819.341	27427
819.481	27466
819.622	27481
819.762	27614
819.903	27671
820.043	27622
820.184	27485
820.324	27427
820.465	27610
820.605	27557
820.746	27454
820.886	27344
821.026	27576
821.167	27161
821.307	27515
821.447	27382
821.588	27176
821.728	27104
821.868	27058
822.008	27013
822.149	26754
822.289	26750
822.429	26465
822.569	26446
822.709	26602
822.849	26320
822.99	26370
823.13	26415
823.27	26305
823.41	26130
823.55	26062
823.69	26248
823.83	26290
823.97	26149
824.11	26005
824.25	25807
824.389	26046
824.529	26164
824.669	26088
824.809	26145
824.949	26168
825.089	26199
825.228	26130
825.368	25788
825.508	25871
825.648	25913
825.787	25921
825.927	25921
826.067	25776
826.206	25879
826.346	25833
826.485	26008
826.625	25898
826.765	26180
826.904	25932
827.044	25712
827.183	25700
827.323	25590
827.462	25788
827.601	25525
827.741	25487
827.88	25647
828.02	25609
828.159	25468
828.298	25601
828.437	25677
828.577	25563
828.716	25689
828.855	25362
828.994	25384
829.134	25320
829.273	25312
829.412	25206
829.551	25251
829.69	25232
829.829	25285
829.968	25346
830.107	25335
830.246	25381
830.385	25373
830.524	25122
830.663	25076
830.802	24951
830.941	24924
831.08	24825
831.219	24935
831.357	24928
831.496	25255
831.635	24894
831.774	24875
831.913	24783
832.051	24715
832.19	24684
832.329	24734
832.467	24601
832.606	24551
832.744	24555
832.883	24585
833.022	24448
833.16	24585
833.299	24620
833.437	24639
833.576	24639
833.714	24749
833.852	24681
833.991	24768
834.129	24741
834.267	24840
834.406	24741
834.544	24817
834.682	24498
834.821	24513
834.959	24859
835.097	24635
835.235	24696
835.373	24582
835.511	24658
835.65	24570
835.788	24528
835.926	24327
836.064	24197
836.202	24357
836.34	24414
836.478	24570
836.615	24452
836.753	24532
836.891	24464
837.029	24555
837.167	24464
837.305	24342
837.443	24532
837.58	24334
837.718	24433
837.856	24334
837.993	24213
838.131	24361
838.269	24220
838.406	24369
838.544	24140
838.681	23958
838.819	24072
838.956	23802
839.094	23779
839.231	23973
839.369	23904
839.506	24243
839.643	23961
839.781	23764
839.918	23710
840.055	23737
840.193	23733
840.33	23562
840.467	23756
840.604	23775
840.742	24049
840.879	23558
841.016	23551
841.153	23627
841.29	23783
841.427	23729
841.564	23680
841.701	23608
841.838	23668
841.975	23687
842.112	23608
842.249	23512
842.385	23372
842.522	23691
842.659	23505
842.796	23463
842.933	23516
843.069	23345
843.206	23459
843.343	23478
843.479	23356
843.616	23482
843.752	23261
843.889	23265
844.025	23372
844.162	23117
844.298	23376
844.435	23193
844.571	23140
844.708	23204
844.844	23406
844.98	23341
845.117	23315
845.253	23166
845.389	23136
845.525	23193
845.661	23079
845.798	23060
845.934	23212
846.07	22923
846.206	23064
846.342	23094
846.478	23018
846.614	22824
846.75	22660
846.886	22713
847.022	22717
847.158	22752
847.294	22752
847.429	22615
847.565	22778
847.701	22987
847.837	22379
847.972	22341
848.108	22489
848.244	22421
848.379	22333
848.515	22333
848.65	22124
848.786	22318
848.921	22131
849.057	22409
849.192	22440
849.328	22394
849.463	22234
849.598	22158
849.734	22215
849.869	22204
850.004	22124
850.14	22131
850.275	22101
850.41	22017
850.545	22059
850.68	22051
850.815	22002
850.95	22139
851.085	22211
851.22	22150
851.355	22120
851.49	22025
851.625	22124
851.76	22154
851.895	21964
852.03	21930
852.165	21987
852.299	22196
852.434	22082
852.569	22051
852.703	22131
852.838	22029
852.973	22166
853.107	22185
853.242	22078
853.376	21876
853.511	21876
853.645	21907
853.78	21899
853.914	21895
854.048	21876
854.183	21880
854.317	21899
854.451	21991
854.585	21895
854.72	21842
854.854	21937
854.988	21770
855.122	21987
855.256	21728
855.39	21895
855.524	22002
855.658	21854
855.792	21903
855.926	21865
856.06	21937
856.194	22074
856.327	21956
856.461	21899
856.595	21797
856.729	21797
856.862	21979
856.996	21945
857.13	21983
857.263	22055
857.397	22013
857.53	21895
857.664	21960
857.797	21960
857.931	21892
858.064	22002
858.197	21983
858.331	21857
858.464	21808
858.597	21842
858.731	21922
858.864	21888
858.997	21842
859.13	21926
859.263	21987
859.396	21979
859.529	21907
859.662	21918
859.795	21873
859.928	21930
860.061	21991
860.194	22109
860.327	21899
860.46	21903
860.592	21956
860.725	22093
860.858	21941
860.99	21979
861.123	21831
861.256	21937
861.388	21876
861.521	22535
861.653	21724
861.786	21728
861.918	21701
862.05	21812
862.183	21800
862.315	21892
862.447	21975
862.58	21842
862.712	21580
862.844	21599
862.976	21774
863.108	21686
863.24	22036
863.372	21595
863.504	21625
863.636	21660
863.768	21667
863.9	21595
864.032	21485
864.164	21534
864.296	21599
864.428	21705
864.559	21736
864.691	21648
864.823	21618
864.954	21637
865.086	21507
865.217	21580
865.349	21363
865.48	21511
865.612	21481
865.743	21667
865.875	21553
866.006	21374
866.137	21416
866.269	21504
866.4	21431
866.531	21485
866.662	21401
866.793	21412
866.924	21534
867.055	21408
867.186	21473
867.317	21439
867.448	21325
867.579	21466
867.71	21214
867.841	21344
867.972	21386
868.103	21466
868.233	21466
868.364	21481
868.495	21462
868.625	21686
868.756	21835
868.886	21656
869.017	21606
869.147	21728
869.278	21743
869.408	21755
869.539	21701
869.669	21694
869.799	21618
869.929	21816
870.06	21838
870.19	21865
870.32	21903
870.45	21956
870.58	22070
870.71	22272
870.84	22200
870.97	22032
871.1	22109
871.23	22280
871.36	22226
871.489	22086
871.619	22261
871.749	22219
871.879	22310
872.008	22268
872.138	22223
872.267	22177
872.397	22238
872.526	22120
872.656	22078
872.785	22006
872.915	22322
873.044	22375
873.173	22329
873.303	22344
873.432	22272
873.561	22402
873.69	22329
873.819	22291
873.948	22329
874.077	22272
874.206	22196
874.335	22265
874.464	22341
874.593	22538
874.722	22428
874.851	22554
874.979	22546
875.108	22542
875.237	22546
875.365	22417
875.494	22443
875.623	22512
875.751	22398
875.88	22683
876.008	22752
876.136	22706
876.265	23083
876.393	22930
876.521	22942
876.65	23086
876.778	22858
876.906	22820
877.034	22896
877.162	22847
877.29	22622
877.418	22835
877.546	22862
877.674	22881
877.802	22946
877.93	22771
878.058	22957
878.185	22637
878.313	22782
878.441	22809
878.568	22801
878.696	22801
878.824	22904
878.951	22980
879.079	23083
879.206	23345
879.333	23052
879.461	22934
879.588	22968
879.715	22972
879.842	23204
879.97	22961
880.097	22706
880.224	22596
880.351	22717
880.478	22702
880.605	22626
880.732	22786
880.859	22847
880.986	22649
881.112	22641
881.239	22580
881.366	22398
881.493	22242
881.619	22268
881.746	22257
881.872	22207
881.999	22185
882.125	22318
882.252	22291
882.378	22261
882.505	22265
882.631	22207
882.757	21991
882.883	22029
883.01	22090
883.136	21861
883.262	21774
883.388	21808
883.514	21880
883.64	22013
883.766	21880
883.892	21781
884.018	21762
884.143	21907
884.269	21873
884.395	21736
884.52	21557
884.646	21614
884.772	21485
884.897	21496
885.023	21625
885.148	21732
885.274	21690
885.399	21637
885.524	21435
885.65	21538
885.775	21504
885.9	21561
886.025	21625
886.15	21538
886.275	21534
886.4	21424
886.525	21458
886.65	21553
886.775	21557
886.9	21595
887.025	21641
887.149	21553
887.274	21386
887.399	21416
887.523	21367
887.648	21291
887.773	21264
887.897	21416
888.021	21291
888.146	21317
888.27	21336
888.395	21329
888.519	21359
888.643	21367
888.767	21397
888.891	21230
889.015	21001
889.139	21169
889.263	21051
889.387	21272
889.511	21329
889.635	21226
889.759	21020
889.883	21127
890.006	21058
890.13	21207
890.254	21032
890.377	21051
890.501	20906
890.624	20743
890.748	20883
890.871	20853
890.995	20686
891.118	20621
891.241	20743
891.364	20746
891.488	20925
891.611	20640
891.734	20636
891.857	20686
891.98	20750
892.103	20655
892.226	20602
892.349	20716
892.471	20511
892.594	20594
892.717	20571
892.839	20655
892.962	20583
893.085	20712
893.207	20621
893.33	20484
893.452	20495
893.575	20659
893.697	20583
893.819	20659
893.941	20845
894.064	20720
894.186	20530
894.308	20507
894.43	20568
894.552	20636
894.674	20670
894.796	20400
894.918	20522
895.04	20587
895.161	20659
895.283	20530
895.405	20579
895.526	20625
895.648	20366
895.769	20568
895.891	20598
896.012	20648
896.134	20708
896.255	20644
896.376	20594
896.498	20644
896.619	20617
896.74	20587
896.861	20594
896.982	20902
897.103	20948
897.224	20800
897.345	20785
897.466	20724
897.587	20811
897.708	20868
897.828	20769
897.949	20655
898.07	20556
898.19	20720
898.311	20895
898.431	20651
898.552	20640
898.672	20826
898.792	20800
898.913	20720
899.033	20613
899.153	20552
899.273	20385
899.393	20492
899.513	20511
899.633	20545
899.753	20518
899.873	20492
899.993	20560
900.113	20465
900.232	20476
900.352	20377
900.472	20355
900.591	20229
900.711	20252
900.83	20176
900.95	20446
901.069	20320
901.189	20126
901.308	20005
901.427	19868
901.546	19909
901.665	19928
901.784	19837
901.904	19723
902.023	19704
902.141	19407
902.26	19358
902.379	19571
902.498	19392
902.617	19316
902.735	19441
902.854	19259
902.973	19232
903.091	19069
903.21	19019
903.328	19095
903.446	18890
903.565	18795
903.683	18844
903.801	18779
903.919	18783
904.038	18837
904.156	18585
904.274	18730
904.392	18601
904.51	18525
904.627	18627
904.745	18597
904.863	18646
904.981	18334
905.098	18319
905.216	18235
905.334	18323
905.451	18209
905.569	18216
905.686	18254
905.803	18224
905.921	18076
906.038	18182
906.155	18254
906.272	18026
906.389	18060
906.506	17748
906.623	17851
906.74	17752
906.857	17585
906.974	17733
907.091	17882
907.208	17840
907.324	17969
907.441	17653
907.557	17497
907.674	17455
907.79	17516
907.907	17433
908.023	17600
908.139	17505
908.256	17425
908.372	17417
908.488	17410
908.604	17318
908.72	17273
908.836	17315
908.952	17239
909.068	17189
909.184	17356
909.3	17239
909.415	17242
909.531	17170
909.647	17018
909.762	16885
909.878	16930
909.993	17018
910.108	16869
910.224	16915
910.339	16923
910.454	16774
910.57	16694
910.685	16660
910.8	16946
910.915	16812
911.03	16691
911.145	16561
911.259	16554
911.374	16550
911.489	16432
911.604	16371
911.718	16310
911.833	16333
911.947	16112
912.062	16131
912.176	16287
912.291	16306
912.405	16287
912.519	16485
912.633	16447
912.748	16325
912.862	16223
912.976	16162
913.09	16021
913.204	16150
913.318	16128
913.431	16253
913.545	16101
913.659	16185
913.772	16101
913.886	15949
914	15831
914.113	15994
914.226	16048
914.34	15899
914.453	15884
914.566	15865
914.68	15789
914.793	15648
914.906	15557
915.019	15416
915.132	15435
915.245	15492
915.358	15507
915.47	15549
915.583	15447
915.696	15526
915.809	15580
915.921	15610
916.034	15443
916.146	15344
916.259	15340
916.371	15447
916.483	15412
916.595	15370
916.708	15260
916.82	15275
916.932	15310
917.044	15283
917.156	15317
917.268	15207
917.38	15211
917.491	15024
917.603	15070
917.715	15146
917.826	15188
917.938	15081
918.049	15020
918.161	15001
918.272	15154
918.384	15127
918.495	15173
918.606	14826
918.717	14819
918.828	14891
918.939	14941
919.05	14804
919.161	14880
919.272	14735
919.383	14670
919.494	14887
919.604	15009
919.715	14750
919.826	14724
919.936	14746
920.047	14857
920.157	14849
920.267	14948
920.378	14830
920.488	14746
920.598	15043
920.708	15119
920.818	14918
920.928	14952
921.038	15089
921.148	15005
921.258	14727
921.368	14674
921.477	14617
921.587	14507
921.697	14366
921.806	14522
921.916	14385
922.025	14229
922.134	14210
922.244	14126
922.353	14176
922.462	14069
922.571	14050
922.68	13830
922.789	13803
922.898	13826
923.007	13719
923.116	13890
923.224	13761
923.333	13803
923.442	13677
923.55	13586
923.659	13708
923.767	13799
923.876	13480
923.984	13639
924.092	13518
924.201	13582
924.309	13548
924.417	13529
924.525	13540
924.633	13495
924.741	14282
924.849	13213
924.956	13438
925.064	13274
925.172	13217
925.279	13206
925.387	13251
925.494	13339
925.602	13232
925.709	13247
925.816	13050
925.924	13099
926.031	13274
926.138	13244
926.245	13187
926.352	13046
926.459	13244
926.566	13289
926.673	13076
926.779	13000
926.886	12939
926.993	12867
927.099	12829
927.206	12722
927.312	12662
927.419	12829
927.525	12783
927.631	12886
927.737	12681
927.843	12642
927.95	12578
928.056	12589
928.162	12612
928.267	12662
928.373	13308
928.479	12768
928.585	12388
928.69	12536
928.796	12623
928.901	12407
929.007	12342
929.112	12498
929.218	12464
929.323	12315
929.428	12323
929.533	12498
929.638	12205
929.743	12270
929.848	12338
929.953	12292
930.058	12117
930.163	11961
930.267	12011
930.372	12072
930.477	11973
930.581	12159
930.685	12057
930.79	11866
930.894	11843
930.998	11874
931.103	12057
931.207	11661
931.311	11524
931.415	11497
931.519	11250
931.623	11277
