Data from test_V78500241_1465.txt Node
Date: Fri Mar 25 15:51:57 CST 2022
User: usil
Spectrometer: V785-0024
Trigger mode: 0
Integration Time (sec): 4.000000E-1
Scans to average: 1
Nonlinearity correction enabled: false
Boxcar width: 0
Storing dark spectrum: false
XAxis mode: Wavelengths
Number of Pixels in Spectrum: 1024
>>>>>Begin Spectral Data<<<<<
801.071	27869
801.214	27914
801.356	27557
801.499	27420
801.641	27599
801.783	27351
801.926	27443
802.068	27447
802.211	27325
802.353	27325
802.496	27207
802.638	27233
802.78	27062
802.923	26963
803.065	27070
803.208	27017
803.35	27176
803.492	27245
803.635	27439
803.777	27195
803.919	27272
804.061	27557
804.204	27443
804.346	27313
804.488	27176
804.63	27199
804.773	27321
804.915	27443
805.057	27427
805.199	27393
805.341	27344
805.483	27507
805.626	27477
805.768	27408
805.91	27496
806.052	27641
806.194	27363
806.336	27557
806.478	27439
806.62	27515
806.762	27515
806.904	27663
807.046	27884
807.188	27816
807.33	27857
807.472	27884
807.614	27911
807.756	27911
807.898	27759
808.04	27743
808.182	27709
808.324	27690
808.465	27671
808.607	27937
808.749	28017
808.891	28192
809.033	28154
809.174	28135
809.316	28097
809.458	28078
809.6	28029
809.741	28101
809.883	28299
810.025	28341
810.166	28424
810.308	28421
810.45	28280
810.591	28226
810.733	28166
810.875	28093
811.016	27937
811.158	28112
811.299	28025
811.441	28253
811.582	28124
811.724	28040
811.865	27991
812.007	28063
812.148	28090
812.29	28131
812.431	28219
812.573	28478
812.714	28512
812.855	28580
812.997	28637
813.138	28881
813.279	28744
813.421	28565
813.562	28569
813.703	28542
813.845	28299
813.986	28116
814.127	27812
814.268	27633
814.41	27747
814.551	27728
814.692	27781
814.833	27667
814.974	27663
815.115	27755
815.256	27534
815.397	27690
815.539	27637
815.68	27652
815.821	27401
815.962	27610
816.103	27583
816.244	27397
816.385	27214
816.526	27340
816.666	27123
816.807	27020
816.948	27081
817.089	27142
817.23	27176
817.371	27131
817.512	27062
817.653	26933
817.793	27013
817.934	27066
818.075	26948
818.216	27093
818.356	27123
818.497	26956
818.638	26857
818.778	26792
818.919	26948
819.06	26853
819.2	26853
819.341	27074
819.481	27104
819.622	27222
819.762	27344
819.903	27279
820.043	27275
820.184	27154
820.324	27096
820.465	27218
820.605	27062
820.746	27074
820.886	27055
821.026	27157
821.167	27150
821.307	27157
821.447	27119
821.588	26952
821.728	26967
821.868	26617
822.008	26492
822.149	26507
822.289	26507
822.429	26389
822.569	26206
822.709	26149
822.849	26069
822.99	26081
823.13	25978
823.27	26107
823.41	25955
823.55	25742
823.69	25868
823.83	25902
823.97	25841
824.11	25780
824.25	25628
824.389	25700
824.529	25761
824.669	25708
824.809	25875
824.949	25742
825.089	25913
825.228	25712
825.368	25525
825.508	25540
825.648	25552
825.787	25658
825.927	25655
826.067	25533
826.206	25582
826.346	25750
826.485	25689
826.625	25624
826.765	25643
826.904	25556
827.044	25251
827.183	25278
827.323	25175
827.462	25308
827.601	25285
827.741	25221
827.88	25228
828.02	25194
828.159	25225
828.298	25274
828.437	25331
828.577	25293
828.716	25449
828.855	25114
828.994	24928
829.134	24905
829.273	25065
829.412	24920
829.551	24787
829.69	24913
829.829	24814
829.968	25019
830.107	24951
830.246	25004
830.385	25053
830.524	24935
830.663	24730
830.802	24597
830.941	24445
831.08	24566
831.219	24738
831.357	24749
831.496	24764
831.635	24509
831.774	24563
831.913	24433
832.051	24365
832.19	24369
832.329	24490
832.467	24171
832.606	24216
832.744	24190
832.883	24247
833.022	24311
833.16	24243
833.299	24220
833.437	24304
833.576	24311
833.714	24342
833.852	24353
833.991	24323
834.129	24315
834.267	24433
834.406	24334
834.544	24289
834.682	24311
834.821	24186
834.959	24342
835.097	24220
835.235	24361
835.373	24330
835.511	24178
835.65	24091
835.788	24106
835.926	24076
836.064	23904
836.202	23950
836.34	24129
836.478	24216
836.615	24038
836.753	24011
836.891	24117
837.029	24159
837.167	24087
837.305	23980
837.443	23961
837.58	24018
837.718	24102
837.856	23988
837.993	23961
838.131	23958
838.269	23870
838.406	23954
838.544	23764
838.681	23611
838.819	23630
838.956	23509
839.094	23425
839.231	23493
839.369	23512
839.506	23942
839.643	23760
839.781	23440
839.918	23421
840.055	23440
840.193	23356
840.33	23417
840.467	23372
840.604	23459
840.742	23604
840.879	23223
841.016	23147
841.153	23391
841.29	23501
841.427	23318
841.564	23337
841.701	23284
841.838	23296
841.975	23189
842.112	23200
842.249	23189
842.385	23128
842.522	23250
842.659	23166
842.796	23181
842.933	23098
843.069	22976
843.206	22934
843.343	23216
843.479	23041
843.616	23132
843.752	22816
843.889	22885
844.025	23117
844.162	22869
844.298	22995
844.435	22900
844.571	22744
844.708	22995
844.844	23052
844.98	22965
845.117	23010
845.253	22831
845.389	22748
845.525	22683
845.661	22786
845.798	22626
845.934	22641
846.07	22675
846.206	22618
846.342	22767
846.478	22626
846.614	22356
846.75	22261
846.886	22234
847.022	22375
847.158	22382
847.294	22249
847.429	22360
847.565	22363
847.701	22691
847.837	22010
847.972	22097
848.108	22139
848.244	22051
848.379	21975
848.515	21869
848.65	21941
848.786	21922
848.921	21918
849.057	22101
849.192	22013
849.328	21918
849.463	21838
849.598	21899
849.734	21739
849.869	21808
850.004	21622
850.14	21755
850.275	21523
850.41	21496
850.545	21576
850.68	21739
850.815	21762
850.95	21671
851.085	21899
851.22	21755
851.355	21720
851.49	21759
851.625	21724
851.76	21553
851.895	21553
852.03	21587
852.165	21675
852.299	21800
852.434	21781
852.569	21694
852.703	21736
852.838	21701
852.973	21743
853.107	21842
853.242	21759
853.376	21542
853.511	21344
853.645	21507
853.78	21561
853.914	21561
854.048	21587
854.183	21504
854.317	21625
854.451	21629
854.585	21443
854.72	21561
854.854	21568
854.988	21534
855.122	21447
855.256	21374
855.39	21469
855.524	21587
855.658	21526
855.792	21485
855.926	21526
856.06	21549
856.194	21549
856.327	21564
856.461	21428
856.595	21454
856.729	21431
856.862	21599
856.996	21443
857.13	21530
857.263	21743
857.397	21515
857.53	21454
857.664	21587
857.797	21622
857.931	21709
858.064	21572
858.197	21644
858.331	21412
858.464	21454
858.597	21416
858.731	21530
858.864	21534
858.997	21405
859.13	21591
859.263	21435
859.396	21652
859.529	21393
859.662	21485
859.795	21496
859.928	21424
860.061	21694
860.194	21739
860.327	21466
860.46	21534
860.592	21717
860.725	21599
860.858	21679
860.99	21576
861.123	21477
861.256	21428
861.388	21618
861.521	22207
861.653	21420
861.786	21386
861.918	21245
862.05	21359
862.183	21488
862.315	21496
862.447	21614
862.58	21382
862.712	21188
862.844	21138
862.976	21317
863.108	21291
863.24	21732
863.372	21127
863.504	21173
863.636	21192
863.768	21260
863.9	21188
864.032	21272
864.164	21192
864.296	21260
864.428	21443
864.559	21310
864.691	21351
864.823	21119
864.954	21310
865.086	21268
865.217	21241
865.349	21013
865.48	21241
865.612	21017
865.743	21325
865.875	21161
866.006	21024
866.137	21192
866.269	21119
866.4	21058
866.531	21077
866.662	21066
866.793	21070
866.924	21028
867.055	21047
867.186	21116
867.317	20906
867.448	21024
867.579	20956
867.71	20823
867.841	21001
867.972	21093
868.103	21017
868.233	21085
868.364	21020
868.495	21131
868.625	21256
868.756	21386
868.886	21241
869.017	21230
869.147	21439
869.278	21351
869.408	21279
869.539	21230
869.669	21340
869.799	21367
869.929	21454
870.06	21329
870.19	21553
870.32	21595
870.45	21534
870.58	21709
870.71	21785
870.84	21717
870.97	21698
871.1	21789
871.23	21842
871.36	21831
871.489	21816
871.619	21907
871.749	21941
871.879	21922
872.008	22120
872.138	21907
872.267	21899
872.397	21838
872.526	21762
872.656	21781
872.785	21778
872.915	21880
873.044	22055
873.173	21903
873.303	21998
873.432	21907
873.561	21850
873.69	21922
873.819	21854
873.948	21918
874.077	21926
874.206	21873
874.335	21983
874.464	22044
874.593	22105
874.722	22074
874.851	22101
874.979	22017
875.108	22196
875.237	22036
875.365	22021
875.494	22158
875.623	22200
875.751	22097
875.88	22067
876.008	22280
876.136	22333
876.265	22546
876.393	22691
876.521	22443
876.65	22653
876.778	22481
876.906	22466
877.034	22481
877.162	22443
877.29	22424
877.418	22603
877.546	22470
877.674	22500
877.802	22542
877.93	22497
878.058	22485
878.185	22352
878.313	22500
878.441	22523
878.568	22421
878.696	22500
878.824	22603
878.951	22645
879.079	22793
879.206	22706
879.333	22675
879.461	22546
879.588	22557
879.715	22592
879.842	22809
879.97	22755
880.097	22295
880.224	22436
880.351	22303
880.478	22356
880.605	22363
880.732	22215
880.859	22561
880.986	22291
881.112	22421
881.239	22078
881.366	22207
881.493	21975
881.619	21884
881.746	21895
881.872	21846
881.999	21819
882.125	21842
882.252	21755
882.378	21823
882.505	22070
882.631	21656
882.757	21553
882.883	21671
883.01	21568
883.136	21473
883.262	21500
883.388	21431
883.514	21743
883.64	21614
883.766	21530
883.892	21420
884.018	21469
884.143	21591
884.269	21481
884.395	21268
884.52	21222
884.646	21268
884.772	21195
884.897	21165
885.023	21237
885.148	21268
885.274	21340
885.399	21329
885.524	21161
885.65	21157
885.775	21222
885.9	21226
886.025	21279
886.15	21302
886.275	21180
886.4	21070
886.525	21165
886.65	21039
886.775	21028
886.9	21401
887.025	21359
887.149	21154
887.274	21005
887.399	20979
887.523	21005
887.648	20925
887.773	20880
887.897	21176
888.021	20918
888.146	20910
888.27	21055
888.395	20933
888.519	21032
888.643	20887
888.767	21108
888.891	20883
889.015	20788
889.139	20743
889.263	20773
889.387	20933
889.511	20842
889.635	20944
889.759	20769
889.883	20670
890.006	20758
890.13	20891
890.254	20693
890.377	20697
890.501	20575
890.624	20541
890.748	20575
890.871	20530
890.995	20339
891.118	20221
891.241	20301
891.364	20404
891.488	20492
891.611	20294
891.734	20396
891.857	20412
891.98	20473
892.103	20374
892.226	20358
892.349	20351
892.471	20168
892.594	20294
892.717	20294
892.839	20252
892.962	20271
893.085	20362
893.207	20294
893.33	20130
893.452	20168
893.575	20240
893.697	20218
893.819	20370
893.941	20404
894.064	20404
894.186	20096
894.308	20153
894.43	20377
894.552	20415
894.674	20336
894.796	20176
894.918	20362
895.04	20256
895.161	20324
895.283	20351
895.405	20180
895.526	20221
895.648	20229
895.769	20206
895.891	20301
896.012	20351
896.134	20240
896.255	20298
896.376	20267
896.498	20218
896.619	20317
896.74	20259
896.861	20355
896.982	20587
897.103	20849
897.224	20484
897.345	20473
897.466	20366
897.587	20473
897.708	20556
897.828	20579
897.949	20313
898.07	20294
898.19	20408
898.311	20469
898.431	20419
898.552	20533
898.672	20427
898.792	20545
898.913	20507
899.033	20301
899.153	20309
899.273	20122
899.393	20278
899.513	20153
899.633	20195
899.753	20332
899.873	20214
899.993	20138
900.113	20142
900.232	20248
900.352	20168
900.472	20020
900.591	20031
900.711	20077
900.83	20077
900.95	20088
901.069	20062
901.189	19860
901.308	19662
901.427	19518
901.546	19582
901.665	19601
901.784	19578
901.904	19396
902.023	19297
902.141	19225
902.26	19148
902.379	19221
902.498	19145
902.617	19000
902.735	19034
902.854	18973
902.973	19080
903.091	18890
903.21	18726
903.328	18726
903.446	18688
903.565	18627
903.683	18547
903.801	18483
903.919	18521
904.038	18460
904.156	18437
904.274	18494
904.392	18361
904.51	18384
904.627	18213
904.745	18342
904.863	18399
904.981	18060
905.098	18026
905.216	17977
905.334	18019
905.451	18034
905.569	17874
905.686	17889
905.803	17946
905.921	17672
906.038	17843
906.155	17687
906.272	17630
906.389	17760
906.506	17505
906.623	17497
906.74	17406
906.857	17486
906.974	17414
907.091	17486
907.208	17630
907.324	17520
907.441	17436
907.557	17296
907.674	17254
907.79	17075
907.907	17136
908.023	17239
908.139	17284
908.256	17284
908.372	17155
908.488	17071
908.604	17102
908.72	16885
908.836	16991
908.952	16968
909.068	16889
909.184	17094
909.3	16946
909.415	17094
909.531	16930
909.647	16672
909.762	16706
909.878	16626
909.993	16717
910.108	16679
910.224	16607
910.339	16622
910.454	16664
910.57	16497
910.685	16398
910.8	16717
910.915	16649
911.03	16428
911.145	16325
911.259	16276
911.374	16226
911.489	16196
911.604	16139
911.718	15945
911.833	15994
911.947	15888
912.062	15816
912.176	15968
912.291	15998
912.405	16017
912.519	16261
912.633	16147
912.748	16135
912.862	16017
912.976	15759
913.09	15701
913.204	15728
913.318	15705
913.431	15983
913.545	15876
913.659	15907
913.772	15804
913.886	15622
914	15557
914.113	15736
914.226	15660
914.34	15724
914.453	15587
914.566	15644
914.68	15408
914.793	15374
914.906	15252
915.019	15264
915.132	15150
915.245	15287
915.358	15268
915.47	15249
915.583	15252
915.696	15275
915.809	15260
915.921	15329
916.034	15211
916.146	15116
916.259	15028
916.371	15264
916.483	15127
916.595	15028
916.708	15108
916.82	15055
916.932	15070
917.044	15013
917.156	15005
917.268	14845
917.38	14876
917.491	14925
917.603	14887
917.715	14880
917.826	14834
917.938	14807
918.049	14663
918.161	14819
918.272	14971
918.384	14861
918.495	14754
918.606	14655
918.717	14442
918.828	14648
918.939	14689
919.05	14629
919.161	14625
919.272	14442
919.383	14408
919.494	14606
919.604	14811
919.715	14571
919.826	14560
919.936	14632
920.047	14632
920.157	14590
920.267	14807
920.378	14629
920.488	14507
920.598	14823
920.708	14800
920.818	14754
920.928	14693
921.038	14823
921.148	14804
921.258	14560
921.368	14431
921.477	14362
921.587	14256
921.697	14183
921.806	14332
921.916	14119
922.025	14100
922.134	14039
922.244	13970
922.353	14031
922.462	13906
922.571	13818
922.68	13647
922.789	13632
922.898	13636
923.007	13468
923.116	13548
923.224	13563
923.333	13552
923.442	13464
923.55	13419
923.659	13502
923.767	13449
923.876	13388
923.984	13464
924.092	13430
924.201	13468
924.309	13304
924.417	13400
924.525	13213
924.633	13255
924.741	13978
924.849	13129
924.956	13206
925.064	13141
925.172	12947
925.279	13012
925.387	13050
925.494	12966
925.602	13091
925.709	13129
925.816	12913
925.924	12924
926.031	13053
926.138	12901
926.245	13038
926.352	12871
926.459	13004
926.566	12954
926.673	12916
926.779	12772
926.886	12833
926.993	12604
927.099	12540
927.206	12585
927.312	12532
927.419	12547
927.525	12528
927.631	12631
927.737	12483
927.843	12388
927.95	12285
928.056	12372
928.162	12445
928.267	12448
928.373	13110
928.479	12399
928.585	12224
928.69	12289
928.796	12338
928.901	12365
929.007	12114
929.112	12243
929.218	12243
929.323	12209
929.428	12041
929.533	12224
929.638	12072
929.743	12072
929.848	12140
929.953	12045
930.058	11904
930.163	11821
930.267	11912
930.372	12034
930.477	11767
930.581	11942
930.685	11935
930.79	11691
930.894	11756
930.998	11714
931.103	11756
931.207	11406
931.311	11364
931.415	11284
931.519	11025
931.623	11010
