Data from test_V78500241_2894.txt Node
Date: Fri Mar 25 16:01:50 CST 2022
User: usil
Spectrometer: V785-0024
Trigger mode: 0
Integration Time (sec): 4.000000E-1
Scans to average: 1
Nonlinearity correction enabled: false
Boxcar width: 0
Storing dark spectrum: false
XAxis mode: Wavelengths
Number of Pixels in Spectrum: 1024
>>>>>Begin Spectral Data<<<<<
801.071	28934
801.214	28733
801.356	28588
801.499	28474
801.641	28493
801.783	28405
801.926	28417
802.068	28462
802.211	28341
802.353	28360
802.496	28173
802.638	28101
802.78	28070
802.923	28040
803.065	28048
803.208	28143
803.35	28284
803.492	28246
803.635	28527
803.777	28207
803.919	28470
804.061	28694
804.204	28519
804.346	28466
804.488	28432
804.63	28493
804.773	28371
804.915	28500
805.057	28584
805.199	28497
805.341	28535
805.483	28489
805.626	28451
805.768	28462
805.91	28717
806.052	28565
806.194	28565
806.336	28580
806.478	28538
806.62	28542
806.762	28915
806.904	28767
807.046	29090
807.188	28908
807.33	28965
807.472	29151
807.614	28888
807.756	29025
807.898	29018
808.04	28744
808.182	28839
808.324	28957
808.465	28885
808.607	29010
808.749	29273
808.891	29284
809.033	29440
809.174	29337
809.316	29318
809.458	29288
809.6	29193
809.741	29239
809.883	29406
810.025	29592
810.166	29520
810.308	29623
810.45	29471
810.591	29535
810.733	29429
810.875	29395
811.016	29296
811.158	29105
811.299	29303
811.441	29429
811.582	29398
811.724	29220
811.865	29269
812.007	29250
812.148	29326
812.29	29216
812.431	29554
812.573	29737
812.714	29748
812.855	29748
812.997	29851
813.138	29980
813.279	29813
813.421	29840
813.562	29954
813.703	29608
813.845	29509
813.986	29353
814.127	29064
814.268	29006
814.41	29033
814.551	29136
814.692	29060
814.833	29094
814.974	29025
815.115	28908
815.256	28828
815.397	28946
815.539	28820
815.68	28790
815.821	28869
815.962	28801
816.103	28725
816.244	28748
816.385	28527
816.526	28592
816.666	28386
816.807	28257
816.948	28390
817.089	28462
817.23	28337
817.371	28329
817.512	28325
817.653	28344
817.793	28219
817.934	28265
818.075	28265
818.216	28329
818.356	28253
818.497	28207
818.638	27937
818.778	28070
818.919	28006
819.06	28139
819.2	28204
819.341	28265
819.481	28303
819.622	28489
819.762	28691
819.903	28516
820.043	28698
820.184	28538
820.324	28440
820.465	28440
820.605	28588
820.746	28379
820.886	28405
821.026	28382
821.167	28436
821.307	28470
821.447	28497
821.588	28223
821.728	28124
821.868	27914
822.008	27865
822.149	28017
822.289	27873
822.429	27564
822.569	27595
822.709	27511
822.849	27359
822.99	27291
823.13	27386
823.27	27279
823.41	27165
823.55	26998
823.69	27386
823.83	27203
823.97	27157
824.11	26925
824.25	26956
824.389	27043
824.529	26982
824.669	26883
824.809	27180
824.949	27116
825.089	27047
825.228	27043
825.368	26804
825.508	26853
825.648	26990
825.787	26788
825.927	26944
826.067	26857
826.206	26918
826.346	26800
826.485	26982
826.625	26830
826.765	26994
826.904	26796
827.044	26545
827.183	26769
827.323	26644
827.462	26579
827.601	26488
827.741	26587
827.88	26636
828.02	26492
828.159	26522
828.298	26667
828.437	26613
828.577	26514
828.716	26682
828.855	26518
828.994	26347
829.134	26332
829.273	26358
829.412	26301
829.551	26191
829.69	26282
829.829	26328
829.968	26358
830.107	26347
830.246	26355
830.385	26351
830.524	26229
830.663	26100
830.802	26081
830.941	26016
831.08	25841
831.219	26031
831.357	26012
831.496	26187
831.635	25868
831.774	25738
831.913	25788
832.051	25525
832.19	25662
832.329	25670
832.467	25556
832.606	25544
832.744	25518
832.883	25586
833.022	25582
833.16	25502
833.299	25674
833.437	25609
833.576	25765
833.714	25613
833.852	25685
833.991	25666
834.129	25647
834.267	25731
834.406	25677
834.544	25719
834.682	25601
834.821	25723
834.959	25830
835.097	25464
835.235	25658
835.373	25734
835.511	25525
835.65	25537
835.788	25624
835.926	25297
836.064	25232
836.202	25297
836.34	25453
836.478	25518
836.615	25381
836.753	25495
836.891	25506
837.029	25479
837.167	25434
837.305	25343
837.443	25293
837.58	25282
837.718	25358
837.856	25301
837.993	25278
838.131	25327
838.269	25133
838.406	25247
838.544	25072
838.681	25012
838.819	24848
838.956	24829
839.094	24669
839.231	24848
839.369	24977
839.506	25179
839.643	24882
839.781	24810
839.918	24715
840.055	24673
840.193	24665
840.33	24616
840.467	24646
840.604	24532
840.742	24882
840.879	24612
841.016	24593
841.153	24479
841.29	24749
841.427	24521
841.564	24700
841.701	24559
841.838	24608
841.975	24582
842.112	24544
842.249	24399
842.385	24422
842.522	24639
842.659	24414
842.796	24395
842.933	24422
843.069	24513
843.206	24308
843.343	24422
843.479	24384
843.616	24384
843.752	24232
843.889	24125
844.025	24342
844.162	24148
844.298	24266
844.435	24106
844.571	24152
844.708	24117
844.844	24281
844.98	24296
845.117	24357
845.253	24133
845.389	24087
845.525	24068
845.661	24041
845.798	23821
845.934	23988
846.07	23885
846.206	23889
846.342	24022
846.478	23821
846.614	23775
846.75	23577
846.886	23638
847.022	23729
847.158	23779
847.294	23433
847.429	23756
847.565	23699
847.701	23885
847.837	23360
847.972	23356
848.108	23395
848.244	23242
848.379	23098
848.515	23170
848.65	23200
848.786	23220
848.921	23193
849.057	23261
849.192	23273
849.328	23364
849.463	23174
849.598	23231
849.734	22957
849.869	23067
850.004	23067
850.14	23155
850.275	22968
850.41	22843
850.545	22812
850.68	22889
850.815	22995
850.95	22987
851.085	23079
851.22	23166
851.355	22972
851.49	22961
851.625	22889
851.76	22831
851.895	22919
852.03	22900
852.165	23022
852.299	23022
852.434	23113
852.569	22991
852.703	22915
852.838	23025
852.973	23143
853.107	23086
853.242	22987
853.376	22771
853.511	22675
853.645	22763
853.78	22946
853.914	22828
854.048	22771
854.183	22858
854.317	22850
854.451	22942
854.585	22892
854.72	22805
854.854	22946
854.988	22889
855.122	22729
855.256	22683
855.39	22809
855.524	22866
855.658	22858
855.792	22816
855.926	22744
856.06	22767
856.194	22854
856.327	22793
856.461	22698
856.595	22752
856.729	22752
856.862	22752
856.996	22828
857.13	22854
857.263	22946
857.397	22843
857.53	22790
857.664	22828
857.797	22900
857.931	22984
858.064	22763
858.197	22889
858.331	22828
858.464	22694
858.597	22713
858.731	22759
858.864	22710
858.997	22744
859.13	22828
859.263	22885
859.396	22927
859.529	22702
859.662	22672
859.795	22767
859.928	22869
860.061	23014
860.194	23037
860.327	22885
860.46	22759
860.592	23014
860.725	22927
860.858	22881
860.99	22850
861.123	22660
861.256	22717
861.388	22752
861.521	23505
861.653	22820
861.786	22596
861.918	22535
862.05	22675
862.183	22755
862.315	22755
862.447	22915
862.58	22649
862.712	22443
862.844	22394
862.976	22694
863.108	22588
863.24	22881
863.372	22405
863.504	22504
863.636	22440
863.768	22516
863.9	22546
864.032	22360
864.164	22508
864.296	22531
864.428	22679
864.559	22573
864.691	22557
864.823	22451
864.954	22379
865.086	22432
865.217	22386
865.349	22436
865.48	22310
865.612	22272
865.743	22443
865.875	22356
866.006	22211
866.137	22268
866.269	22436
866.4	22318
866.531	22280
866.662	22166
866.793	22261
866.924	22306
867.055	22173
867.186	22287
867.317	22215
867.448	22230
867.579	22352
867.71	22291
867.841	22181
867.972	22405
868.103	22310
868.233	22325
868.364	22276
868.495	22394
868.625	22466
868.756	22706
868.886	22531
869.017	22527
869.147	22675
869.278	22618
869.408	22538
869.539	22497
869.669	22535
869.799	22516
869.929	22774
870.06	22702
870.19	22839
870.32	22797
870.45	22892
870.58	22892
870.71	22934
870.84	22919
870.97	22869
871.1	22801
871.23	22999
871.36	23132
871.489	23029
871.619	23048
871.749	23124
871.879	23094
872.008	23311
872.138	23044
872.267	23033
872.397	23067
872.526	23006
872.656	22991
872.785	22896
872.915	23117
873.044	23189
873.173	23147
873.303	23174
873.432	23212
873.561	23086
873.69	23162
873.819	23155
873.948	23181
874.077	23117
874.206	23079
874.335	23098
874.464	23307
874.593	23410
874.722	23429
874.851	23318
874.979	23242
875.108	23330
875.237	23288
875.365	23208
875.494	23284
875.623	23311
875.751	23364
875.88	23376
876.008	23467
876.136	23520
876.265	23748
876.393	23912
876.521	23779
876.65	23824
876.778	23741
876.906	23756
877.034	23638
877.162	23745
877.29	23642
877.418	23832
877.546	23817
877.674	23691
877.802	23627
877.93	23627
878.058	23630
878.185	23676
878.313	23604
878.441	23745
878.568	23535
878.696	23623
878.824	23783
878.951	23805
879.079	23836
879.206	23882
879.333	23832
879.461	23840
879.588	23779
879.715	23855
879.842	23889
879.97	23756
880.097	23596
880.224	23543
880.351	23482
880.478	23429
880.605	23448
880.732	23562
880.859	23718
880.986	23402
881.112	23566
881.239	23444
881.366	23181
881.493	23162
881.619	23170
881.746	23121
881.872	23075
881.999	23075
882.125	23041
882.252	23071
882.378	23075
882.505	23178
882.631	22927
882.757	22839
882.883	22885
883.01	22641
883.136	22843
883.262	22668
883.388	22497
883.514	22740
883.64	22778
883.766	22561
883.892	22550
884.018	22516
884.143	22668
884.269	22675
884.395	22474
884.52	22390
884.646	22440
884.772	22382
884.897	22246
885.023	22306
885.148	22360
885.274	22512
885.399	22451
885.524	22455
885.65	22409
885.775	22371
885.9	22291
886.025	22550
886.15	22394
886.275	22356
886.4	22181
886.525	22356
886.65	22253
886.775	22352
886.9	22295
887.025	22535
887.149	22238
887.274	22325
887.399	22135
887.523	22097
887.648	22048
887.773	22070
887.897	22265
888.021	22185
888.146	22067
888.27	22329
888.395	22207
888.519	22268
888.643	22169
888.767	22188
888.891	22029
889.015	21994
889.139	21907
889.263	21850
889.387	21838
889.511	22135
889.635	21979
889.759	22029
889.883	21975
890.006	21793
890.13	21873
890.254	21819
890.377	21838
890.501	21663
890.624	21568
890.748	21759
890.871	21511
890.995	21363
891.118	21359
891.241	21428
891.364	21370
891.488	21595
891.611	21496
891.734	21496
891.857	21485
891.98	21511
892.103	21568
892.226	21416
892.349	21397
892.471	21340
892.594	21355
892.717	21367
892.839	21359
892.962	21332
893.085	21447
893.207	21329
893.33	21272
893.452	21222
893.575	21374
893.697	21252
893.819	21424
893.941	21515
894.064	21553
894.186	21329
894.308	21180
894.43	21374
894.552	21488
894.674	21351
894.796	21291
894.918	21264
895.04	21256
895.161	21374
895.283	21321
895.405	21192
895.526	21283
895.648	21237
895.769	21416
895.891	21313
896.012	21412
896.134	21351
896.255	21340
896.376	21199
896.498	21176
896.619	21393
896.74	21310
896.861	21359
896.982	21667
897.103	21838
897.224	21583
897.345	21504
897.466	21458
897.587	21606
897.708	21587
897.828	21462
897.949	21504
898.07	21336
898.19	21473
898.311	21557
898.431	21545
898.552	21553
898.672	21519
898.792	21515
898.913	21450
899.033	21355
899.153	21329
899.273	21260
899.393	21272
899.513	21249
899.633	21329
899.753	21230
899.873	21192
899.993	21203
900.113	21169
900.232	21294
900.352	21039
900.472	21047
900.591	20967
900.711	20971
900.83	20975
900.95	21161
901.069	21089
901.189	20788
901.308	20739
901.427	20530
901.546	20564
901.665	20537
901.784	20511
901.904	20583
902.023	20461
902.141	20153
902.26	20191
902.379	20073
902.498	20088
902.617	20069
902.735	20111
902.854	20069
902.973	19826
903.091	19784
903.21	19715
903.328	19632
903.446	19620
903.565	19605
903.683	19460
903.801	19434
903.919	19354
904.038	19495
904.156	19343
904.274	19343
904.392	19217
904.51	19179
904.627	19301
904.745	19244
904.863	19247
904.981	19110
905.098	18985
905.216	18924
905.334	19008
905.451	19050
905.569	18894
905.686	19004
905.803	18901
905.921	18730
906.038	18840
906.155	18730
906.272	18654
906.389	18715
906.506	18422
906.623	18448
906.74	18456
906.857	18391
906.974	18376
907.091	18395
907.208	18574
907.324	18372
907.441	18300
907.557	18178
907.674	18053
907.79	18133
907.907	18167
908.023	18163
908.139	18125
908.256	18041
908.372	18068
908.488	18019
908.604	17866
908.72	17935
908.836	17901
908.952	17901
909.068	17798
909.184	17977
909.3	17916
909.415	17908
909.531	17786
909.647	17680
909.762	17520
909.878	17562
909.993	17585
910.108	17551
910.224	17520
910.339	17581
910.454	17444
910.57	17376
910.685	17364
910.8	17497
910.915	17436
911.03	17269
911.145	17250
911.259	17052
911.374	17132
911.489	17128
911.604	17010
911.718	16824
911.833	17022
911.947	16885
912.062	16664
912.176	16927
912.291	16953
912.405	16915
912.519	17045
912.633	17048
912.748	16995
912.862	16828
912.976	16694
913.09	16565
913.204	16687
913.318	16702
913.431	16774
913.545	16698
913.659	16736
913.772	16748
913.886	16508
914	16550
914.113	16535
914.226	16546
914.34	16538
914.453	16402
914.566	16500
914.68	16382
914.793	16375
914.906	16249
915.019	16051
915.132	16078
915.245	15949
915.358	16185
915.47	16112
915.583	15979
915.696	16086
915.809	16150
915.921	16150
916.034	15956
916.146	15895
916.259	16021
916.371	16017
916.483	16021
916.595	15876
916.708	15911
916.82	15854
916.932	15941
917.044	15720
917.156	15770
917.268	15675
917.38	15603
917.491	15675
917.603	15694
917.715	15819
917.826	15755
917.938	15663
918.049	15511
918.161	15568
918.272	15644
918.384	15739
918.495	15622
918.606	15401
918.717	15367
918.828	15431
918.939	15504
919.05	15203
919.161	15378
919.272	15222
919.383	15233
919.494	15389
919.604	15603
919.715	15408
919.826	15157
919.936	15405
920.047	15481
920.157	15374
920.267	15507
920.378	15367
920.488	15298
920.598	15534
920.708	15682
920.818	15473
920.928	15405
921.038	15603
921.148	15572
921.258	15351
921.368	15165
921.477	15161
921.587	15058
921.697	14883
921.806	14998
921.916	14918
922.025	14830
922.134	14750
922.244	14632
922.353	14807
922.462	14644
922.571	14473
922.68	14336
922.789	14351
922.898	14408
923.007	14298
923.116	14290
923.224	14324
923.333	14339
923.442	14233
923.55	14069
923.659	14225
923.767	14244
923.876	14111
923.984	14195
924.092	14107
924.201	14107
924.309	14100
924.417	14046
924.525	14031
924.633	13974
924.741	14902
924.849	13731
924.956	14001
925.064	13807
925.172	13681
925.279	13651
925.387	13731
925.494	13662
925.602	13818
925.709	13791
925.816	13590
925.924	13594
926.031	13784
926.138	13689
926.245	13723
926.352	13518
926.459	13765
926.566	13636
926.673	13586
926.779	13464
926.886	13388
926.993	13278
927.099	13297
927.206	13301
927.312	13225
927.419	13247
927.525	13270
927.631	13141
927.737	13137
927.843	13050
927.95	12996
928.056	13038
928.162	13141
928.267	13149
928.373	13704
928.479	13126
928.585	12886
928.69	13031
928.796	13008
928.901	12878
929.007	12760
929.112	12837
929.218	12814
929.323	12837
929.428	12726
929.533	12806
929.638	12726
929.743	12734
929.848	12722
929.953	12738
930.058	12532
930.163	12486
930.267	12422
930.372	12673
930.477	12399
930.581	12604
930.685	12452
930.79	12228
930.894	12338
930.998	12311
931.103	12426
931.207	12076
931.311	11893
931.415	11851
931.519	11748
931.623	11707
