Data from test_V78500241_1166.txt Node
Date: Fri Mar 25 15:49:52 CST 2022
User: usil
Spectrometer: V785-0024
Trigger mode: 0
Integration Time (sec): 4.000000E-1
Scans to average: 1
Nonlinearity correction enabled: false
Boxcar width: 0
Storing dark spectrum: false
XAxis mode: Wavelengths
Number of Pixels in Spectrum: 1024
>>>>>Begin Spectral Data<<<<<
801.071	28713
801.214	28809
801.356	28516
801.499	28409
801.641	28306
801.783	28223
801.926	28375
802.068	28253
802.211	28207
802.353	28188
802.496	28067
802.638	28078
802.78	27994
802.923	27884
803.065	27892
803.208	27922
803.35	28021
803.492	28036
803.635	28059
803.777	27949
803.919	28306
804.061	28527
804.204	28238
804.346	28257
804.488	28185
804.63	28291
804.773	28154
804.915	28291
805.057	28352
805.199	28143
805.341	28322
805.483	28306
805.626	28424
805.768	28166
805.91	28379
806.052	28310
806.194	28398
806.336	28394
806.478	28344
806.62	28421
806.762	28683
806.904	28778
807.046	28748
807.188	28831
807.33	28790
807.472	28820
807.614	28679
807.756	28752
807.898	28744
808.04	28557
808.182	28801
808.324	28683
808.465	28816
808.607	28831
808.749	29181
808.891	29102
809.033	29337
809.174	29117
809.316	29098
809.458	29189
809.6	28976
809.741	29242
809.883	29227
810.025	29391
810.166	29425
810.308	29448
810.45	29421
810.591	29261
810.733	29193
810.875	29185
811.016	29204
811.158	29124
811.299	29235
811.441	29334
811.582	29303
811.724	29151
811.865	29041
812.007	29231
812.148	28999
812.29	29060
812.431	29277
812.573	29551
812.714	29589
812.855	29589
812.997	29691
813.138	29794
813.279	29722
813.421	29630
813.562	29649
813.703	29478
813.845	29288
813.986	29003
814.127	28957
814.268	28881
814.41	28816
814.551	28740
814.692	28892
814.833	28713
814.974	28675
815.115	28812
815.256	28645
815.397	28721
815.539	28592
815.68	28675
815.821	28542
815.962	28771
816.103	28717
816.244	28538
816.385	28500
816.526	28401
816.666	28413
816.807	28040
816.948	28287
817.089	28169
817.23	28139
817.371	28242
817.512	28272
817.653	28131
817.793	28032
817.934	28253
818.075	28226
818.216	28211
818.356	28135
818.497	27975
818.638	27800
818.778	28055
818.919	28006
819.06	28048
819.2	28067
819.341	28188
819.481	28120
819.622	28287
819.762	28557
819.903	28398
820.043	28417
820.184	28185
820.324	28390
820.465	28348
820.605	28249
820.746	28230
820.886	28166
821.026	28287
821.167	28246
821.307	28226
821.447	28238
821.588	27991
821.728	27884
821.868	27751
822.008	27816
822.149	27618
822.289	27583
822.429	27340
822.569	27310
822.709	27367
822.849	27272
822.99	27176
823.13	27116
823.27	27001
823.41	27043
823.55	26887
823.69	26937
823.83	26872
823.97	26956
824.11	26697
824.25	26705
824.389	26796
824.529	27043
824.669	26948
824.809	26819
824.949	26849
825.089	26952
825.228	26899
825.368	26678
825.508	26609
825.648	26594
825.787	26739
825.927	26689
826.067	26606
826.206	26571
826.346	26792
826.485	26773
826.625	26701
826.765	26792
826.904	26659
827.044	26438
827.183	26549
827.323	26381
827.462	26465
827.601	26457
827.741	26358
827.88	26480
828.02	26324
828.159	26351
828.298	26377
828.437	26465
828.577	26336
828.716	26629
828.855	26271
828.994	26122
829.134	26138
829.273	26115
829.412	26043
829.551	25989
829.69	26027
829.829	26168
829.968	26161
830.107	26180
830.246	26237
830.385	26081
830.524	26039
830.663	25936
830.802	25712
830.941	25624
831.08	25689
831.219	25852
831.357	25750
831.496	26035
831.635	25594
831.774	25518
831.913	25537
832.051	25430
832.19	25548
832.329	25438
832.467	25228
832.606	25293
832.744	25362
832.883	25331
833.022	25343
833.16	25293
833.299	25441
833.437	25445
833.576	25472
833.714	25499
833.852	25468
833.991	25487
834.129	25563
834.267	25430
834.406	25438
834.544	25411
834.682	25381
834.821	25415
834.959	25635
835.097	25411
835.235	25441
835.373	25377
835.511	25381
835.65	25320
835.788	25190
835.926	25171
836.064	25084
836.202	25103
836.34	25190
836.478	25426
836.615	25312
836.753	25171
836.891	25225
837.029	25285
837.167	25217
837.305	25110
837.443	25065
837.58	25122
837.718	25236
837.856	25129
837.993	25080
838.131	24989
838.269	24928
838.406	25038
838.544	24833
838.681	24798
838.819	24711
838.956	24540
839.094	24547
839.231	24677
839.369	24802
839.506	24962
839.643	24848
839.781	24525
839.918	24528
840.055	24688
840.193	24494
840.33	24414
840.467	24597
840.604	24661
840.742	24749
840.879	24338
841.016	24224
841.153	24285
841.29	24460
841.427	24353
841.564	24418
841.701	24380
841.838	24308
841.975	24330
842.112	24513
842.249	24239
842.385	24171
842.522	24403
842.659	24254
842.796	24194
842.933	24102
843.069	24106
843.206	24140
843.343	24247
843.479	24232
843.616	24167
843.752	24057
843.889	24041
844.025	24083
844.162	23984
844.298	24015
844.435	23901
844.571	23901
844.708	24038
844.844	24091
844.98	24228
845.117	24049
845.253	23889
845.389	23684
845.525	23851
845.661	23813
845.798	23840
845.934	23866
846.07	23668
846.206	23707
846.342	23805
846.478	23714
846.614	23627
846.75	23425
846.886	23452
847.022	23379
847.158	23486
847.294	23467
847.429	23436
847.565	23414
847.701	23699
847.837	23155
847.972	22953
848.108	23208
848.244	23094
848.379	23102
848.515	22953
848.65	23006
848.786	22942
848.921	23018
849.057	23117
849.192	23090
849.328	23060
849.463	23018
849.598	22949
849.734	22873
849.869	22873
850.004	22691
850.14	22797
850.275	22744
850.41	22744
850.545	22793
850.68	22668
850.815	22778
850.95	22790
851.085	22976
851.22	22748
851.355	22850
851.49	22675
851.625	22710
851.76	22805
851.895	22645
852.03	22565
852.165	22812
852.299	22915
852.434	22877
852.569	22869
852.703	22828
852.838	22793
852.973	22850
853.107	22915
853.242	22607
853.376	22683
853.511	22546
853.645	22683
853.78	22782
853.914	22611
854.048	22557
854.183	22626
854.317	22634
854.451	22763
854.585	22634
854.72	22596
854.854	22653
854.988	22546
855.122	22557
855.256	22489
855.39	22561
855.524	22641
855.658	22580
855.792	22656
855.926	22588
856.06	22618
856.194	22717
856.327	22523
856.461	22596
856.595	22519
856.729	22565
856.862	22694
856.996	22630
857.13	22660
857.263	22702
857.397	22599
857.53	22603
857.664	22622
857.797	22519
857.931	22710
858.064	22531
858.197	22573
858.331	22527
858.464	22405
858.597	22432
858.731	22588
858.864	22485
858.997	22485
859.13	22603
859.263	22603
859.396	22607
859.529	22485
859.662	22493
859.795	22664
859.928	22698
860.061	22672
860.194	22744
860.327	22664
860.46	22596
860.592	22721
860.725	22759
860.858	22733
860.99	22637
861.123	22527
861.256	22542
861.388	22440
861.521	23258
861.653	22462
861.786	22333
861.918	22341
862.05	22447
862.183	22561
862.315	22470
862.447	22702
862.58	22523
862.712	22280
862.844	22268
862.976	22409
863.108	22344
863.24	22809
863.372	22238
863.504	22181
863.636	22413
863.768	22379
863.9	22261
864.032	22090
864.164	22249
864.296	22169
864.428	22242
864.559	22322
864.691	22318
864.823	22348
864.954	22215
865.086	22287
865.217	22101
865.349	22067
865.48	22265
865.612	22249
865.743	22337
865.875	22154
866.006	22185
866.137	22234
866.269	22078
866.4	22211
866.531	22044
866.662	22078
866.793	22112
866.924	22048
867.055	22188
867.186	22223
867.317	21994
867.448	22006
867.579	22086
867.71	22021
867.841	21903
867.972	22131
868.103	21998
868.233	21937
868.364	22147
868.495	22268
868.625	22276
868.756	22329
868.886	22314
869.017	22310
869.147	22333
869.278	22440
869.408	22249
869.539	22356
869.669	22421
869.799	22261
869.929	22436
870.06	22481
870.19	22645
870.32	22592
870.45	22698
870.58	22698
870.71	22843
870.84	22713
870.97	22698
871.1	22797
871.23	22949
871.36	22911
871.489	22729
871.619	22946
871.749	22896
871.879	22942
872.008	23079
872.138	22847
872.267	22927
872.397	22843
872.526	22809
872.656	22782
872.785	22763
872.915	22930
873.044	22984
873.173	23056
873.303	23083
873.432	23041
873.561	22995
873.69	22976
873.819	22847
873.948	23037
874.077	23010
874.206	22847
874.335	22904
874.464	23090
874.593	23037
874.722	23006
874.851	23132
874.979	23094
875.108	23132
875.237	23003
875.365	22999
875.494	23105
875.623	23223
875.751	23071
875.88	23315
876.008	23250
876.136	23398
876.265	23596
876.393	23653
876.521	23505
876.65	23623
876.778	23512
876.906	23520
877.034	23600
877.162	23509
877.29	23414
877.418	23490
877.546	23497
877.674	23581
877.802	23459
877.93	23509
878.058	23444
878.185	23368
878.313	23414
878.441	23493
878.568	23341
878.696	23433
878.824	23337
878.951	23604
879.079	23535
879.206	23764
879.333	23672
879.461	23455
879.588	23638
879.715	23695
879.842	23775
879.97	23581
880.097	23360
880.224	23284
880.351	23326
880.478	23258
880.605	23227
880.732	23330
880.859	23596
880.986	23277
881.112	23395
881.239	23140
881.366	23010
881.493	22953
881.619	22839
881.746	22873
881.872	22850
881.999	22778
882.125	22820
882.252	22831
882.378	22866
882.505	22953
882.631	22660
882.757	22611
882.883	22577
883.01	22542
883.136	22561
883.262	22470
883.388	22352
883.514	22462
883.64	22584
883.766	22500
883.892	22325
884.018	22405
884.143	22424
884.269	22493
884.395	22322
884.52	22192
884.646	22166
884.772	22017
884.897	21956
885.023	22204
885.148	22173
885.274	22261
885.399	22268
885.524	22196
885.65	22207
885.775	22207
885.9	22135
886.025	22196
886.15	22272
886.275	22032
886.4	22173
886.525	22150
886.65	22242
886.775	22200
886.9	22306
887.025	22341
887.149	22124
887.274	22097
887.399	22006
887.523	21911
887.648	21895
887.773	21850
887.897	22017
888.021	21968
888.146	21922
888.27	22002
888.395	22067
888.519	21926
888.643	22055
888.767	21994
888.891	21827
889.015	21652
889.139	21903
889.263	21774
889.387	21816
889.511	21876
889.635	21800
889.759	21732
889.883	21679
890.006	21808
890.13	21747
890.254	21599
890.377	21686
890.501	21439
890.624	21420
890.748	21443
890.871	21291
890.995	21241
891.118	21161
891.241	21332
891.364	21195
891.488	21279
891.611	21291
891.734	21306
891.857	21306
891.98	21287
892.103	21283
892.226	21218
892.349	21218
892.471	21070
892.594	21218
892.717	21188
892.839	21127
892.962	21176
893.085	21222
893.207	21085
893.33	20948
893.452	21081
893.575	21154
893.697	21184
893.819	21340
893.941	21348
894.064	21302
894.186	21116
894.308	21024
894.43	21184
894.552	21374
894.674	21169
894.796	21074
894.918	21123
895.04	21066
895.161	21142
895.283	21161
895.405	21058
895.526	21154
895.648	21017
895.769	21089
895.891	21180
896.012	21287
896.134	21165
896.255	21154
896.376	21085
896.498	21165
896.619	21074
896.74	21146
896.861	21233
896.982	21378
897.103	21515
897.224	21382
897.345	21359
897.466	21279
897.587	21378
897.708	21488
897.828	21435
897.949	21180
898.07	21127
898.19	21287
898.311	21401
898.431	21260
898.552	21382
898.672	21344
898.792	21367
898.913	21260
899.033	21188
899.153	21142
899.273	20990
899.393	21108
899.513	21085
899.633	21043
899.753	21112
899.873	20960
899.993	21032
900.113	21066
900.232	21001
900.352	20861
900.472	20914
900.591	20758
900.711	20868
900.83	20750
900.95	20963
901.069	20800
901.189	20765
901.308	20484
901.427	20431
901.546	20408
901.665	20446
901.784	20377
901.904	20164
902.023	20164
902.141	19955
902.26	19856
902.379	20005
902.498	19761
902.617	19864
902.735	19944
902.854	19928
902.973	19837
903.091	19578
903.21	19628
903.328	19552
903.446	19381
903.565	19373
903.683	19251
903.801	19156
903.919	19187
904.038	19251
904.156	19069
904.274	19198
904.392	19050
904.51	19095
904.627	19084
904.745	19069
904.863	19148
904.981	18901
905.098	18798
905.216	18863
905.334	18738
905.451	18798
905.569	18730
905.686	18741
905.803	18703
905.921	18555
906.038	18650
906.155	18707
906.272	18486
906.389	18437
906.506	18342
906.623	18334
906.74	18247
906.857	18121
906.974	18197
907.091	18281
907.208	18452
907.324	18346
907.441	18087
907.557	17996
907.674	18064
907.79	17931
907.907	17969
908.023	17969
908.139	17996
908.256	17954
908.372	17843
908.488	17939
908.604	17771
908.72	17786
908.836	17783
908.952	17703
909.068	17741
909.184	17752
909.3	17775
909.415	17813
909.531	17638
909.647	17429
909.762	17440
909.878	17349
909.993	17429
910.108	17448
910.224	17372
910.339	17356
910.454	17227
910.57	17220
910.685	17128
910.8	17414
910.915	17368
911.03	17174
911.145	17041
911.259	16972
911.374	16896
911.489	16877
911.604	16866
911.718	16725
911.833	16862
911.947	16668
912.062	16519
912.176	16725
912.291	16706
912.405	16740
912.519	16816
912.633	16911
912.748	16759
912.862	16748
912.976	16542
913.09	16356
913.204	16455
913.318	16504
913.431	16687
913.545	16497
913.659	16577
913.772	16611
913.886	16394
914	16360
914.113	16322
914.226	16371
914.34	16390
914.453	16177
914.566	16314
914.68	16173
914.793	16177
914.906	15953
915.019	15915
915.132	15747
915.245	15857
915.358	15918
915.47	15884
915.583	15880
915.696	15998
915.809	16010
915.921	16105
916.034	15842
916.146	15884
916.259	15675
916.371	15941
916.483	15819
916.595	15789
916.708	15770
916.82	15717
916.932	15625
917.044	15686
917.156	15648
917.268	15538
917.38	15549
917.491	15625
917.603	15511
917.715	15610
917.826	15606
917.938	15469
918.049	15355
918.161	15504
918.272	15542
918.384	15599
918.495	15428
918.606	15370
918.717	15249
918.828	15332
918.939	15370
919.05	15165
919.161	15279
919.272	15070
919.383	15142
919.494	15283
919.604	15431
919.715	15230
919.826	15233
919.936	15135
920.047	15260
920.157	15317
920.267	15439
920.378	15279
920.488	15192
920.598	15450
920.708	15500
920.818	15306
920.928	15435
921.038	15488
921.148	15408
921.258	15123
921.368	15157
921.477	14986
921.587	14986
921.697	14785
921.806	14979
921.916	14735
922.025	14621
922.134	14613
922.244	14511
922.353	14564
922.462	14469
922.571	14298
922.68	14214
922.789	14145
922.898	14259
923.007	14092
923.116	14157
923.224	14187
923.333	14256
923.442	14024
923.55	14024
923.659	14065
923.767	14123
923.876	13970
923.984	14210
924.092	13822
924.201	14039
924.309	13807
924.417	13928
924.525	13875
924.633	13837
924.741	14644
924.849	13696
924.956	13765
925.064	13597
925.172	13514
925.279	13609
925.387	13624
925.494	13491
925.602	13693
925.709	13594
925.816	13460
925.924	13514
926.031	13571
926.138	13495
926.245	13582
926.352	13483
926.459	13609
926.566	13594
926.673	13483
926.779	13346
926.886	13388
926.993	13133
927.099	13194
927.206	13122
927.312	13126
927.419	13053
927.525	13133
927.631	13156
927.737	13008
927.843	12939
927.95	12890
928.056	12909
928.162	12951
928.267	12947
928.373	13613
928.479	13069
928.585	12848
928.69	12913
928.796	12878
928.901	12772
929.007	12620
929.112	12791
929.218	12772
929.323	12631
929.428	12521
929.533	12707
929.638	12681
929.743	12688
929.848	12585
929.953	12536
930.058	12517
930.163	12327
930.267	12399
930.372	12460
930.477	12296
930.581	12536
930.685	12289
930.79	12235
930.894	12235
930.998	12136
931.103	12414
931.207	11897
931.311	11904
931.415	11802
931.519	11592
931.623	11570
