Data from test_V78500241_1541.txt Node
Date: Fri Mar 25 15:52:28 CST 2022
User: usil
Spectrometer: V785-0024
Trigger mode: 0
Integration Time (sec): 4.000000E-1
Scans to average: 1
Nonlinearity correction enabled: false
Boxcar width: 0
Storing dark spectrum: false
XAxis mode: Wavelengths
Number of Pixels in Spectrum: 1024
>>>>>Begin Spectral Data<<<<<
801.071	27991
801.214	27964
801.356	27770
801.499	27492
801.641	27462
801.783	27420
801.926	27481
802.068	27477
802.211	27466
802.353	27287
802.496	27252
802.638	27127
802.78	27329
802.923	27108
803.065	27135
803.208	27085
803.35	27146
803.492	27165
803.635	27294
803.777	27249
803.919	27412
804.061	27633
804.204	27351
804.346	27283
804.488	27150
804.63	27306
804.773	27256
804.915	27378
805.057	27313
805.199	27321
805.341	27447
805.483	27405
805.626	27538
805.768	27408
805.91	27538
806.052	27648
806.194	27386
806.336	27686
806.478	27492
806.62	27462
806.762	27564
806.904	27812
807.046	27835
807.188	27998
807.33	27892
807.472	27960
807.614	27892
807.756	27857
807.898	27705
808.04	27827
808.182	27728
808.324	27812
808.465	27835
808.607	28105
808.749	28010
808.891	28120
809.033	28219
809.174	28158
809.316	28188
809.458	28150
809.6	28200
809.741	28177
809.883	28287
810.025	28348
810.166	28508
810.308	28382
810.45	28268
810.591	28375
810.733	28207
810.875	28032
811.016	28097
811.158	27972
811.299	28154
811.441	28276
811.582	28306
811.724	28143
811.865	28029
812.007	28025
812.148	27998
812.29	28234
812.431	28128
812.573	28363
812.714	28596
812.855	28474
812.997	28759
813.138	29010
813.279	28793
813.421	28527
813.562	28596
813.703	28443
813.845	28306
813.986	28048
814.127	27850
814.268	27770
814.41	27869
814.551	27759
814.692	27880
814.833	27717
814.974	27778
815.115	27812
815.256	27679
815.397	27732
815.539	27747
815.68	27595
815.821	27545
815.962	27580
816.103	27580
816.244	27492
816.385	27329
816.526	27405
816.666	27146
816.807	27173
816.948	27089
817.089	27233
817.23	26975
817.371	27116
817.512	27001
817.653	27024
817.793	27013
817.934	27028
818.075	27032
818.216	27173
818.356	26921
818.497	27005
818.638	26769
818.778	26819
818.919	26716
819.06	26796
819.2	26876
819.341	26910
819.481	26971
819.622	27195
819.762	27397
819.903	27218
820.043	27294
820.184	27310
820.324	27241
820.465	27268
820.605	27241
820.746	27207
820.886	27211
821.026	27233
821.167	27211
821.307	27245
821.447	27085
821.588	27058
821.728	26998
821.868	26826
822.008	26648
822.149	26514
822.289	26667
822.429	26267
822.569	26244
822.709	26100
822.849	25978
822.99	26050
823.13	26161
823.27	26084
823.41	25807
823.55	25864
823.69	25830
823.83	25852
823.97	25997
824.11	25765
824.25	25628
824.389	25685
824.529	25757
824.669	25635
824.809	25818
824.949	25818
825.089	25814
825.228	25799
825.368	25578
825.508	25403
825.648	25548
825.787	25647
825.927	25601
826.067	25586
826.206	25529
826.346	25620
826.485	25685
826.625	25597
826.765	25670
826.904	25582
827.044	25373
827.183	25343
827.323	25266
827.462	25266
827.601	25343
827.741	25225
827.88	25289
828.02	25160
828.159	25213
828.298	25232
828.437	25400
828.577	25274
828.716	25438
828.855	25236
828.994	24935
829.134	24985
829.273	25061
829.412	25046
829.551	24871
829.69	25061
829.829	25004
829.968	24928
830.107	24996
830.246	24924
830.385	24973
830.524	24848
830.663	24734
830.802	24608
830.941	24620
831.08	24650
831.219	24772
831.357	24604
831.496	24787
831.635	24578
831.774	24464
831.913	24376
832.051	24384
832.19	24460
832.329	24456
832.467	24285
832.606	24254
832.744	24201
832.883	24209
833.022	24144
833.16	24247
833.299	24216
833.437	24171
833.576	24281
833.714	24323
833.852	24300
833.991	24296
834.129	24369
834.267	24365
834.406	24277
834.544	24376
834.682	24365
834.821	24319
834.959	24464
835.097	24350
835.235	24338
835.373	24194
835.511	24433
835.65	24228
835.788	24136
835.926	24018
836.064	23923
836.202	23901
836.34	24068
836.478	24220
836.615	24015
836.753	24140
836.891	24136
837.029	24076
837.167	23977
837.305	24174
837.443	24030
837.58	23984
837.718	24041
837.856	24026
837.993	23946
838.131	23969
838.269	23912
838.406	23923
838.544	23802
838.681	23646
838.819	23611
838.956	23493
839.094	23463
839.231	23539
839.369	23497
839.506	23847
839.643	23691
839.781	23474
839.918	23433
840.055	23554
840.193	23471
840.33	23322
840.467	23360
840.604	23387
840.742	23642
840.879	23296
841.016	23406
841.153	23265
841.29	23455
841.427	23490
841.564	23288
841.701	23318
841.838	23322
841.975	23181
842.112	23288
842.249	23189
842.385	23064
842.522	23379
842.659	23250
842.796	23083
842.933	23086
843.069	23052
843.206	23098
843.343	23231
843.479	23041
843.616	22999
843.752	22801
843.889	23102
844.025	23014
844.162	22862
844.298	22919
844.435	22968
844.571	22862
844.708	22889
844.844	23200
844.98	23037
845.117	23056
845.253	22801
845.389	22698
845.525	22698
845.661	22740
845.798	22531
845.934	22649
846.07	22504
846.206	22710
846.342	22744
846.478	22557
846.614	22360
846.75	22344
846.886	22382
847.022	22436
847.158	22344
847.294	22398
847.429	22291
847.565	22322
847.701	22599
847.837	22185
847.972	22048
848.108	22154
848.244	22204
848.379	21983
848.515	21941
848.65	21968
848.786	21907
848.921	22059
849.057	22109
849.192	21979
849.328	21960
849.463	21869
849.598	21884
849.734	21774
849.869	21785
850.004	21717
850.14	21701
850.275	21759
850.41	21534
850.545	21686
850.68	21656
850.815	21701
850.95	21698
851.085	21876
851.22	21800
851.355	21774
851.49	21629
851.625	21747
851.76	21679
851.895	21591
852.03	21663
852.165	21690
852.299	21800
852.434	21770
852.569	21743
852.703	21854
852.838	21629
852.973	21846
853.107	21865
853.242	21534
853.376	21614
853.511	21348
853.645	21519
853.78	21698
853.914	21530
854.048	21485
854.183	21614
854.317	21595
854.451	21755
854.585	21443
854.72	21515
854.854	21542
854.988	21469
855.122	21549
855.256	21344
855.39	21553
855.524	21587
855.658	21557
855.792	21439
855.926	21610
856.06	21557
856.194	21568
856.327	21523
856.461	21507
856.595	21496
856.729	21553
856.862	21648
856.996	21393
857.13	21591
857.263	21504
857.397	21576
857.53	21504
857.664	21580
857.797	21614
857.931	21591
858.064	21625
858.197	21606
858.331	21561
858.464	21443
858.597	21317
858.731	21496
858.864	21519
858.997	21496
859.13	21572
859.263	21496
859.396	21538
859.529	21519
859.662	21500
859.795	21473
859.928	21545
860.061	21610
860.194	21701
860.327	21557
860.46	21557
860.592	21717
860.725	21652
860.858	21637
860.99	21492
861.123	21526
861.256	21564
861.388	21625
861.521	22010
861.653	21370
861.786	21348
861.918	21332
862.05	21340
862.183	21450
862.315	21599
862.447	21561
862.58	21466
862.712	21211
862.844	21252
862.976	21283
863.108	21439
863.24	21759
863.372	21275
863.504	21241
863.636	21047
863.768	21256
863.9	21329
864.032	21161
864.164	21211
864.296	21325
864.428	21431
864.559	21252
864.691	21268
864.823	21283
864.954	21207
865.086	21184
865.217	21230
865.349	20956
865.48	21089
865.612	21150
865.743	21119
865.875	21150
866.006	20994
866.137	21165
866.269	21157
866.4	21146
866.531	21165
866.662	21131
866.793	21077
866.924	21058
867.055	20975
867.186	21032
867.317	21199
867.448	21020
867.579	20990
867.71	20925
867.841	21081
867.972	21066
868.103	21096
868.233	21203
868.364	21017
868.495	21241
868.625	21401
868.756	21412
868.886	21199
869.017	21306
869.147	21424
869.278	21458
869.408	21321
869.539	21294
869.669	21264
869.799	21279
869.929	21401
870.06	21488
870.19	21572
870.32	21629
870.45	21728
870.58	21793
870.71	21804
870.84	21766
870.97	21739
871.1	21637
871.23	21850
871.36	21850
871.489	21739
871.619	21945
871.749	21857
871.879	21930
872.008	22074
872.138	21892
872.267	21819
872.397	21720
872.526	21701
872.656	21774
872.785	21774
872.915	21918
873.044	21991
873.173	22013
873.303	21972
873.432	22090
873.561	22017
873.69	21930
873.819	21953
873.948	22025
874.077	21892
874.206	21884
874.335	21835
874.464	21991
874.593	22162
874.722	22128
874.851	22219
874.979	22265
875.108	22196
875.237	22238
875.365	22010
875.494	22169
875.623	22306
875.751	22048
875.88	22158
876.008	22306
876.136	22314
876.265	22470
876.393	22721
876.521	22557
876.65	22615
876.778	22485
876.906	22447
877.034	22523
877.162	22519
877.29	22481
877.418	22546
877.546	22569
877.674	22478
877.802	22447
877.93	22508
878.058	22519
878.185	22493
878.313	22287
878.441	22432
878.568	22379
878.696	22367
878.824	22497
878.951	22649
879.079	22618
879.206	22675
879.333	22691
879.461	22485
879.588	22603
879.715	22675
879.842	22645
879.97	22512
880.097	22337
880.224	22390
880.351	22390
880.478	22306
880.605	22337
880.732	22333
880.859	22565
880.986	22329
881.112	22337
881.239	22112
881.366	22105
881.493	21918
881.619	21899
881.746	21861
881.872	21934
881.999	21838
882.125	21816
882.252	21823
882.378	21789
882.505	21918
882.631	21739
882.757	21660
882.883	21736
883.01	21603
883.136	21477
883.262	21386
883.388	21435
883.514	21564
883.64	21648
883.766	21481
883.892	21397
884.018	21348
884.143	21580
884.269	21739
884.395	21370
884.52	21306
884.646	21317
884.772	21169
884.897	21154
885.023	21195
885.148	21272
885.274	21473
885.399	21382
885.524	21268
885.65	21298
885.775	21165
885.9	21256
886.025	21386
886.15	21359
886.275	21188
886.4	21070
886.525	21176
886.65	21203
886.775	21032
886.9	21435
887.025	21435
887.149	21298
887.274	21077
887.399	20990
887.523	20986
887.648	20944
887.773	20979
887.897	21096
888.021	21096
888.146	20849
888.27	21062
888.395	20975
888.519	20891
888.643	20994
888.767	21074
888.891	20792
889.015	20902
889.139	20785
889.263	20823
889.387	20925
889.511	21131
889.635	20902
889.759	20731
889.883	20758
890.006	20861
890.13	20815
890.254	20788
890.377	20746
890.501	20609
890.624	20476
890.748	20583
890.871	20393
890.995	20389
891.118	20298
891.241	20438
891.364	20374
891.488	20385
891.611	20400
891.734	20412
891.857	20533
891.98	20355
892.103	20488
892.226	20408
892.349	20248
892.471	20180
892.594	20191
892.717	20187
892.839	20221
892.962	20248
893.085	20191
893.207	20301
893.33	20218
893.452	20199
893.575	20412
893.697	20218
893.819	20461
893.941	20465
894.064	20336
894.186	20237
894.308	20069
894.43	20412
894.552	20320
894.674	20351
894.796	20176
894.918	20138
895.04	20183
895.161	20259
895.283	20282
895.405	20244
895.526	20206
895.648	20244
895.769	20286
895.891	20362
896.012	20328
896.134	20358
896.255	20290
896.376	20286
896.498	20195
896.619	20309
896.74	20320
896.861	20252
896.982	20499
897.103	20674
897.224	20370
897.345	20457
897.466	20457
897.587	20526
897.708	20552
897.828	20541
897.949	20370
898.07	20309
898.19	20362
898.311	20571
898.431	20412
898.552	20476
898.672	20545
898.792	20579
898.913	20549
899.033	20457
899.153	20339
899.273	20210
899.393	20195
899.513	20263
899.633	20305
899.753	20259
899.873	20199
899.993	20233
900.113	20172
900.232	20164
900.352	20119
900.472	20027
900.591	19986
900.711	20107
900.83	19989
900.95	20149
901.069	19936
901.189	19898
901.308	19750
901.427	19616
901.546	19590
901.665	19601
901.784	19624
901.904	19411
902.023	19263
902.141	19202
902.26	19133
902.379	19168
902.498	19095
902.617	19141
902.735	19129
902.854	19080
902.973	19008
903.091	18837
903.21	18757
903.328	18821
903.446	18738
903.565	18544
903.683	18540
903.801	18384
903.919	18498
904.038	18441
904.156	18327
904.274	18399
904.392	18235
904.51	18304
904.627	18300
904.745	18342
904.863	18311
904.981	18083
905.098	18030
905.216	17939
905.334	18057
905.451	17999
905.569	17996
905.686	17958
905.803	17939
905.921	17745
906.038	17908
906.155	17901
906.272	17672
906.389	17676
906.506	17615
906.623	17665
906.74	17581
906.857	17482
906.974	17402
907.091	17547
907.208	17646
907.324	17577
907.441	17421
907.557	17368
907.674	17303
907.79	17185
907.907	17140
908.023	17254
908.139	17292
908.256	17155
908.372	17223
908.488	17151
908.604	17045
908.72	16934
908.836	17010
908.952	16942
909.068	16995
909.184	17109
909.3	17086
909.415	17014
909.531	16961
909.647	16664
909.762	16637
909.878	16641
909.993	16584
910.108	16584
910.224	16542
910.339	16660
910.454	16489
910.57	16459
910.685	16432
910.8	16611
910.915	16607
911.03	16432
911.145	16211
911.259	16310
911.374	16314
911.489	16120
911.604	16131
911.718	16017
911.833	16048
911.947	15842
912.062	15800
912.176	16025
912.291	15994
912.405	15968
912.519	16196
912.633	16150
912.748	16002
912.862	16032
912.976	15857
913.09	15724
913.204	15766
913.318	15789
913.431	15876
913.545	15930
913.659	15907
913.772	15835
913.886	15641
914	15625
914.113	15701
914.226	15713
914.34	15644
914.453	15519
914.566	15686
914.68	15397
914.793	15511
914.906	15313
915.019	15287
915.132	15245
915.245	15203
915.358	15100
915.47	15207
915.583	15329
915.696	15252
915.809	15245
915.921	15363
916.034	15218
916.146	15245
916.259	15108
916.371	15245
916.483	15150
916.595	15112
916.708	15017
916.82	15020
916.932	15051
917.044	15047
917.156	14941
917.268	14842
917.38	14902
917.491	14861
917.603	14872
917.715	14937
917.826	14872
917.938	14705
918.049	14724
918.161	14876
918.272	14914
918.384	14887
918.495	14750
918.606	14556
918.717	14503
918.828	14606
918.939	14686
919.05	14644
919.161	14590
919.272	14457
919.383	14495
919.494	14625
919.604	14792
919.715	14613
919.826	14450
919.936	14613
920.047	14610
920.157	14579
920.267	14788
920.378	14651
920.488	14552
920.598	14735
920.708	14868
920.818	14792
920.928	14727
921.038	14910
921.148	14842
921.258	14587
921.368	14476
921.477	14355
921.587	14358
921.697	14218
921.806	14351
921.916	14183
922.025	14050
922.134	14008
922.244	13940
922.353	14039
922.462	13921
922.571	13856
922.68	13719
922.789	13578
922.898	13632
923.007	13613
923.116	13636
923.224	13616
923.333	13567
923.442	13426
923.55	13343
923.659	13483
923.767	13537
923.876	13400
923.984	13537
924.092	13282
924.201	13430
924.309	13350
924.417	13324
924.525	13266
924.633	13251
924.741	14138
924.849	13061
924.956	13285
925.064	13072
925.172	12920
925.279	13034
925.387	13160
925.494	12993
925.602	13088
925.709	13110
925.816	12939
925.924	12993
926.031	13088
926.138	13000
926.245	12909
926.352	12859
926.459	12970
926.566	13038
926.673	12840
926.779	12760
926.886	12810
926.993	12616
927.099	12703
927.206	12525
927.312	12525
927.419	12593
927.525	12502
927.631	12635
927.737	12391
927.843	12372
927.95	12403
928.056	12414
928.162	12460
928.267	12441
928.373	13088
928.479	12566
928.585	12338
928.69	12308
928.796	12433
928.901	12262
929.007	12087
929.112	12273
929.218	12247
929.323	12178
929.428	12087
929.533	12129
929.638	11988
929.743	12079
929.848	12136
929.953	12091
930.058	11916
930.163	11851
930.267	11813
930.372	11923
930.477	11824
930.581	12087
930.685	11847
930.79	11733
930.894	11760
930.998	11680
931.103	11878
931.207	11486
931.311	11322
931.415	11292
931.519	11140
931.623	11037
