Data from test_V78500241_1694.txt Node
Date: Fri Mar 25 15:53:32 CST 2022
User: usil
Spectrometer: V785-0024
Trigger mode: 0
Integration Time (sec): 4.000000E-1
Scans to average: 1
Nonlinearity correction enabled: false
Boxcar width: 0
Storing dark spectrum: false
XAxis mode: Wavelengths
Number of Pixels in Spectrum: 1024
>>>>>Begin Spectral Data<<<<<
801.071	27972
801.214	27838
801.356	27663
801.499	27534
801.641	27549
801.783	27450
801.926	27496
802.068	27443
802.211	27283
802.353	27393
802.496	27275
802.638	27093
802.78	27074
802.923	27032
803.065	26975
803.208	27032
803.35	27074
803.492	27249
803.635	27184
803.777	27104
803.919	27230
804.061	27671
804.204	27389
804.346	27135
804.488	27268
804.63	27317
804.773	27272
804.915	27237
805.057	27431
805.199	27348
805.341	27469
805.483	27450
805.626	27370
805.768	27359
805.91	27450
806.052	27549
806.194	27401
806.336	27488
806.478	27519
806.62	27401
806.762	27587
806.904	27736
807.046	27884
807.188	27816
807.33	27979
807.472	27994
807.614	27922
807.756	27888
807.898	27736
808.04	27564
808.182	27629
808.324	27675
808.465	27743
808.607	28055
808.749	28097
808.891	28044
809.033	28207
809.174	28166
809.316	28067
809.458	28204
809.6	28044
809.741	28204
809.883	28090
810.025	28215
810.166	28398
810.308	28379
810.45	28314
810.591	28253
810.733	28090
810.875	28070
811.016	28074
811.158	28032
811.299	28029
811.441	28188
811.582	28249
811.724	27975
811.865	27941
812.007	27991
812.148	28158
812.29	28135
812.431	28249
812.573	28291
812.714	28417
812.855	28474
812.997	28710
813.138	28862
813.279	28649
813.421	28561
813.562	28637
813.703	28493
813.845	28272
813.986	27953
814.127	27876
814.268	27686
814.41	27835
814.551	27675
814.692	27911
814.833	27774
814.974	27694
815.115	27671
815.256	27652
815.397	27576
815.539	27694
815.68	27576
815.821	27572
815.962	27549
816.103	27515
816.244	27435
816.385	27329
816.526	27302
816.666	27203
816.807	27001
816.948	27131
817.089	27074
817.23	27119
817.371	27032
817.512	26944
817.653	27009
817.793	27062
817.934	27043
818.075	27017
818.216	27081
818.356	26944
818.497	26883
818.638	26739
818.778	26777
818.919	26864
819.06	26823
819.2	26921
819.341	26982
819.481	27051
819.622	27180
819.762	27272
819.903	27237
820.043	27302
820.184	27184
820.324	27058
820.465	27184
820.605	27108
820.746	27173
820.886	26956
821.026	27096
821.167	27104
821.307	27252
821.447	26967
821.588	26864
821.728	26887
821.868	26727
822.008	26480
822.149	26552
822.289	26522
822.429	26229
822.569	26126
822.709	26107
822.849	26058
822.99	26005
823.13	26050
823.27	25909
823.41	25906
823.55	25651
823.69	25826
823.83	25833
823.97	25803
824.11	25567
824.25	25537
824.389	25556
824.529	25647
824.669	25594
824.809	25738
824.949	25643
825.089	25856
825.228	25578
825.368	25479
825.508	25537
825.648	25628
825.787	25529
825.927	25681
826.067	25597
826.206	25571
826.346	25483
826.485	25525
826.625	25479
826.765	25605
826.904	25594
827.044	25255
827.183	25263
827.323	25209
827.462	25183
827.601	25289
827.741	25156
827.88	25228
828.02	25263
828.159	25244
828.298	25179
828.437	25304
828.577	25263
828.716	25289
828.855	25072
828.994	24856
829.134	24992
829.273	24886
829.412	24859
829.551	24878
829.69	24977
829.829	24992
829.968	24878
830.107	24894
830.246	25034
830.385	24867
830.524	24871
830.663	24692
830.802	24707
830.941	24574
831.08	24437
831.219	24517
831.357	24582
831.496	24768
831.635	24521
831.774	24433
831.913	24467
832.051	24380
832.19	24194
832.329	24342
832.467	24239
832.606	24083
832.744	24167
832.883	24209
833.022	24220
833.16	24186
833.299	24308
833.437	24190
833.576	24220
833.714	24308
833.852	24334
833.991	24266
834.129	24254
834.267	24311
834.406	24289
834.544	24209
834.682	24095
834.821	24266
834.959	24323
835.097	24091
835.235	24292
835.373	24254
835.511	24190
835.65	24011
835.788	24292
835.926	23977
836.064	23843
836.202	24018
836.34	24079
836.478	24194
836.615	24022
836.753	24197
836.891	24159
837.029	24194
837.167	24076
837.305	23969
837.443	23855
837.58	23950
837.718	23999
837.856	23969
837.993	23916
838.131	23832
838.269	23893
838.406	23790
838.544	23916
838.681	23562
838.819	23493
838.956	23334
839.094	23406
839.231	23425
839.369	23440
839.506	23790
839.643	23627
839.781	23387
839.918	23345
840.055	23455
840.193	23353
840.33	23341
840.467	23299
840.604	23501
840.742	23577
840.879	23109
841.016	23170
841.153	23151
841.29	23444
841.427	23239
841.564	23208
841.701	23296
841.838	23235
841.975	23181
842.112	23174
842.249	23174
842.385	22900
842.522	23258
842.659	23105
842.796	23086
842.933	23128
843.069	23044
843.206	23098
843.343	22995
843.479	22995
843.616	22987
843.752	22866
843.889	22892
844.025	23048
844.162	22801
844.298	22927
844.435	22892
844.571	22812
844.708	22984
844.844	22987
844.98	22930
845.117	22968
845.253	22915
845.389	22717
845.525	22618
845.661	22778
845.798	22573
845.934	22649
846.07	22519
846.206	22573
846.342	22637
846.478	22531
846.614	22382
846.75	22230
846.886	22280
847.022	22417
847.158	22367
847.294	22329
847.429	22131
847.565	22192
847.701	22592
847.837	22048
847.972	21915
848.108	22059
848.244	22124
848.379	21854
848.515	21876
848.65	21850
848.786	21884
848.921	21983
849.057	22093
849.192	21968
849.328	21865
849.463	21937
849.598	21804
849.734	21743
849.869	21785
850.004	21610
850.14	21656
850.275	21568
850.41	21481
850.545	21660
850.68	21717
850.815	21660
850.95	21679
851.085	21755
851.22	21701
851.355	21637
851.49	21686
851.625	21682
851.76	21625
851.895	21606
852.03	21614
852.165	21538
852.299	21660
852.434	21679
852.569	21899
852.703	21743
852.838	21774
852.973	21854
853.107	21656
853.242	21606
853.376	21428
853.511	21382
853.645	21538
853.78	21610
853.914	21530
854.048	21382
854.183	21469
854.317	21401
854.451	21625
854.585	21428
854.72	21279
854.854	21488
854.988	21488
855.122	21462
855.256	21393
855.39	21466
855.524	21614
855.658	21367
855.792	21469
855.926	21473
856.06	21534
856.194	21545
856.327	21447
856.461	21496
856.595	21466
856.729	21428
856.862	21625
856.996	21473
857.13	21538
857.263	21553
857.397	21469
857.53	21431
857.664	21477
857.797	21477
857.931	21732
858.064	21557
858.197	21557
858.331	21466
858.464	21458
858.597	21428
858.731	21447
858.864	21408
858.997	21378
859.13	21500
859.263	21450
859.396	21663
859.529	21462
859.662	21435
859.795	21431
859.928	21485
860.061	21622
860.194	21663
860.327	21580
860.46	21435
860.592	21530
860.725	21500
860.858	21580
860.99	21374
861.123	21374
861.256	21450
861.388	21561
861.521	22090
861.653	21439
861.786	21245
861.918	21336
862.05	21348
862.183	21351
862.315	21450
862.447	21393
862.58	21359
862.712	21214
862.844	21116
862.976	21306
863.108	21184
863.24	21660
863.372	21195
863.504	21199
863.636	21279
863.768	21161
863.9	21222
864.032	21131
864.164	21062
864.296	21287
864.428	21279
864.559	21279
864.691	21268
864.823	21039
864.954	21127
865.086	21203
865.217	21119
865.349	21085
865.48	21081
865.612	21013
865.743	21161
865.875	21150
866.006	21032
866.137	21009
866.269	21055
866.4	21009
866.531	21070
866.662	21100
866.793	20956
866.924	21036
867.055	21058
867.186	21024
867.317	20887
867.448	21005
867.579	21020
867.71	20899
867.841	21051
867.972	21096
868.103	20887
868.233	20941
868.364	20925
868.495	21093
868.625	21123
868.756	21416
868.886	21123
869.017	21173
869.147	21306
869.278	21256
869.408	21317
869.539	21310
869.669	21298
869.799	21298
869.929	21321
870.06	21462
870.19	21515
870.32	21473
870.45	21614
870.58	21591
870.71	21698
870.84	21774
870.97	21553
871.1	21591
871.23	21907
871.36	21892
871.489	21770
871.619	21838
871.749	21800
871.879	21827
872.008	21941
872.138	21770
872.267	21956
872.397	21660
872.526	21606
872.656	21728
872.785	21686
872.915	21934
873.044	21930
873.173	21903
873.303	21960
873.432	22017
873.561	22040
873.69	21941
873.819	21835
873.948	21846
874.077	21850
874.206	21732
874.335	21922
874.464	22006
874.593	22082
874.722	22105
874.851	22234
874.979	22063
875.108	22204
875.237	22059
875.365	22032
875.494	22082
875.623	22154
875.751	22097
875.88	22013
876.008	22280
876.136	22284
876.265	22481
876.393	22489
876.521	22546
876.65	22660
876.778	22462
876.906	22447
877.034	22367
877.162	22462
877.29	22325
877.418	22500
877.546	22394
877.674	22557
877.802	22497
877.93	22402
878.058	22356
878.185	22322
878.313	22360
878.441	22470
878.568	22360
878.696	22382
878.824	22432
878.951	22451
879.079	22615
879.206	22664
879.333	22557
879.461	22390
879.588	22599
879.715	22596
879.842	22675
879.97	22550
880.097	22295
880.224	22303
880.351	22371
880.478	22280
880.605	22154
880.732	22337
880.859	22603
880.986	22329
881.112	22329
881.239	22204
881.366	21937
881.493	21895
881.619	21903
881.746	21816
881.872	21739
881.999	21915
882.125	21762
882.252	21930
882.378	21842
882.505	21937
882.631	21526
882.757	21568
882.883	21629
883.01	21557
883.136	21488
883.262	21469
883.388	21294
883.514	21515
883.64	21595
883.766	21553
883.892	21291
884.018	21367
884.143	21435
884.269	21542
884.395	21249
884.52	21116
884.646	21036
884.772	21131
884.897	21062
885.023	21199
885.148	21329
885.274	21355
885.399	21226
885.524	21161
885.65	21203
885.775	21256
885.9	21249
886.025	21184
886.15	21321
886.275	21188
886.4	21039
886.525	21173
886.65	21138
886.775	21211
886.9	21237
887.025	21405
887.149	21173
887.274	20944
887.399	20929
887.523	21032
887.648	20918
887.773	20864
887.897	20963
888.021	20998
888.146	21017
888.27	20952
888.395	21001
888.519	21017
888.643	20910
888.767	20933
888.891	20823
889.015	20796
889.139	20933
889.263	20632
889.387	20800
889.511	20842
889.635	20880
889.759	20689
889.883	20708
890.006	20975
890.13	20876
890.254	20697
890.377	20670
890.501	20552
890.624	20476
890.748	20640
890.871	20465
890.995	20298
891.118	20271
891.241	20339
891.364	20362
891.488	20503
891.611	20381
891.734	20294
891.857	20290
891.98	20317
892.103	20450
892.226	20298
892.349	20240
892.471	20138
892.594	20221
892.717	20343
892.839	20153
892.962	20252
893.085	20328
893.207	20206
893.33	20077
893.452	20183
893.575	20305
893.697	20168
893.819	20313
893.941	20396
894.064	20298
894.186	20119
894.308	20122
894.43	20252
894.552	20366
894.674	20324
894.796	20012
894.918	20145
895.04	20259
895.161	20313
895.283	20248
895.405	20157
895.526	20157
895.648	20229
895.769	20176
895.891	20244
896.012	20305
896.134	20256
896.255	20332
896.376	20157
896.498	20294
896.619	20320
896.74	20221
896.861	20396
896.982	20507
897.103	20659
897.224	20457
897.345	20442
897.466	20355
897.587	20419
897.708	20594
897.828	20549
897.949	20343
898.07	20358
898.19	20370
898.311	20457
898.431	20358
898.552	20389
898.672	20396
898.792	20518
898.913	20385
899.033	20427
899.153	20244
899.273	20180
899.393	20301
899.513	20233
899.633	20225
899.753	20180
899.873	20103
899.993	20237
900.113	20218
900.232	20233
900.352	20058
900.472	20001
900.591	19875
900.711	19925
900.83	19963
900.95	19963
901.069	20157
901.189	19860
901.308	19662
901.427	19563
901.546	19582
901.665	19624
901.784	19605
901.904	19362
902.023	19384
902.141	19103
902.26	19107
902.379	19114
902.498	19110
902.617	18996
902.735	19209
902.854	18951
902.973	18916
903.091	18684
903.21	18856
903.328	18730
903.446	18589
903.565	18570
903.683	18513
903.801	18429
903.919	18448
904.038	18384
904.156	18262
904.274	18399
904.392	18391
904.51	18308
904.627	18350
904.745	18285
904.863	18247
904.981	18045
905.098	17969
905.216	17889
905.334	17965
905.451	17984
905.569	17874
905.686	17916
905.803	17954
905.921	17786
906.038	17923
906.155	17764
906.272	17642
906.389	17627
906.506	17520
906.623	17448
906.74	17566
906.857	17421
906.974	17383
907.091	17543
907.208	17516
907.324	17535
907.441	17395
907.557	17326
907.674	17326
907.79	17037
907.907	17227
908.023	17208
908.139	17193
908.256	17239
908.372	17018
908.488	17037
908.604	17006
908.72	17029
908.836	16961
908.952	16904
909.068	16915
909.184	16877
909.3	16949
909.415	16938
909.531	16942
909.647	16702
909.762	16641
909.878	16645
909.993	16653
910.108	16527
910.224	16550
910.339	16596
910.454	16546
910.57	16504
910.685	16318
910.8	16656
910.915	16538
911.03	16363
911.145	16318
911.259	16272
911.374	16284
911.489	16135
911.604	16116
911.718	16029
911.833	15960
911.947	15770
912.062	15804
912.176	15926
912.291	16032
912.405	15899
912.519	16101
912.633	16204
912.748	15922
912.862	15987
912.976	15770
913.09	15743
913.204	15747
913.318	15789
913.431	15869
913.545	15827
913.659	15918
913.772	15717
913.886	15633
914	15450
914.113	15663
914.226	15743
914.34	15568
914.453	15538
914.566	15614
914.68	15496
914.793	15473
914.906	15287
915.019	15127
915.132	15142
915.245	15165
915.358	15192
915.47	15226
915.583	15218
915.696	15214
915.809	15237
915.921	15367
916.034	15097
916.146	15150
916.259	15104
916.371	15222
916.483	15119
916.595	15024
916.708	15032
916.82	15020
916.932	14971
917.044	15066
917.156	14937
917.268	14804
917.38	14819
917.491	14788
917.603	14758
917.715	14777
917.826	14834
917.938	14853
918.049	14594
918.161	14788
918.272	14872
918.384	14921
918.495	14701
918.606	14579
918.717	14511
918.828	14659
918.939	14693
919.05	14465
919.161	14602
919.272	14423
919.383	14476
919.494	14689
919.604	14826
919.715	14579
919.826	14492
919.936	14461
920.047	14689
920.157	14602
920.267	14731
920.378	14571
920.488	14590
920.598	14773
920.708	14906
920.818	14750
920.928	14594
921.038	14765
921.148	14899
921.258	14564
921.368	14450
921.477	14339
921.587	14263
921.697	14199
921.806	14294
921.916	14164
922.025	13982
922.134	13978
922.244	13883
922.353	14008
922.462	13746
922.571	13727
922.68	13616
922.789	13597
922.898	13563
923.007	13563
923.116	13681
923.224	13628
923.333	13548
923.442	13594
923.55	13441
923.659	13384
923.767	13434
923.876	13343
923.984	13426
924.092	13358
924.201	13392
924.309	13255
924.417	13335
924.525	13282
924.633	13209
924.741	13951
924.849	13023
924.956	13141
925.064	13008
925.172	12932
925.279	12981
925.387	13023
925.494	13019
925.602	13107
925.709	13023
925.816	12958
925.924	12928
926.031	13084
926.138	12943
926.245	13042
926.352	12852
926.459	12970
926.566	13004
926.673	12897
926.779	12817
926.886	12798
926.993	12574
927.099	12589
927.206	12490
927.312	12479
927.419	12555
927.525	12612
927.631	12662
927.737	12407
927.843	12384
927.95	12281
928.056	12357
928.162	12445
928.267	12399
928.373	13027
928.479	12486
928.585	12220
928.69	12342
928.796	12372
928.901	12262
929.007	12098
929.112	12239
929.218	12273
929.323	12152
929.428	12152
929.533	12209
929.638	12038
929.743	12057
929.848	12076
929.953	11984
930.058	11901
930.163	11741
930.267	11870
930.372	11889
930.477	11726
930.581	11980
930.685	11836
930.79	11726
930.894	11649
930.998	11729
931.103	11832
931.207	11486
931.311	11330
931.415	11227
931.519	11105
931.623	11041
