Data from test_V78500241_2061.txt Node
Date: Fri Mar 25 15:56:04 CST 2022
User: usil
Spectrometer: V785-0024
Trigger mode: 0
Integration Time (sec): 4.000000E-1
Scans to average: 1
Nonlinearity correction enabled: false
Boxcar width: 0
Storing dark spectrum: false
XAxis mode: Wavelengths
Number of Pixels in Spectrum: 1024
>>>>>Begin Spectral Data<<<<<
801.071	29033
801.214	28885
801.356	28713
801.499	28801
801.641	28557
801.783	28508
801.926	28702
802.068	28622
802.211	28390
802.353	28554
802.496	28348
802.638	28325
802.78	28196
802.923	28318
803.065	28234
803.208	28147
803.35	28348
803.492	28401
803.635	28485
803.777	28261
803.919	28516
804.061	28698
804.204	28550
804.346	28447
804.488	28386
804.63	28428
804.773	28508
804.915	28584
805.057	28641
805.199	28519
805.341	28561
805.483	28664
805.626	28698
805.768	28626
805.91	28637
806.052	28611
806.194	28470
806.336	28881
806.478	28672
806.62	28675
806.762	28961
806.904	29029
807.046	29311
807.188	29037
807.33	29239
807.472	29246
807.614	29086
807.756	29109
807.898	29181
808.04	29052
808.182	28885
808.324	29064
808.465	29041
808.607	29204
808.749	29356
808.891	29436
809.033	29589
809.174	29649
809.316	29528
809.458	29417
809.6	29395
809.741	29547
809.883	29535
810.025	29828
810.166	29600
810.308	29771
810.45	29619
810.591	29551
810.733	29315
810.875	29387
811.016	29296
811.158	29341
811.299	29444
811.441	29547
811.582	29474
811.724	29337
811.865	29387
812.007	29410
812.148	29459
812.29	29524
812.431	29577
812.573	29729
812.714	29847
812.855	29786
812.997	30060
813.138	30213
813.279	30251
813.421	29958
813.562	29946
813.703	29821
813.845	29737
813.986	29258
814.127	29227
814.268	29105
814.41	29113
814.551	29212
814.692	29250
814.833	29044
814.974	29044
815.115	29189
815.256	28835
815.397	29029
815.539	29025
815.68	28911
815.821	28793
815.962	28930
816.103	28828
816.244	28831
816.385	28877
816.526	28615
816.666	28474
816.807	28554
816.948	28432
817.089	28500
817.23	28573
817.371	28462
817.512	28542
817.653	28371
817.793	28367
817.934	28500
818.075	28440
818.216	28611
818.356	28516
818.497	28265
818.638	28226
818.778	28291
818.919	28306
819.06	28169
819.2	28360
819.341	28527
819.481	28318
819.622	28497
819.762	28793
819.903	28679
820.043	28588
820.184	28664
820.324	28759
820.465	28580
820.605	28459
820.746	28500
820.886	28462
821.026	28561
821.167	28516
821.307	28615
821.447	28405
821.588	28401
821.728	28128
821.868	28090
822.008	27998
822.149	27968
822.289	28036
822.429	27732
822.569	27599
822.709	27660
822.849	27477
822.99	27405
823.13	27485
823.27	27389
823.41	27351
823.55	27302
823.69	27245
823.83	27226
823.97	27211
824.11	26998
824.25	27028
824.389	27024
824.529	27093
824.669	27051
824.809	27279
824.949	27241
825.089	27123
825.228	27032
825.368	27062
825.508	26956
825.648	26956
825.787	27047
825.927	27104
826.067	26975
826.206	26967
826.346	26994
826.485	27066
826.625	26914
826.765	26990
826.904	27070
827.044	26819
827.183	26804
827.323	26781
827.462	26682
827.601	26758
827.741	26697
827.88	26689
828.02	26514
828.159	26735
828.298	26815
828.437	26792
828.577	26522
828.716	26777
828.855	26594
828.994	26469
829.134	26320
829.273	26339
829.412	26343
829.551	26309
829.69	26328
829.829	26423
829.968	26453
830.107	26484
830.246	26495
830.385	26370
830.524	26290
830.663	26240
830.802	26065
830.941	26058
831.08	25925
831.219	26020
831.357	26168
831.496	26233
831.635	25989
831.774	25921
831.913	25913
832.051	25837
832.19	25693
832.329	25898
832.467	25586
832.606	25548
832.744	25594
832.883	25693
833.022	25613
833.16	25670
833.299	25738
833.437	25689
833.576	25704
833.714	25685
833.852	25712
833.991	25769
834.129	25803
834.267	25879
834.406	25658
834.544	25670
834.682	25647
834.821	25799
834.959	25845
835.097	25666
835.235	25632
835.373	25734
835.511	25693
835.65	25514
835.788	25464
835.926	25533
836.064	25362
836.202	25297
836.34	25365
836.478	25803
836.615	25529
836.753	25445
836.891	25586
837.029	25624
837.167	25544
837.305	25422
837.443	25426
837.58	25343
837.718	25438
837.856	25388
837.993	25301
838.131	25327
838.269	25259
838.406	25198
838.544	25190
838.681	25122
838.819	24966
838.956	24859
839.094	24829
839.231	24951
839.369	25072
839.506	25152
839.643	25004
839.781	24787
839.918	24817
840.055	24760
840.193	24688
840.33	24726
840.467	24768
840.604	24665
840.742	25061
840.879	24574
841.016	24650
841.153	24498
841.29	24905
841.427	24833
841.564	24582
841.701	24753
841.838	24703
841.975	24616
842.112	24597
842.249	24654
842.385	24555
842.522	24719
842.659	24555
842.796	24555
842.933	24418
843.069	24327
843.206	24494
843.343	24494
843.479	24467
843.616	24551
843.752	24239
843.889	24361
844.025	24350
844.162	24232
844.298	24315
844.435	24117
844.571	24159
844.708	24311
844.844	24525
844.98	24205
845.117	24319
845.253	24190
845.389	24068
845.525	24125
845.661	24007
845.798	23965
845.934	23961
846.07	23908
846.206	23904
846.342	23969
846.478	23950
846.614	23756
846.75	23661
846.886	23680
847.022	23657
847.158	23710
847.294	23722
847.429	23889
847.565	23619
847.701	23882
847.837	23444
847.972	23345
848.108	23345
848.244	23463
848.379	23376
848.515	23337
848.65	23292
848.786	23204
848.921	23372
849.057	23455
849.192	23360
849.328	23379
849.463	23379
849.598	23239
849.734	23102
849.869	23193
850.004	23022
850.14	22957
850.275	23048
850.41	23052
850.545	22987
850.68	22953
850.815	23044
850.95	23041
851.085	23193
851.22	23037
851.355	23037
851.49	23075
851.625	23060
851.76	22984
851.895	23048
852.03	22930
852.165	23113
852.299	22972
852.434	23124
852.569	23079
852.703	22911
852.838	23067
852.973	23098
853.107	23174
853.242	23037
853.376	22862
853.511	22660
853.645	22858
853.78	23003
853.914	22847
854.048	22801
854.183	22866
854.317	22843
854.451	23003
854.585	22866
854.72	22763
854.854	22987
854.988	22847
855.122	22919
855.256	22733
855.39	22877
855.524	22896
855.658	22866
855.792	22847
855.926	22873
856.06	22915
856.194	22919
856.327	22885
856.461	22786
856.595	22759
856.729	22843
856.862	22835
856.996	22816
857.13	22942
857.263	23025
857.397	22892
857.53	22892
857.664	22957
857.797	22946
857.931	22843
858.064	22858
858.197	23025
858.331	22816
858.464	22805
858.597	22740
858.731	22824
858.864	22713
858.997	22908
859.13	22786
859.263	22847
859.396	22984
859.529	22767
859.662	22816
859.795	22839
859.928	22850
860.061	23014
860.194	23109
860.327	22934
860.46	22824
860.592	23064
860.725	23010
860.858	22866
860.99	22824
861.123	22755
861.256	22885
861.388	22877
861.521	23482
861.653	22603
861.786	22641
861.918	22721
862.05	22778
862.183	22805
862.315	22831
862.447	22858
862.58	22748
862.712	22561
862.844	22500
862.976	22527
863.108	22584
863.24	23044
863.372	22497
863.504	22645
863.636	22489
863.768	22584
863.9	22580
864.032	22577
864.164	22478
864.296	22504
864.428	22637
864.559	22607
864.691	22531
864.823	22649
864.954	22527
865.086	22538
865.217	22432
865.349	22402
865.48	22261
865.612	22413
865.743	22561
865.875	22493
866.006	22409
866.137	22382
866.269	22497
866.4	22405
866.531	22455
866.662	22375
866.793	22443
866.924	22337
867.055	22333
867.186	22310
867.317	22363
867.448	22116
867.579	22234
867.71	22257
867.841	22287
867.972	22402
868.103	22261
868.233	22284
868.364	22386
868.495	22421
868.625	22561
868.756	22729
868.886	22557
869.017	22611
869.147	22618
869.278	22592
869.408	22694
869.539	22645
869.669	22626
869.799	22649
869.929	22729
870.06	22721
870.19	22908
870.32	22957
870.45	22987
870.58	22896
870.71	22965
870.84	23193
870.97	22946
871.1	23025
871.23	23128
871.36	23231
871.489	23102
871.619	23102
871.749	23029
871.879	23193
872.008	23292
872.138	23299
872.267	23162
872.397	23128
872.526	23025
872.656	23067
872.785	23037
872.915	23231
873.044	23280
873.173	23204
873.303	23124
873.432	23242
873.561	23189
873.69	23353
873.819	23128
873.948	23242
874.077	23379
874.206	23197
874.335	23086
874.464	23341
874.593	23387
874.722	23376
874.851	23452
874.979	23490
875.108	23459
875.237	23315
875.365	23212
875.494	23425
875.623	23463
875.751	23478
875.88	23315
876.008	23512
876.136	23509
876.265	23802
876.393	23939
876.521	23843
876.65	23923
876.778	23775
876.906	23779
877.034	23767
877.162	23817
877.29	23802
877.418	23786
877.546	23828
877.674	23813
877.802	23726
877.93	23661
878.058	23619
878.185	23657
878.313	23733
878.441	23737
878.568	23452
878.696	23596
878.824	23779
878.951	23889
879.079	23843
879.206	23961
879.333	23969
879.461	23707
879.588	23802
879.715	23935
879.842	24167
879.97	23809
880.097	23585
880.224	23455
880.351	23570
880.478	23585
880.605	23467
880.732	23577
880.859	23695
880.986	23657
881.112	23539
881.239	23440
881.366	23227
881.493	23102
881.619	23204
881.746	23143
881.872	23079
881.999	23102
882.125	23200
882.252	23159
882.378	23052
882.505	23075
882.631	22968
882.757	22805
882.883	22812
883.01	22702
883.136	22706
883.262	22611
883.388	22580
883.514	22892
883.64	22828
883.766	22580
883.892	22664
884.018	22615
884.143	22588
884.269	22755
884.395	22588
884.52	22508
884.646	22508
884.772	22386
884.897	22234
885.023	22580
885.148	22516
885.274	22538
885.399	22485
885.524	22497
885.65	22382
885.775	22550
885.9	22413
886.025	22561
886.15	22481
886.275	22481
886.4	22314
886.525	22318
886.65	22428
886.775	22299
886.9	22527
887.025	22596
887.149	22337
887.274	22291
887.399	22040
887.523	22204
887.648	22055
887.773	21987
887.897	22303
888.021	22306
888.146	21998
888.27	22200
888.395	22242
888.519	22128
888.643	22287
888.767	22128
888.891	22070
889.015	22154
889.139	22002
889.263	21918
889.387	22070
889.511	22166
889.635	21960
889.759	21979
889.883	22036
890.006	22010
890.13	22010
890.254	21842
890.377	21869
890.501	21667
890.624	21633
890.748	21793
890.871	21633
890.995	21435
891.118	21507
891.241	21363
891.364	21504
891.488	21671
891.611	21538
891.734	21564
891.857	21625
891.98	21477
892.103	21557
892.226	21405
892.349	21519
892.471	21298
892.594	21367
892.717	21481
892.839	21374
892.962	21431
893.085	21462
893.207	21431
893.33	21275
893.452	21176
893.575	21382
893.697	21431
893.819	21561
893.941	21542
894.064	21530
894.186	21332
894.308	21203
894.43	21469
894.552	21576
894.674	21492
894.796	21241
894.918	21340
895.04	21252
895.161	21458
895.283	21458
895.405	21431
895.526	21313
895.648	21325
895.769	21340
895.891	21386
896.012	21393
896.134	21523
896.255	21321
896.376	21283
896.498	21382
896.619	21416
896.74	21405
896.861	21340
896.982	21690
897.103	21732
897.224	21576
897.345	21431
897.466	21466
897.587	21485
897.708	21614
897.828	21523
897.949	21500
898.07	21256
898.19	21485
898.311	21583
898.431	21462
898.552	21564
898.672	21690
898.792	21652
898.913	21545
899.033	21416
899.153	21450
899.273	21260
899.393	21264
899.513	21386
899.633	21412
899.753	21249
899.873	21135
899.993	21207
900.113	21161
900.232	21188
900.352	21249
900.472	21058
900.591	20914
900.711	21074
900.83	21104
900.95	21218
901.069	21249
901.189	20937
901.308	20815
901.427	20609
901.546	20651
901.665	20667
901.784	20629
901.904	20454
902.023	20412
902.141	20172
902.26	20218
902.379	20111
902.498	20183
902.617	20088
902.735	20187
902.854	20008
902.973	20043
903.091	19871
903.21	19708
903.328	19712
903.446	19712
903.565	19537
903.683	19609
903.801	19453
903.919	19658
904.038	19491
904.156	19354
904.274	19354
904.392	19263
904.51	19346
904.627	19266
904.745	19350
904.863	19343
904.981	19095
905.098	18958
905.216	18913
905.334	19046
905.451	18981
905.569	18939
905.686	18947
905.803	18871
905.921	18738
906.038	18814
906.155	18681
906.272	18719
906.389	18688
906.506	18563
906.623	18521
906.74	18467
906.857	18429
906.974	18513
907.091	18620
907.208	18654
907.324	18566
907.441	18570
907.557	18205
907.674	18247
907.79	18182
907.907	18159
908.023	18163
908.139	18220
908.256	18163
908.372	17988
908.488	18060
908.604	17920
908.72	17950
908.836	17855
908.952	17999
909.068	17999
909.184	18095
909.3	17836
909.415	17866
909.531	17855
909.647	17657
909.762	17665
909.878	17657
909.993	17646
910.108	17589
910.224	17547
910.339	17581
910.454	17478
910.57	17452
910.685	17398
910.8	17611
910.915	17604
911.03	17383
911.145	17208
911.259	17227
911.374	17223
911.489	17086
911.604	17045
911.718	17052
911.833	16854
911.947	16771
912.062	16858
912.176	16900
912.291	16866
912.405	17010
912.519	17056
912.633	17181
912.748	16904
912.862	16858
912.976	16691
913.09	16660
913.204	16668
913.318	16664
913.431	16752
913.545	16786
913.659	16805
913.772	16607
913.886	16599
914	16599
914.113	16554
914.226	16615
914.34	16577
914.453	16386
914.566	16531
914.68	16409
914.793	16352
914.906	16150
915.019	16029
915.132	16063
915.245	15998
915.358	16185
915.47	16074
915.583	16112
915.696	16097
915.809	16276
915.921	16150
916.034	16097
916.146	15991
916.259	15911
916.371	15979
916.483	15972
916.595	15922
916.708	15903
916.82	15915
916.932	15861
917.044	15895
917.156	15842
917.268	15717
917.38	15778
917.491	15671
917.603	15713
917.715	15804
917.826	15888
917.938	15561
918.049	15561
918.161	15774
918.272	15698
918.384	15789
918.495	15492
918.606	15557
918.717	15313
918.828	15515
918.939	15443
919.05	15363
919.161	15344
919.272	15294
919.383	15256
919.494	15485
919.604	15690
919.715	15397
919.826	15332
919.936	15340
920.047	15462
920.157	15412
920.267	15595
920.378	15412
920.488	15389
920.598	15545
920.708	15720
920.818	15367
920.928	15519
921.038	15656
921.148	15561
921.258	15431
921.368	15283
921.477	15127
921.587	15085
921.697	14933
921.806	15146
921.916	14899
922.025	14769
922.134	14788
922.244	14686
922.353	14697
922.462	14689
922.571	14575
922.68	14389
922.789	14301
922.898	14385
923.007	14294
923.116	14408
923.224	14396
923.333	14275
923.442	14202
923.55	14164
923.659	14240
923.767	14248
923.876	14027
923.984	14210
924.092	14001
924.201	14248
924.309	14043
924.417	13955
924.525	13993
924.633	14012
924.741	14963
924.849	13727
924.956	13902
925.064	13780
925.172	13658
925.279	13811
925.387	13761
925.494	13772
925.602	13814
925.709	13719
925.816	13594
925.924	13651
926.031	13807
926.138	13639
926.245	13666
926.352	13590
926.459	13780
926.566	13833
926.673	13655
926.779	13449
926.886	13464
926.993	13400
927.099	13346
927.206	13289
927.312	13278
927.419	13263
927.525	13225
927.631	13304
927.737	13255
927.843	13099
927.95	12958
928.056	13103
928.162	13069
928.267	13118
928.373	13609
928.479	13221
928.585	12920
928.69	13012
928.796	13110
928.901	12943
929.007	12829
929.112	12924
929.218	12932
929.323	12924
929.428	12734
929.533	12913
929.638	12681
929.743	12814
929.848	12688
929.953	12669
930.058	12639
930.163	12559
930.267	12544
930.372	12551
930.477	12448
930.581	12639
930.685	12502
930.79	12308
930.894	12399
930.998	12270
931.103	12456
931.207	11977
931.311	11988
931.415	11885
931.519	11657
931.623	11703
