Data from test_V78500241_3047.txt Node
Date: Fri Mar 25 16:02:54 CST 2022
User: usil
Spectrometer: V785-0024
Trigger mode: 0
Integration Time (sec): 4.000000E-1
Scans to average: 1
Nonlinearity correction enabled: false
Boxcar width: 0
Storing dark spectrum: false
XAxis mode: Wavelengths
Number of Pixels in Spectrum: 1024
>>>>>Begin Spectral Data<<<<<
801.071	28139
801.214	28166
801.356	27873
801.499	27865
801.641	27698
801.783	27934
801.926	27789
802.068	27724
802.211	27637
802.353	27679
802.496	27382
802.638	27382
802.78	27378
802.923	27340
803.065	27321
803.208	27424
803.35	27519
803.492	27625
803.635	27610
803.777	27568
803.919	27705
804.061	27987
804.204	27599
804.346	27507
804.488	27629
804.63	27682
804.773	27523
804.915	27709
805.057	27895
805.199	27667
805.341	27686
805.483	27720
805.626	27759
805.768	27557
805.91	27762
806.052	27682
806.194	27698
806.336	28006
806.478	27808
806.62	27739
806.762	27953
806.904	27945
807.046	28238
807.188	28169
807.33	28147
807.472	28177
807.614	28150
807.756	28097
807.898	28120
808.04	28120
808.182	27876
808.324	27979
808.465	28067
808.607	28181
808.749	28371
808.891	28630
809.033	28607
809.174	28588
809.316	28413
809.458	28325
809.6	28409
809.741	28459
809.883	28535
810.025	28820
810.166	28752
810.308	28717
810.45	28721
810.591	28759
810.733	28443
810.875	28432
811.016	28219
811.158	28356
811.299	28603
811.441	28508
811.582	28687
811.724	28622
811.865	28348
812.007	28508
812.148	28443
812.29	28577
812.431	28626
812.573	28672
812.714	28763
812.855	28999
812.997	29121
813.138	29151
813.279	29025
813.421	28934
813.562	28888
813.703	28831
813.845	28687
813.986	28341
814.127	28337
814.268	28116
814.41	28040
814.551	28124
814.692	28207
814.833	28101
814.974	28109
815.115	28147
815.256	28040
815.397	28082
815.539	28032
815.68	27972
815.821	27831
815.962	27854
816.103	27857
816.244	27732
816.385	27736
816.526	27709
816.666	27481
816.807	27439
816.948	27572
817.089	27458
817.23	27469
817.371	27386
817.512	27458
817.653	27545
817.793	27279
817.934	27431
818.075	27420
818.216	27439
818.356	27397
818.497	27325
818.638	27169
818.778	27161
818.919	27230
819.06	27241
819.2	27359
819.341	27416
819.481	27313
819.622	27656
819.762	27778
819.903	27732
820.043	27663
820.184	27622
820.324	27572
820.465	27587
820.605	27561
820.746	27462
820.886	27469
821.026	27477
821.167	27310
821.307	27553
821.447	27405
821.588	27439
821.728	27283
821.868	27058
822.008	26899
822.149	26910
822.289	26979
822.429	26667
822.569	26651
822.709	26571
822.849	26320
822.99	26575
823.13	26351
823.27	26328
823.41	26191
823.55	26187
823.69	26210
823.83	26313
823.97	26195
824.11	26065
824.25	26065
824.389	26043
824.529	26221
824.669	26039
824.809	26191
824.949	26164
825.089	26275
825.228	25940
825.368	25852
825.508	25951
825.648	25951
825.787	25902
825.927	26084
826.067	25833
826.206	25849
826.346	25871
826.485	26001
826.625	25974
826.765	26183
826.904	25944
827.044	25693
827.183	25761
827.323	25830
827.462	25780
827.601	25685
827.741	25624
827.88	25715
828.02	25567
828.159	25632
828.298	25666
828.437	25750
828.577	25571
828.716	25704
828.855	25651
828.994	25343
829.134	25362
829.273	25388
829.412	25358
829.551	25346
829.69	25282
829.829	25354
829.968	25491
830.107	25449
830.246	25426
830.385	25487
830.524	25312
830.663	25141
830.802	25175
830.941	24962
831.08	24958
831.219	25072
831.357	25027
831.496	25236
831.635	24970
831.774	24871
831.913	24890
832.051	24715
832.19	24669
832.329	24715
832.467	24692
832.606	24631
832.744	24639
832.883	24597
833.022	24563
833.16	24722
833.299	24738
833.437	24635
833.576	24802
833.714	24661
833.852	24749
833.991	24776
834.129	24886
834.267	24829
834.406	24791
834.544	24776
834.682	24768
834.821	24745
834.959	24764
835.097	24597
835.235	24791
835.373	24589
835.511	24604
835.65	24528
835.788	24574
835.926	24342
836.064	24388
836.202	24372
836.34	24509
836.478	24681
836.615	24540
836.753	24608
836.891	24536
837.029	24369
837.167	24532
837.305	24388
837.443	24452
837.58	24441
837.718	24418
837.856	24285
837.993	24395
838.131	24357
838.269	24277
838.406	24311
838.544	24235
838.681	24030
838.819	23988
838.956	23870
839.094	23840
839.231	23832
839.369	24034
839.506	24308
839.643	24140
839.781	23710
839.918	23821
840.055	23661
840.193	23840
840.33	23733
840.467	23832
840.604	23832
840.742	24045
840.879	23585
841.016	23729
841.153	23665
841.29	23889
841.427	23668
841.564	23729
841.701	23745
841.838	23608
841.975	23638
842.112	23661
842.249	23596
842.385	23638
842.522	23748
842.659	23524
842.796	23410
842.933	23516
843.069	23425
843.206	23429
843.343	23562
843.479	23516
843.616	23417
843.752	23254
843.889	23273
844.025	23349
844.162	23212
844.298	23356
844.435	23402
844.571	23220
844.708	23280
844.844	23421
844.98	23444
845.117	23307
845.253	23303
845.389	23170
845.525	23231
845.661	23132
845.798	23086
845.934	23098
846.07	22949
846.206	22908
846.342	23193
846.478	23014
846.614	22877
846.75	22755
846.886	22790
847.022	22774
847.158	22744
847.294	22691
847.429	22873
847.565	22782
847.701	22949
847.837	22516
847.972	22402
848.108	22668
848.244	22538
848.379	22360
848.515	22352
848.65	22291
848.786	22257
848.921	22318
849.057	22588
849.192	22375
849.328	22344
849.463	22535
849.598	22344
849.734	22158
849.869	22109
850.004	22002
850.14	22257
850.275	22025
850.41	21998
850.545	22124
850.68	22029
850.815	22055
850.95	22093
851.085	22276
851.22	22185
851.355	22128
851.49	22090
851.625	21922
851.76	22013
851.895	22036
852.03	22067
852.165	21994
852.299	22200
852.434	22093
852.569	22128
852.703	22025
852.838	22101
852.973	22238
853.107	22181
853.242	22010
853.376	22051
853.511	21854
853.645	21994
853.78	21918
853.914	22032
854.048	21888
854.183	21987
854.317	21998
854.451	22131
854.585	21918
854.72	22063
854.854	21895
854.988	21884
855.122	21922
855.256	21720
855.39	21892
855.524	21983
855.658	22006
855.792	22036
855.926	22006
856.06	22002
856.194	21861
856.327	21888
856.461	21823
856.595	21835
856.729	21842
856.862	22059
856.996	21895
857.13	22025
857.263	22074
857.397	22029
857.53	21884
857.664	21972
857.797	22036
857.931	22070
858.064	21945
858.197	22112
858.331	21770
858.464	21823
858.597	21808
858.731	21926
858.864	21937
858.997	21918
859.13	21991
859.263	21895
859.396	21941
859.529	21873
859.662	21899
859.795	21793
859.928	21915
860.061	22044
860.194	22078
860.327	21960
860.46	21953
860.592	21998
860.725	22017
860.858	22017
860.99	21956
861.123	21823
861.256	21838
861.388	22040
861.521	22748
861.653	21766
861.786	21736
861.918	21709
862.05	21789
862.183	21880
862.315	21823
862.447	21975
862.58	21793
862.712	21660
862.844	21557
862.976	21778
863.108	21671
863.24	22090
863.372	21610
863.504	21667
863.636	21538
863.768	21648
863.9	21656
864.032	21622
864.164	21698
864.296	21568
864.428	21800
864.559	21663
864.691	21717
864.823	21720
864.954	21580
865.086	21656
865.217	21545
865.349	21370
865.48	21473
865.612	21492
865.743	21667
865.875	21504
866.006	21405
866.137	21507
866.269	21542
866.4	21355
866.531	21473
866.662	21485
866.793	21545
866.924	21378
867.055	21435
867.186	21420
867.317	21420
867.448	21298
867.579	21351
867.71	21408
867.841	21336
867.972	21504
868.103	21443
868.233	21370
868.364	21420
868.495	21549
868.625	21728
868.756	21713
868.886	21557
869.017	21732
869.147	21774
869.278	21785
869.408	21629
869.539	21743
869.669	21755
869.799	21690
869.929	21747
870.06	21823
870.19	22059
870.32	22002
870.45	22013
870.58	22169
870.71	22154
870.84	22204
870.97	22082
871.1	22143
871.23	22337
871.36	22257
871.489	22166
871.619	22253
871.749	22356
871.879	22367
872.008	22443
872.138	22306
872.267	22226
872.397	22128
872.526	22196
872.656	22124
872.785	22143
872.915	22200
873.044	22367
873.173	22257
873.303	22459
873.432	22428
873.561	22341
873.69	22272
873.819	22257
873.948	22257
874.077	22322
874.206	22257
874.335	22200
874.464	22451
874.593	22535
874.722	22478
874.851	22596
874.979	22569
875.108	22607
875.237	22474
875.365	22447
875.494	22557
875.623	22626
875.751	22542
875.88	22527
876.008	22687
876.136	22740
876.265	22984
876.393	22980
876.521	22995
876.65	23083
876.778	22968
876.906	22828
877.034	22759
877.162	22824
877.29	22858
877.418	22908
877.546	22869
877.674	22752
877.802	22828
877.93	22911
878.058	22778
878.185	22812
878.313	22862
878.441	22850
878.568	22797
878.696	22915
878.824	22991
878.951	23094
879.079	23056
879.206	23258
879.333	23044
879.461	22934
879.588	22968
879.715	23022
879.842	23261
879.97	23037
880.097	22672
880.224	22664
880.351	22805
880.478	22786
880.605	22691
880.732	22656
880.859	22858
880.986	22675
881.112	22824
881.239	22557
881.366	22542
881.493	22394
881.619	22185
881.746	22398
881.872	22242
881.999	22280
882.125	22238
882.252	22310
882.378	22223
882.505	22200
882.631	22135
882.757	21926
882.883	22124
883.01	22067
883.136	21888
883.262	21755
883.388	21876
883.514	21937
883.64	21907
883.766	21812
883.892	21797
884.018	21698
884.143	21770
884.269	21949
884.395	21587
884.52	21492
884.646	21515
884.772	21511
884.897	21568
885.023	21549
885.148	21682
885.274	21728
885.399	21675
885.524	21629
885.65	21633
885.775	21618
885.9	21625
886.025	21656
886.15	21709
886.275	21587
886.4	21500
886.525	21583
886.65	21485
886.775	21469
886.9	21633
887.025	21679
887.149	21492
887.274	21321
887.399	21313
887.523	21526
887.648	21256
887.773	21249
887.897	21439
888.021	21268
888.146	21355
888.27	21431
888.395	21549
888.519	21401
888.643	21382
888.767	21351
888.891	21275
889.015	21176
889.139	21329
889.263	21176
889.387	21294
889.511	21283
889.635	21226
889.759	21055
889.883	21131
890.006	21066
890.13	21226
890.254	21058
890.377	21127
890.501	20925
890.624	20914
890.748	20918
890.871	20724
890.995	20701
891.118	20678
891.241	20727
891.364	20743
891.488	20750
891.611	20678
891.734	20701
891.857	20777
891.98	20754
892.103	20678
892.226	20594
892.349	20644
892.471	20533
892.594	20530
892.717	20686
892.839	20598
892.962	20598
893.085	20636
893.207	20541
893.33	20446
893.452	20511
893.575	20701
893.697	20621
893.819	20739
893.941	20609
894.064	20701
894.186	20617
894.308	20480
894.43	20659
894.552	20655
894.674	20678
894.796	20495
894.918	20773
895.04	20575
895.161	20526
895.283	20590
895.405	20568
895.526	20579
895.648	20659
895.769	20537
895.891	20609
896.012	20583
896.134	20674
896.255	20644
896.376	20571
896.498	20480
896.619	20678
896.74	20651
896.861	20552
896.982	21051
897.103	21055
897.224	20781
897.345	20670
897.466	20769
897.587	20826
897.708	20921
897.828	20819
897.949	20781
898.07	20613
898.19	20708
898.311	20819
898.431	20712
898.552	20868
898.672	20720
898.792	20880
898.913	20735
899.033	20739
899.153	20511
899.273	20541
899.393	20526
899.513	20556
899.633	20568
899.753	20408
899.873	20492
899.993	20499
900.113	20499
900.232	20587
900.352	20370
900.472	20438
900.591	20294
900.711	20339
900.83	20317
900.95	20358
901.069	20381
901.189	20115
901.308	19982
901.427	19826
901.546	19947
901.665	19982
901.784	19887
901.904	19772
902.023	19628
902.141	19518
902.26	19411
902.379	19514
902.498	19282
902.617	19293
902.735	19403
902.854	19403
902.973	19259
903.091	19061
903.21	19065
903.328	19053
903.446	19038
903.565	19099
903.683	18837
903.801	18734
903.919	18753
904.038	18875
904.156	18536
904.274	18578
904.392	18532
904.51	18570
904.627	18631
904.745	18722
904.863	18681
904.981	18486
905.098	18327
905.216	18247
905.334	18403
905.451	18319
905.569	18270
905.686	18338
905.803	18235
905.921	18034
906.038	18281
906.155	18079
906.272	18041
906.389	17920
906.506	17980
906.623	17745
906.74	17889
906.857	17592
906.974	17756
907.091	17863
907.208	17798
907.324	17836
907.441	17741
907.557	17543
907.674	17535
907.79	17372
907.907	17608
908.023	17467
908.139	17528
908.256	17455
908.372	17505
908.488	17414
908.604	17250
908.72	17220
908.836	17280
908.952	17105
909.068	17261
909.184	17311
909.3	17315
909.415	17345
909.531	17197
909.647	16957
909.762	17014
909.878	16919
909.993	17006
910.108	16915
910.224	16915
910.339	17014
910.454	16843
910.57	16847
910.685	16736
910.8	16904
910.915	16915
911.03	16839
911.145	16698
911.259	16550
911.374	16592
911.489	16474
911.604	16417
911.718	16348
911.833	16303
911.947	16230
912.062	16112
912.176	16272
912.291	16348
912.405	16299
912.519	16390
912.633	16538
912.748	16268
912.862	16215
912.976	16101
913.09	16051
913.204	16036
913.318	16109
913.431	16120
913.545	16109
913.659	16128
913.772	15979
913.886	15907
914	15892
914.113	15857
914.226	15876
914.34	15907
914.453	15785
914.566	15949
914.68	15831
914.793	15797
914.906	15526
915.019	15469
915.132	15469
915.245	15545
915.358	15439
915.47	15389
915.583	15511
915.696	15561
915.809	15663
915.921	15682
916.034	15526
916.146	15401
916.259	15405
916.371	15382
916.483	15397
916.595	15321
916.708	15370
916.82	15272
916.932	15306
917.044	15287
917.156	15230
917.268	15199
917.38	15180
917.491	15093
917.603	15028
917.715	15245
917.826	15306
917.938	15081
918.049	15017
918.161	15138
918.272	15283
918.384	15150
918.495	15020
918.606	14876
918.717	14769
918.828	14906
918.939	14914
919.05	14773
919.161	14811
919.272	14648
919.383	14785
919.494	14845
919.604	15055
919.715	14838
919.826	14792
919.936	14743
920.047	14857
920.157	14895
920.267	15013
920.378	14868
920.488	14765
920.598	14876
920.708	15195
920.818	14933
920.928	15039
921.038	15077
921.148	14994
921.258	14815
921.368	14693
921.477	14533
921.587	14632
921.697	14412
921.806	14590
921.916	14457
922.025	14282
922.134	14123
922.244	14134
922.353	14240
922.462	14153
922.571	14039
922.68	13902
922.789	13898
922.898	13849
923.007	13738
923.116	13864
923.224	13746
923.333	13765
923.442	13700
923.55	13651
923.659	13704
923.767	13780
923.876	13582
923.984	13769
924.092	13499
924.201	13556
924.309	13655
924.417	13594
924.525	13365
924.633	13491
924.741	14336
924.849	13308
924.956	13537
925.064	13308
925.172	13168
925.279	13244
925.387	13240
925.494	13232
925.602	13304
925.709	13209
925.816	13175
925.924	13259
926.031	13278
926.138	13160
926.245	13308
926.352	12973
926.459	13122
926.566	13228
926.673	13091
926.779	12962
926.886	13015
926.993	12814
927.099	12772
927.206	12806
927.312	12757
927.419	12878
927.525	12821
927.631	12719
927.737	12745
927.843	12616
927.95	12521
928.056	12547
928.162	12722
928.267	12753
928.373	13278
928.479	12669
928.585	12490
928.69	12528
928.796	12707
928.901	12551
929.007	12327
929.112	12498
929.218	12429
929.323	12372
929.428	12361
929.533	12410
929.638	12330
929.743	12330
929.848	12304
929.953	12262
930.058	12129
930.163	12049
930.267	11935
930.372	12175
930.477	11935
930.581	12190
930.685	12019
930.79	11973
930.894	11923
930.998	11752
931.103	11946
931.207	11729
931.311	11619
931.415	11482
931.519	11292
931.623	11239
