Data from test_V78500241_533.txt Node
Date: Fri Mar 25 15:45:29 CST 2022
User: usil
Spectrometer: V785-0024
Trigger mode: 0
Integration Time (sec): 4.000000E-1
Scans to average: 1
Nonlinearity correction enabled: false
Boxcar width: 0
Storing dark spectrum: false
XAxis mode: Wavelengths
Number of Pixels in Spectrum: 1024
>>>>>Begin Spectral Data<<<<<
801.071	27880
801.214	27755
801.356	27530
801.499	27370
801.641	27264
801.783	27332
801.926	27329
802.068	27340
802.211	27351
802.353	27135
802.496	26921
802.638	27131
802.78	26929
802.923	26853
803.065	26880
803.208	26994
803.35	26876
803.492	27081
803.635	26998
803.777	27116
803.919	27249
804.061	27397
804.204	27135
804.346	27112
804.488	26967
804.63	27077
804.773	26929
804.915	27180
805.057	27108
805.199	27173
805.341	27222
805.483	27363
805.626	27176
805.768	27211
805.91	27260
806.052	27287
806.194	27173
806.336	27458
806.478	27252
806.62	27340
806.762	27336
806.904	27530
807.046	27770
807.188	27606
807.33	27580
807.472	27629
807.614	27720
807.756	27682
807.898	27526
808.04	27591
808.182	27595
808.324	27549
808.465	27686
808.607	27755
808.749	27846
808.891	27937
809.033	28040
809.174	28006
809.316	27945
809.458	28002
809.6	27991
809.741	28078
809.883	28097
810.025	28139
810.166	28188
810.308	28234
810.45	28044
810.591	28070
810.733	27739
810.875	27861
811.016	27812
811.158	27838
811.299	27922
811.441	27994
811.582	28139
811.724	27926
811.865	27709
812.007	27975
812.148	27918
812.29	27888
812.431	28215
812.573	28185
812.714	28303
812.855	28485
812.997	28519
813.138	28687
813.279	28599
813.421	28493
813.562	28443
813.703	28390
813.845	28162
813.986	27831
814.127	27671
814.268	27545
814.41	27576
814.551	27557
814.692	27762
814.833	27572
814.974	27557
815.115	27469
815.256	27500
815.397	27412
815.539	27580
815.68	27542
815.821	27264
815.962	27317
816.103	27351
816.244	27237
816.385	27104
816.526	27195
816.666	27077
816.807	26944
816.948	26921
817.089	27043
817.23	26838
817.371	26929
817.512	26773
817.653	26902
817.793	26746
817.934	26716
818.075	26910
818.216	26925
818.356	26651
818.497	26621
818.638	26674
818.778	26602
818.919	26556
819.06	26571
819.2	26617
819.341	26861
819.481	26849
819.622	27077
819.762	27218
819.903	27081
820.043	27085
820.184	26891
820.324	26891
820.465	26971
820.605	26994
820.746	27112
820.886	26876
821.026	26853
821.167	26963
821.307	26944
821.447	26800
821.588	26701
821.728	26606
821.868	26495
822.008	26320
822.149	26294
822.289	26377
822.429	26069
822.569	25932
822.709	25925
822.849	25780
822.99	25772
823.13	25761
823.27	25708
823.41	25681
823.55	25590
823.69	25833
823.83	25643
823.97	25540
824.11	25468
824.25	25274
824.389	25453
824.529	25552
824.669	25487
824.809	25586
824.949	25559
825.089	25487
825.228	25552
825.368	25377
825.508	25384
825.648	25304
825.787	25377
825.927	25350
826.067	25221
826.206	25381
826.346	25331
826.485	25316
826.625	25343
826.765	25392
826.904	25392
827.044	25126
827.183	24996
827.323	25012
827.462	25164
827.601	25050
827.741	24958
827.88	25027
828.02	24966
828.159	24989
828.298	25171
828.437	25122
828.577	24977
828.716	25050
828.855	24905
828.994	24749
829.134	24741
829.273	24734
829.412	24692
829.551	24700
829.69	24597
829.829	24661
829.968	24825
830.107	24726
830.246	24776
830.385	24616
830.524	24639
830.663	24616
830.802	24517
830.941	24361
831.08	24338
831.219	24452
831.357	24486
831.496	24490
831.635	24277
831.774	24285
831.913	24167
832.051	24209
832.19	24125
832.329	24106
832.467	23992
832.606	23813
832.744	23916
832.883	23984
833.022	23935
833.16	24022
833.299	24064
833.437	23863
833.576	24022
833.714	24041
833.852	24053
833.991	24098
834.129	24186
834.267	23942
834.406	24057
834.544	23969
834.682	24011
834.821	23996
834.959	24220
835.097	23946
835.235	24060
835.373	24064
835.511	24041
835.65	23992
835.788	23897
835.926	23786
836.064	23726
836.202	23745
836.34	23893
836.478	23935
836.615	23802
836.753	23923
836.891	24022
837.029	23908
837.167	23889
837.305	23729
837.443	23783
837.58	23634
837.718	23764
837.856	23691
837.993	23745
838.131	23794
838.269	23634
838.406	23634
838.544	23589
838.681	23395
838.819	23360
838.956	23159
839.094	23204
839.231	23318
839.369	23345
839.506	23573
839.643	23516
839.781	23181
839.918	23155
840.055	23197
840.193	23246
840.33	23041
840.467	23159
840.604	23143
840.742	23463
840.879	22923
841.016	23155
841.153	22904
841.29	23159
841.427	23128
841.564	23197
841.701	23159
841.838	23121
841.975	23041
842.112	23079
842.249	23037
842.385	22862
842.522	23083
842.659	23003
842.796	22702
842.933	22881
843.069	22885
843.206	22763
843.343	22866
843.479	22831
843.616	22831
843.752	22588
843.889	22736
844.025	22717
844.162	22649
844.298	22759
844.435	22786
844.571	22508
844.708	22672
844.844	22793
844.98	22767
845.117	22664
845.253	22504
845.389	22527
845.525	22611
845.661	22550
845.798	22421
845.934	22504
846.07	22295
846.206	22447
846.342	22557
846.478	22402
846.614	22139
846.75	22173
846.886	22158
847.022	22219
847.158	22067
847.294	22051
847.429	22074
847.565	22097
847.701	22348
847.837	21911
847.972	21823
848.108	21884
848.244	22025
848.379	21682
848.515	21800
848.65	21705
848.786	21675
848.921	21709
849.057	21743
849.192	21816
849.328	21861
849.463	21827
849.598	21648
849.734	21610
849.869	21580
850.004	21485
850.14	21443
850.275	21534
850.41	21321
850.545	21268
850.68	21439
850.815	21439
850.95	21530
851.085	21690
851.22	21675
851.355	21485
851.49	21424
851.625	21435
851.76	21477
851.895	21477
852.03	21500
852.165	21435
852.299	21568
852.434	21561
852.569	21511
852.703	21466
852.838	21496
852.973	21698
853.107	21599
853.242	21389
853.376	21325
853.511	21085
853.645	21195
853.78	21412
853.914	21359
854.048	21340
854.183	21173
854.317	21268
854.451	21386
854.585	21389
854.72	21230
854.854	21252
854.988	21237
855.122	21226
855.256	21222
855.39	21252
855.524	21408
855.658	21435
855.792	21329
855.926	21389
856.06	21382
856.194	21340
856.327	21214
856.461	21188
856.595	21218
856.729	21173
856.862	21382
856.996	21317
857.13	21313
857.263	21283
857.397	21431
857.53	21279
857.664	21420
857.797	21401
857.931	21454
858.064	21184
858.197	21321
858.331	21336
858.464	21207
858.597	21237
858.731	21249
858.864	21230
858.997	21222
859.13	21237
859.263	21306
859.396	21317
859.529	21268
859.662	21222
859.795	21264
859.928	21138
860.061	21466
860.194	21450
860.327	21313
860.46	21329
860.592	21473
860.725	21534
860.858	21313
860.99	21348
861.123	21211
861.256	21135
861.388	21214
861.521	21911
861.653	21116
861.786	21146
861.918	21024
862.05	21211
862.183	21233
862.315	21146
862.447	21226
862.58	21161
862.712	20925
862.844	20971
862.976	21028
863.108	21051
863.24	21538
863.372	20883
863.504	20921
863.636	21051
863.768	21001
863.9	21001
864.032	20994
864.164	20910
864.296	21085
864.428	21093
864.559	21081
864.691	21066
864.823	21077
864.954	20918
865.086	20941
865.217	20849
865.349	20777
865.48	20937
865.612	20834
865.743	21055
865.875	20929
866.006	20902
866.137	20933
866.269	20918
866.4	20785
866.531	20872
866.662	20781
866.793	20796
866.924	20891
867.055	20906
867.186	20804
867.317	20720
867.448	20697
867.579	20853
867.71	20838
867.841	20720
867.972	20754
868.103	20800
868.233	20819
868.364	20800
868.495	20963
868.625	21043
868.756	21203
868.886	21024
869.017	21154
869.147	21195
869.278	21279
869.408	21074
869.539	20967
869.669	21058
869.799	21150
869.929	21241
870.06	21207
870.19	21310
870.32	21317
870.45	21310
870.58	21420
870.71	21564
870.84	21454
870.97	21458
871.1	21458
871.23	21564
871.36	21751
871.489	21576
871.619	21603
871.749	21698
871.879	21644
872.008	21682
872.138	21675
872.267	21622
872.397	21557
872.526	21485
872.656	21492
872.785	21408
872.915	21629
873.044	21705
873.173	21698
873.303	21755
873.432	21679
873.561	21679
873.69	21553
873.819	21637
873.948	21705
874.077	21675
874.206	21778
874.335	21728
874.464	21759
874.593	21747
874.722	21781
874.851	21953
874.979	21907
875.108	21964
875.237	21907
875.365	21736
875.494	21888
875.623	21922
875.751	21876
875.88	21918
876.008	22029
876.136	22097
876.265	22299
876.393	22436
876.521	22306
876.65	22440
876.778	22280
876.906	22230
877.034	22333
877.162	22421
877.29	22166
877.418	22223
877.546	22185
877.674	22249
877.802	22173
877.93	22211
878.058	22249
878.185	22112
878.313	22154
878.441	22295
878.568	22219
878.696	22188
878.824	22291
878.951	22318
879.079	22519
879.206	22519
879.333	22405
879.461	22299
879.588	22451
879.715	22516
879.842	22577
879.97	22337
880.097	22143
880.224	22188
880.351	22090
880.478	22017
880.605	22040
880.732	22090
880.859	22318
880.986	22093
881.112	22162
881.239	22002
881.366	21789
881.493	21865
881.619	21656
881.746	21667
881.872	21614
881.999	21747
882.125	21572
882.252	21629
882.378	21629
882.505	21728
882.631	21439
882.757	21408
882.883	21477
883.01	21443
883.136	21294
883.262	21378
883.388	21218
883.514	21298
883.64	21507
883.766	21317
883.892	21169
884.018	21116
884.143	21325
884.269	21416
884.395	21104
884.52	20876
884.646	21047
884.772	20952
884.897	20895
885.023	21146
885.148	21093
885.274	21127
885.399	21093
885.524	20986
885.65	20975
885.775	21062
885.9	21036
886.025	21119
886.15	21233
886.275	20914
886.4	20918
886.525	21013
886.65	20929
886.775	21013
886.9	21089
887.025	21268
887.149	21028
887.274	20765
887.399	20746
887.523	20712
887.648	20705
887.773	20640
887.897	21009
888.021	20937
888.146	20754
888.27	20918
888.395	20845
888.519	20773
888.643	20861
888.767	20838
888.891	20705
889.015	20530
889.139	20655
889.263	20499
889.387	20689
889.511	20777
889.635	20792
889.759	20579
889.883	20587
890.006	20568
890.13	20560
890.254	20507
890.377	20469
890.501	20507
890.624	20290
890.748	20362
890.871	20138
890.995	20191
891.118	20088
891.241	20221
891.364	20206
891.488	20336
891.611	20195
891.734	20077
891.857	20244
891.98	20225
892.103	20107
892.226	20206
892.349	20130
892.471	19875
892.594	20081
892.717	20005
892.839	20065
892.962	20130
893.085	20218
893.207	20145
893.33	20054
893.452	20005
893.575	20050
893.697	20016
893.819	20313
893.941	20180
894.064	20164
894.186	20092
894.308	20008
894.43	20081
894.552	20161
894.674	20134
894.796	20031
894.918	20130
895.04	20119
895.161	20092
895.283	20122
895.405	20092
895.526	20046
895.648	20043
895.769	20035
895.891	20084
896.012	20050
896.134	20180
896.255	20168
896.376	20088
896.498	20107
896.619	20107
896.74	20054
896.861	20100
896.982	20473
897.103	20537
897.224	20396
897.345	20240
897.466	20244
897.587	20263
897.708	20370
897.828	20404
897.949	20195
898.07	20065
898.19	20233
898.311	20381
898.431	20195
898.552	20256
898.672	20461
898.792	20286
898.913	20408
899.033	20381
899.153	20111
899.273	20035
899.393	20005
899.513	20069
899.633	20024
899.753	20092
899.873	20027
899.993	20058
900.113	20073
900.232	19970
900.352	19875
900.472	19913
900.591	19883
900.711	19837
900.83	19723
900.95	19993
901.069	19936
901.189	19734
901.308	19438
901.427	19449
901.546	19403
901.665	19441
901.784	19441
901.904	19312
902.023	19213
902.141	19008
902.26	18920
902.379	18962
902.498	19008
902.617	18757
902.735	18920
902.854	18779
902.973	18856
903.091	18658
903.21	18665
903.328	18650
903.446	18433
903.565	18437
903.683	18418
903.801	18266
903.919	18346
904.038	18361
904.156	18106
904.274	18190
904.392	18171
904.51	18155
904.627	18007
904.745	18209
904.863	18216
904.981	18015
905.098	17927
905.216	17817
905.334	17904
905.451	17893
905.569	17859
905.686	17851
905.803	17809
905.921	17619
906.038	17680
906.155	17672
906.272	17562
906.389	17501
906.506	17421
906.623	17440
906.74	17322
906.857	17223
906.974	17292
907.091	17417
907.208	17482
907.324	17463
907.441	17280
907.557	17254
907.674	17170
907.79	17064
907.907	17010
908.023	17098
908.139	17155
908.256	17067
908.372	16976
908.488	16915
908.604	16850
908.72	16729
908.836	16797
908.952	16797
909.068	16862
909.184	16999
909.3	16809
909.415	16828
909.531	16725
909.647	16550
909.762	16542
909.878	16489
909.993	16470
910.108	16500
910.224	16478
910.339	16542
910.454	16367
910.57	16402
910.685	16348
910.8	16531
910.915	16565
911.03	16356
911.145	16143
911.259	16196
911.374	16063
911.489	16025
911.604	16078
911.718	15857
911.833	15846
911.947	15827
912.062	15694
912.176	15941
912.291	15804
912.405	15827
912.519	16120
912.633	16055
912.748	15876
912.862	15808
912.976	15717
913.09	15587
913.204	15629
913.318	15694
913.431	15797
913.545	15781
913.659	15766
913.772	15656
913.886	15584
914	15397
914.113	15553
914.226	15633
914.34	15591
914.453	15382
914.566	15477
914.68	15386
914.793	15287
914.906	15176
915.019	15142
915.132	14990
915.245	15100
915.358	15100
915.47	15154
915.583	15062
915.696	15173
915.809	15184
915.921	15226
916.034	15001
916.146	15032
916.259	14906
916.371	14971
916.483	15009
916.595	14941
916.708	14941
916.82	14948
916.932	14891
917.044	14826
917.156	14906
917.268	14716
917.38	14823
917.491	14724
917.603	14754
917.715	14902
917.826	14781
917.938	14678
918.049	14659
918.161	14594
918.272	14826
918.384	14834
918.495	14731
918.606	14495
918.717	14522
918.828	14511
918.939	14541
919.05	14408
919.161	14408
919.272	14298
919.383	14362
919.494	14526
919.604	14636
919.715	14480
919.826	14355
919.936	14473
920.047	14438
920.157	14476
920.267	14644
920.378	14511
920.488	14442
920.598	14629
920.708	14765
920.818	14632
920.928	14621
921.038	14838
921.148	14705
921.258	14385
921.368	14358
921.477	14225
921.587	14187
921.697	14043
921.806	14202
921.916	14039
922.025	13864
922.134	13833
922.244	13780
922.353	13864
922.462	13807
922.571	13696
922.68	13533
922.789	13422
922.898	13529
923.007	13373
923.116	13548
923.224	13381
923.333	13453
923.442	13464
923.55	13362
923.659	13388
923.767	13419
923.876	13225
923.984	13297
924.092	13251
924.201	13225
924.309	13282
924.417	13228
924.525	13221
924.633	13183
924.741	13890
924.849	12920
924.956	13110
925.064	13023
925.172	12814
925.279	12966
925.387	12973
925.494	12970
925.602	13027
925.709	12947
925.816	12833
925.924	12867
926.031	12973
926.138	12939
926.245	13042
926.352	12757
926.459	12886
926.566	12977
926.673	12798
926.779	12623
926.886	12764
926.993	12528
927.099	12437
927.206	12399
927.312	12513
927.419	12536
927.525	12486
927.631	12509
927.737	12399
927.843	12281
927.95	12270
928.056	12304
928.162	12281
928.267	12361
928.373	12989
928.479	12464
928.585	12068
928.69	12262
928.796	12296
928.901	12209
929.007	12030
929.112	12049
929.218	12140
929.323	12125
929.428	12045
929.533	12167
929.638	12019
929.743	12030
929.848	12087
929.953	11992
930.058	11859
930.163	11798
930.267	11832
930.372	11809
930.477	11691
930.581	11939
930.685	11805
930.79	11600
930.894	11676
930.998	11630
931.103	11779
931.207	11334
931.311	11307
931.415	11208
931.519	11094
931.623	10934
