Data from test_V78500241_1333.txt Node
Date: Fri Mar 25 15:51:02 CST 2022
User: usil
Spectrometer: V785-0024
Trigger mode: 0
Integration Time (sec): 4.000000E-1
Scans to average: 1
Nonlinearity correction enabled: false
Boxcar width: 0
Storing dark spectrum: false
XAxis mode: Wavelengths
Number of Pixels in Spectrum: 1024
>>>>>Begin Spectral Data<<<<<
801.071	28185
801.214	27922
801.356	27789
801.499	27759
801.641	27743
801.783	27679
801.926	27587
802.068	27675
802.211	27511
802.353	27488
802.496	27355
802.638	27211
802.78	27264
802.923	27249
803.065	27176
803.208	27195
803.35	27367
803.492	27408
803.635	27427
803.777	27477
803.919	27519
804.061	27808
804.204	27557
804.346	27439
804.488	27450
804.63	27553
804.773	27332
804.915	27549
805.057	27591
805.199	27443
805.341	27603
805.483	27618
805.626	27667
805.768	27633
805.91	27515
806.052	27644
806.194	27576
806.336	27918
806.478	27519
806.62	27660
806.762	27675
806.904	27884
807.046	28086
807.188	28002
807.33	27941
807.472	28207
807.614	28082
807.756	28013
807.898	27975
808.04	27846
808.182	27880
808.324	27911
808.465	27956
808.607	28044
808.749	28261
808.891	28401
809.033	28481
809.174	28413
809.316	28287
809.458	28401
809.6	28352
809.741	28379
809.883	28550
810.025	28611
810.166	28634
810.308	28660
810.45	28535
810.591	28516
810.733	28348
810.875	28215
811.016	28226
811.158	28185
811.299	28272
811.441	28432
811.582	28656
811.724	28306
811.865	28360
812.007	28257
812.148	28154
812.29	28356
812.431	28417
812.573	28519
812.714	28607
812.855	28755
812.997	28850
813.138	28976
813.279	28915
813.421	28885
813.562	28805
813.703	28611
813.845	28447
813.986	28272
814.127	28150
814.268	27987
814.41	28029
814.551	27972
814.692	27937
814.833	27907
814.974	27930
815.115	28048
815.256	27926
815.397	27793
815.539	27865
815.68	27838
815.821	27766
815.962	27759
816.103	27816
816.244	27595
816.385	27614
816.526	27530
816.666	27416
816.807	27241
816.948	27408
817.089	27408
817.23	27306
817.371	27279
817.512	27291
817.653	27348
817.793	27283
817.934	27195
818.075	27325
818.216	27264
818.356	27256
818.497	27192
818.638	27005
818.778	27028
818.919	27058
819.06	27051
819.2	27123
819.341	27344
819.481	27325
819.622	27336
819.762	27538
819.903	27507
820.043	27538
820.184	27321
820.324	27287
820.465	27504
820.605	27393
820.746	27340
820.886	27344
821.026	27393
821.167	27427
821.307	27481
821.447	27344
821.588	27199
821.728	27100
821.868	26902
822.008	26739
822.149	26804
822.289	26765
822.429	26648
822.569	26355
822.709	26431
822.849	26427
822.99	26358
823.13	26183
823.27	26248
823.41	26084
823.55	25944
823.69	26187
823.83	26214
823.97	25936
824.11	25871
824.25	25913
824.389	25909
824.529	26111
824.669	25978
824.809	26035
824.949	26081
825.089	26103
825.228	25879
825.368	25734
825.508	25750
825.648	25917
825.787	25875
825.927	25944
826.067	25746
826.206	25662
826.346	25788
826.485	25860
826.625	25780
826.765	25830
826.904	25932
827.044	25586
827.183	25567
827.323	25594
827.462	25419
827.601	25521
827.741	25590
827.88	25529
828.02	25411
828.159	25487
828.298	25575
828.437	25422
828.577	25533
828.716	25499
828.855	25518
828.994	25168
829.134	25187
829.273	25221
829.412	25183
829.551	25145
829.69	25278
829.829	25194
829.968	25225
830.107	25164
830.246	25152
830.385	24989
830.524	25084
830.663	24848
830.802	24947
830.941	24890
831.08	24779
831.219	24840
831.357	24981
831.496	24966
831.635	24749
831.774	24795
831.913	24673
832.051	24669
832.19	24582
832.329	24623
832.467	24441
832.606	24479
832.744	24433
832.883	24414
833.022	24399
833.16	24494
833.299	24578
833.437	24388
833.576	24521
833.714	24616
833.852	24639
833.991	24604
834.129	24612
834.267	24604
834.406	24437
834.544	24738
834.682	24536
834.821	24418
834.959	24730
835.097	24467
835.235	24540
835.373	24448
835.511	24536
835.65	24437
835.788	24376
835.926	24228
836.064	24247
836.202	24106
836.34	24445
836.478	24372
836.615	24304
836.753	24483
836.891	24445
837.029	24353
837.167	24308
837.305	24213
837.443	24311
837.58	24327
837.718	24121
837.856	24098
837.993	24201
838.131	24167
838.269	24186
838.406	23927
838.544	23859
838.681	23737
838.819	23897
838.956	23596
839.094	23684
839.231	23729
839.369	23851
839.506	24144
839.643	23992
839.781	23756
839.918	23699
840.055	23653
840.193	23604
840.33	23520
840.467	23596
840.604	23752
840.742	23821
840.879	23459
841.016	23665
841.153	23406
841.29	23653
841.427	23653
841.564	23668
841.701	23585
841.838	23490
841.975	23448
842.112	23406
842.249	23322
842.385	23395
842.522	23596
842.659	23520
842.796	23398
842.933	23372
843.069	23383
843.206	23250
843.343	23417
843.479	23414
843.616	23311
843.752	23227
843.889	23189
844.025	23318
844.162	22999
844.298	23208
844.435	23155
844.571	23143
844.708	23197
844.844	23277
844.98	23242
845.117	23235
845.253	22976
845.389	23064
845.525	23113
845.661	23010
845.798	22873
845.934	22862
846.07	22862
846.206	22892
846.342	22889
846.478	22904
846.614	22607
846.75	22592
846.886	22569
847.022	22630
847.158	22615
847.294	22733
847.429	22599
847.565	22386
847.701	22713
847.837	22306
847.972	22310
848.108	22402
848.244	22337
848.379	22204
848.515	22230
848.65	22223
848.786	22196
848.921	22090
849.057	22246
849.192	22284
849.328	22363
849.463	22070
849.598	22097
849.734	22082
849.869	22013
850.004	21926
850.14	22040
850.275	21953
850.41	21922
850.545	21816
850.68	21903
850.815	22051
850.95	21926
851.085	22158
851.22	22192
851.355	22021
851.49	21949
851.625	21842
851.76	21922
851.895	21816
852.03	21922
852.165	21926
852.299	21934
852.434	21991
852.569	21850
852.703	21899
852.838	22044
852.973	22044
853.107	22120
853.242	21869
853.376	21793
853.511	21629
853.645	21793
853.78	21831
853.914	21816
854.048	21755
854.183	21759
854.317	21755
854.451	21899
854.585	21812
854.72	21720
854.854	21838
854.988	21637
855.122	21892
855.256	21603
855.39	21690
855.524	21880
855.658	21861
855.792	21876
855.926	21789
856.06	21842
856.194	21926
856.327	21717
856.461	21701
856.595	21732
856.729	21846
856.862	21945
856.996	21743
857.13	21884
857.263	21850
857.397	21812
857.53	21789
857.664	21800
857.797	21762
857.931	21892
858.064	21781
858.197	21941
858.331	21622
858.464	21690
858.597	21629
858.731	21857
858.864	21755
858.997	21690
859.13	21622
859.263	21884
859.396	21854
859.529	21736
859.662	21587
859.795	21762
859.928	21823
860.061	21922
860.194	21953
860.327	21812
860.46	21831
860.592	21812
860.725	21880
860.858	21895
860.99	21797
861.123	21660
861.256	21766
861.388	21747
861.521	22470
861.653	21603
861.786	21492
861.918	21637
862.05	21656
862.183	21667
862.315	21751
862.447	21717
862.58	21766
862.712	21488
862.844	21435
862.976	21610
863.108	21469
863.24	21899
863.372	21492
863.504	21622
863.636	21561
863.768	21496
863.9	21473
864.032	21329
864.164	21538
864.296	21538
864.428	21641
864.559	21545
864.691	21572
864.823	21496
864.954	21595
865.086	21469
865.217	21382
865.349	21283
865.48	21325
865.612	21367
865.743	21466
865.875	21340
866.006	21340
866.137	21378
866.269	21424
866.4	21351
866.531	21302
866.662	21173
866.793	21287
866.924	21317
867.055	21348
867.186	21336
867.317	21302
867.448	21317
867.579	21401
867.71	21306
867.841	21214
867.972	21264
868.103	21260
868.233	21245
868.364	21249
868.495	21222
868.625	21561
868.756	21637
868.886	21576
869.017	21603
869.147	21732
869.278	21641
869.408	21564
869.539	21542
869.669	21591
869.799	21641
869.929	21709
870.06	21591
870.19	21888
870.32	21873
870.45	22032
870.58	21827
870.71	22067
870.84	22029
870.97	21816
871.1	21903
871.23	22070
871.36	22090
871.489	22090
871.619	22181
871.749	22139
871.879	22173
872.008	22261
872.138	22086
872.267	22150
872.397	21979
872.526	22010
872.656	22002
872.785	21907
872.915	22105
873.044	22192
873.173	22093
873.303	22211
873.432	22154
873.561	22181
873.69	22242
873.819	22185
873.948	22394
874.077	22128
874.206	22101
874.335	22196
874.464	22223
874.593	22432
874.722	22405
874.851	22440
874.979	22413
875.108	22310
875.237	22261
875.365	22272
875.494	22295
875.623	22291
875.751	22196
875.88	22455
876.008	22557
876.136	22592
876.265	22698
876.393	22919
876.521	22847
876.65	22774
876.778	22816
876.906	22729
877.034	22626
877.162	22668
877.29	22565
877.418	22637
877.546	22729
877.674	22778
877.802	22630
877.93	22596
878.058	22774
878.185	22569
878.313	22660
878.441	22763
878.568	22596
878.696	22584
878.824	22824
878.951	22691
879.079	22862
879.206	23044
879.333	22908
879.461	22778
879.588	22828
879.715	22831
879.842	23006
879.97	22835
880.097	22603
880.224	22497
880.351	22656
880.478	22649
880.605	22440
880.732	22508
880.859	22687
880.986	22618
881.112	22554
881.239	22443
881.366	22322
881.493	22185
881.619	22112
881.746	22124
881.872	22166
881.999	22090
882.125	21945
882.252	22226
882.378	22074
882.505	22128
882.631	21888
882.757	21895
882.883	21838
883.01	21953
883.136	21793
883.262	21743
883.388	21618
883.514	21907
883.64	21747
883.766	21717
883.892	21515
884.018	21694
884.143	21816
884.269	21819
884.395	21545
884.52	21363
884.646	21428
884.772	21382
884.897	21313
885.023	21431
885.148	21500
885.274	21568
885.399	21549
885.524	21477
885.65	21370
885.775	21469
885.9	21363
886.025	21606
886.15	21538
886.275	21332
886.4	21374
886.525	21454
886.65	21378
886.775	21359
886.9	21428
887.025	21709
887.149	21359
887.274	21230
887.399	21096
887.523	21218
887.648	21199
887.773	21142
887.897	21279
888.021	21203
888.146	21154
888.27	21382
888.395	21294
888.519	21268
888.643	21256
888.767	21211
888.891	21077
889.015	21043
889.139	21112
889.263	20937
889.387	21188
889.511	21203
889.635	21032
889.759	20982
889.883	21043
890.006	21096
890.13	21055
890.254	20902
890.377	20834
890.501	20918
890.624	20686
890.748	20883
890.871	20598
890.995	20484
891.118	20499
891.241	20571
891.364	20613
891.488	20644
891.611	20552
891.734	20568
891.857	20609
891.98	20617
892.103	20659
892.226	20560
892.349	20469
892.471	20415
892.594	20461
892.717	20499
892.839	20374
892.962	20621
893.085	20442
893.207	20476
893.33	20320
893.452	20396
893.575	20457
893.697	20370
893.819	20629
893.941	20640
894.064	20541
894.186	20495
894.308	20339
894.43	20427
894.552	20518
894.674	20465
894.796	20526
894.918	20514
895.04	20415
895.161	20583
895.283	20381
895.405	20317
895.526	20434
895.648	20552
895.769	20495
895.891	20507
896.012	20511
896.134	20358
896.255	20560
896.376	20347
896.498	20446
896.619	20526
896.74	20469
896.861	20571
896.982	20693
897.103	20838
897.224	20724
897.345	20606
897.466	20720
897.587	20697
897.708	20769
897.828	20693
897.949	20606
898.07	20415
898.19	20556
898.311	20849
898.431	20648
898.552	20712
898.672	20670
898.792	20674
898.913	20659
899.033	20545
899.153	20431
899.273	20366
899.393	20423
899.513	20530
899.633	20488
899.753	20457
899.873	20271
899.993	20442
900.113	20328
900.232	20317
900.352	20237
900.472	20210
900.591	20145
900.711	20271
900.83	20088
900.95	20267
901.069	20252
901.189	19947
901.308	19967
901.427	19784
901.546	19822
901.665	19727
901.784	19769
901.904	19582
902.023	19578
902.141	19400
902.26	19388
902.379	19407
902.498	19304
902.617	19278
902.735	19232
902.854	19255
902.973	19152
903.091	18966
903.21	18939
903.328	18894
903.446	18928
903.565	18814
903.683	18696
903.801	18707
903.919	18620
904.038	18703
904.156	18604
904.274	18604
904.392	18464
904.51	18395
904.627	18517
904.745	18509
904.863	18525
904.981	18251
905.098	18247
905.216	18174
905.334	18220
905.451	18277
905.569	18144
905.686	18258
905.803	18072
905.921	17950
906.038	18034
906.155	18034
906.272	17870
906.389	17912
906.506	17726
906.623	17714
906.74	17615
906.857	17562
906.974	17600
907.091	17813
907.208	17775
907.324	17767
907.441	17577
907.557	17448
907.674	17322
907.79	17353
907.907	17330
908.023	17379
908.139	17444
908.256	17315
908.372	17307
908.488	17307
908.604	17079
908.72	16991
908.836	17056
908.952	17105
909.068	17128
909.184	17258
909.3	17045
909.415	17231
909.531	17189
909.647	16797
909.762	16831
909.878	16847
909.993	16740
910.108	16877
910.224	16854
910.339	16740
910.454	16622
910.57	16679
910.685	16569
910.8	16911
910.915	16831
911.03	16672
911.145	16531
911.259	16443
911.374	16390
911.489	16314
911.604	16299
911.718	16211
911.833	16177
911.947	16097
912.062	16048
912.176	16246
912.291	16185
912.405	16177
912.519	16356
912.633	16398
912.748	16185
912.862	16120
912.976	16006
913.09	15831
913.204	15953
913.318	16017
913.431	16131
913.545	15994
913.659	16025
913.772	15892
913.886	15793
914	15671
914.113	15816
914.226	15861
914.34	15846
914.453	15766
914.566	15778
914.68	15591
914.793	15572
914.906	15511
915.019	15294
915.132	15306
915.245	15367
915.358	15340
915.47	15359
915.583	15351
915.696	15329
915.809	15511
915.921	15557
916.034	15408
916.146	15298
916.259	15222
916.371	15313
916.483	15241
916.595	15119
916.708	15066
916.82	15142
916.932	15085
917.044	15127
917.156	15150
917.268	15047
917.38	14914
917.491	14975
917.603	15058
917.715	15142
917.826	15150
917.938	14963
918.049	14861
918.161	15043
918.272	15192
918.384	15176
918.495	14933
918.606	14746
918.717	14701
918.828	14773
918.939	14754
919.05	14712
919.161	14777
919.272	14518
919.383	14640
919.494	14781
919.604	14956
919.715	14762
919.826	14651
919.936	14754
920.047	14845
920.157	14781
920.267	14944
920.378	14621
920.488	14583
920.598	14891
920.708	14982
920.818	14937
920.928	14838
921.038	14982
921.148	14937
921.258	14644
921.368	14655
921.477	14522
921.587	14461
921.697	14271
921.806	14442
921.916	14244
922.025	14138
922.134	14107
922.244	14065
922.353	14069
922.462	14065
922.571	13830
922.68	13803
922.789	13723
922.898	13750
923.007	13628
923.116	13788
923.224	13731
923.333	13704
923.442	13548
923.55	13613
923.659	13609
923.767	13689
923.876	13449
923.984	13586
924.092	13480
924.201	13556
924.309	13544
924.417	13472
924.525	13419
924.633	13445
924.741	14366
924.849	13084
924.956	13308
925.064	13126
925.172	13160
925.279	13149
925.387	13209
925.494	13114
925.602	13278
925.709	13263
925.816	13008
925.924	13156
926.031	13194
926.138	13160
926.245	13240
926.352	13023
926.459	13122
926.566	13107
926.673	12932
926.779	12897
926.886	12924
926.993	12741
927.099	12730
927.206	12665
927.312	12722
927.419	12806
927.525	12597
927.631	12700
927.737	12582
927.843	12475
927.95	12429
928.056	12475
928.162	12525
928.267	12517
928.373	13107
928.479	12692
928.585	12452
928.69	12532
928.796	12502
928.901	12380
929.007	12266
929.112	12445
929.218	12342
929.323	12285
929.428	12289
929.533	12346
929.638	12213
929.743	12167
929.848	12308
929.953	12182
930.058	12175
930.163	11889
930.267	11950
930.372	12114
930.477	11973
930.581	12148
930.685	11980
930.79	11847
930.894	11802
930.998	11771
931.103	11950
931.207	11539
931.311	11471
931.415	11436
931.519	11151
931.623	11208
