Data from test_V78500241_3530.txt Node
Date: Fri Mar 25 16:06:15 CST 2022
User: usil
Spectrometer: V785-0024
Trigger mode: 0
Integration Time (sec): 4.000000E-1
Scans to average: 1
Nonlinearity correction enabled: false
Boxcar width: 0
Storing dark spectrum: false
XAxis mode: Wavelengths
Number of Pixels in Spectrum: 1024
>>>>>Begin Spectral Data<<<<<
801.071	28968
801.214	28885
801.356	28805
801.499	28618
801.641	28615
801.783	28565
801.926	28554
802.068	28660
802.211	28519
802.353	28550
802.496	28329
802.638	28238
802.78	28261
802.923	28162
803.065	28219
803.208	28310
803.35	28284
803.492	28538
803.635	28478
803.777	28500
803.919	28546
804.061	28847
804.204	28656
804.346	28573
804.488	28459
804.63	28557
804.773	28531
804.915	28630
805.057	28634
805.199	28580
805.341	28664
805.483	28782
805.626	28831
805.768	28694
805.91	28736
806.052	28824
806.194	28565
806.336	28972
806.478	28748
806.62	28634
806.762	28942
806.904	29105
807.046	29258
807.188	29212
807.33	29086
807.472	29083
807.614	29117
807.756	29143
807.898	29075
808.04	29083
808.182	28972
808.324	28976
808.465	29174
808.607	29292
808.749	29341
808.891	29414
809.033	29596
809.174	29410
809.316	29402
809.458	29505
809.6	29318
809.741	29543
809.883	29551
810.025	29748
810.166	29775
810.308	29596
810.45	29672
810.591	29661
810.733	29493
810.875	29433
811.016	29425
811.158	29551
811.299	29463
811.441	29680
811.582	29646
811.724	29474
811.865	29634
812.007	29539
812.148	29482
812.29	29653
812.431	29615
812.573	29923
812.714	29916
812.855	30064
812.997	30114
813.138	30186
813.279	30060
813.421	29961
813.562	30057
813.703	29824
813.845	29623
813.986	29448
814.127	29315
814.268	29216
814.41	29208
814.551	29124
814.692	29254
814.833	28984
814.974	29246
815.115	29140
815.256	29052
815.397	29105
815.539	28987
815.68	28980
815.821	29079
815.962	28984
816.103	28900
816.244	28908
816.385	28790
816.526	28892
816.666	28512
816.807	28535
816.948	28504
817.089	28580
817.23	28516
817.371	28504
817.512	28447
817.653	28504
817.793	28489
817.934	28569
818.075	28523
818.216	28481
818.356	28519
818.497	28451
818.638	28261
818.778	28124
818.919	28268
819.06	28295
819.2	28325
819.341	28455
819.481	28459
819.622	28828
819.762	28805
819.903	28858
820.043	28626
820.184	28721
820.324	28698
820.465	28603
820.605	28694
820.746	28554
820.886	28573
821.026	28603
821.167	28622
821.307	28736
821.447	28485
821.588	28516
821.728	28394
821.868	28143
822.008	28051
822.149	27945
822.289	28055
822.429	27812
822.569	27739
822.709	27580
822.849	27462
822.99	27549
823.13	27629
823.27	27431
823.41	27329
823.55	27302
823.69	27408
823.83	27237
823.97	27214
824.11	27119
824.25	27161
824.389	27116
824.529	27275
824.669	27256
824.809	27260
824.949	27344
825.089	27260
825.228	27222
825.368	27058
825.508	27032
825.648	27020
825.787	27036
825.927	27119
826.067	27108
826.206	27013
826.346	27055
826.485	27047
826.625	27131
826.765	27028
826.904	27039
827.044	26956
827.183	26887
827.323	26621
827.462	27051
827.601	26739
827.741	26746
827.88	26758
828.02	26716
828.159	26735
828.298	26708
828.437	26845
828.577	26697
828.716	26857
828.855	26636
828.994	26453
829.134	26549
829.273	26473
829.412	26336
829.551	26396
829.69	26450
829.829	26389
829.968	26579
830.107	26434
830.246	26415
830.385	26438
830.524	26488
830.663	26355
830.802	26039
830.941	26111
831.08	26077
831.219	26107
831.357	26218
831.496	26130
831.635	26077
831.774	26027
831.913	25845
832.051	25913
832.19	25887
832.329	25898
832.467	25826
832.606	25693
832.744	25803
832.883	25647
833.022	25719
833.16	25780
833.299	25986
833.437	25814
833.576	25894
833.714	25788
833.852	25814
833.991	25921
834.129	25932
834.267	25841
834.406	25738
834.544	25841
834.682	25807
834.821	25791
834.959	25978
835.097	25750
835.235	25685
835.373	25681
835.511	25807
835.65	25723
835.788	25757
835.926	25639
836.064	25529
836.202	25472
836.34	25651
836.478	25632
836.615	25529
836.753	25677
836.891	25677
837.029	25696
837.167	25518
837.305	25540
837.443	25438
837.58	25575
837.718	25426
837.856	25548
837.993	25358
838.131	25487
838.269	25350
838.406	25270
838.544	25388
838.681	25072
838.819	25008
838.956	25114
839.094	24913
839.231	25015
839.369	25027
839.506	25308
839.643	25164
839.781	24875
839.918	24894
840.055	25012
840.193	24913
840.33	24943
840.467	24878
840.604	24852
840.742	25000
840.879	24814
841.016	24844
841.153	24730
841.29	24905
841.427	24707
841.564	24844
841.701	24905
841.838	24856
841.975	24738
842.112	24825
842.249	24696
842.385	24646
842.522	24806
842.659	24673
842.796	24505
842.933	24669
843.069	24521
843.206	24551
843.343	24696
843.479	24521
843.616	24471
843.752	24361
843.889	24498
844.025	24620
844.162	24395
844.298	24460
844.435	24475
844.571	24346
844.708	24384
844.844	24601
844.98	24536
845.117	24544
845.253	24338
845.389	24224
845.525	24315
845.661	24220
845.798	24216
845.934	24163
846.07	24091
846.206	24121
846.342	24174
846.478	24087
846.614	23965
846.75	23855
846.886	23783
847.022	23984
847.158	23893
847.294	23874
847.429	23786
847.565	23786
847.701	24064
847.837	23501
847.972	23611
848.108	23604
848.244	23642
848.379	23592
848.515	23387
848.65	23421
848.786	23376
848.921	23349
849.057	23436
849.192	23440
849.328	23459
849.463	23387
849.598	23425
849.734	23318
849.869	23185
850.004	23250
850.14	23239
850.275	23109
850.41	23113
850.545	23128
850.68	22999
850.815	23311
850.95	23208
851.085	23299
851.22	23406
851.355	23128
851.49	23258
851.625	23109
851.76	23147
851.895	23075
852.03	23143
852.165	23258
852.299	23185
852.434	23235
852.569	23326
852.703	23170
852.838	23212
852.973	23322
853.107	23337
853.242	23193
853.376	22976
853.511	22900
853.645	22930
853.78	23147
853.914	23193
854.048	23022
854.183	23102
854.317	23041
854.451	23109
854.585	23056
854.72	23025
854.854	23132
854.988	22755
855.122	22995
855.256	22835
855.39	22930
855.524	23098
855.658	23056
855.792	23014
855.926	22995
856.06	22991
856.194	23022
856.327	22900
856.461	22889
856.595	22946
856.729	22927
856.862	22995
856.996	23143
857.13	22824
857.263	22995
857.397	23113
857.53	22911
857.664	23010
857.797	23006
857.931	23086
858.064	23071
858.197	23067
858.331	22995
858.464	22889
858.597	22854
858.731	23003
858.864	22927
858.997	22927
859.13	22976
859.263	23025
859.396	23033
859.529	23003
859.662	22942
859.795	23006
859.928	23094
860.061	23041
860.194	23128
860.327	22991
860.46	22984
860.592	23181
860.725	23174
860.858	23128
860.99	23075
861.123	22850
861.256	23048
861.388	22908
861.521	23649
861.653	22850
861.786	22717
861.918	22869
862.05	22881
862.183	22949
862.315	23014
862.447	23033
862.58	22866
862.712	22713
862.844	22596
862.976	22809
863.108	22858
863.24	23159
863.372	22668
863.504	22687
863.636	22649
863.768	22862
863.9	22622
864.032	22698
864.164	22618
864.296	22679
864.428	22812
864.559	22774
864.691	22793
864.823	22744
864.954	22706
865.086	22702
865.217	22607
865.349	22516
865.48	22474
865.612	22630
865.743	22729
865.875	22618
866.006	22523
866.137	22504
866.269	22569
866.4	22599
866.531	22565
866.662	22512
866.793	22538
866.924	22474
867.055	22672
867.186	22489
867.317	22405
867.448	22367
867.579	22428
867.71	22382
867.841	22455
867.972	22504
868.103	22504
868.233	22478
868.364	22451
868.495	22542
868.625	22755
868.756	22869
868.886	22713
869.017	22607
869.147	22873
869.278	22774
869.408	22653
869.539	22733
869.669	22850
869.799	22824
869.929	22831
870.06	22691
870.19	22999
870.32	23052
870.45	23086
870.58	23056
870.71	23356
870.84	23261
870.97	23143
871.1	23086
871.23	23296
871.36	23406
871.489	23254
871.619	23360
871.749	23364
871.879	23254
872.008	23512
872.138	23356
872.267	23288
872.397	23239
872.526	23102
872.656	23273
872.785	23136
872.915	23482
873.044	23284
873.173	23391
873.303	23417
873.432	23372
873.561	23535
873.69	23280
873.819	23353
873.948	23433
874.077	23288
874.206	23337
874.335	23360
874.464	23391
874.593	23585
874.722	23482
874.851	23539
874.979	23433
875.108	23589
875.237	23478
875.365	23372
875.494	23577
875.623	23623
875.751	23535
875.88	23585
876.008	23707
876.136	23646
876.265	23885
876.393	23954
876.521	24041
876.65	23977
876.778	24003
876.906	23863
877.034	23817
877.162	23878
877.29	23874
877.418	23931
877.546	23889
877.674	23927
877.802	23863
877.93	23798
878.058	23824
878.185	23653
878.313	23821
878.441	23824
878.568	23722
878.696	23824
878.824	23920
878.951	23969
879.079	24072
879.206	24129
879.333	23999
879.461	24034
879.588	23984
879.715	24087
879.842	24018
879.97	23950
880.097	23821
880.224	23733
880.351	23786
880.478	23718
880.605	23646
880.732	23562
880.859	23935
880.986	23710
881.112	23695
881.239	23539
881.366	23467
881.493	23353
881.619	23315
881.746	23284
881.872	23364
881.999	23277
882.125	23147
882.252	23246
882.378	23261
882.505	23372
882.631	23166
882.757	22961
882.883	23056
883.01	22889
883.136	22839
883.262	22786
883.388	22748
883.514	22908
883.64	22923
883.766	22843
883.892	22687
884.018	22782
884.143	22767
884.269	22858
884.395	22679
884.52	22546
884.646	22508
884.772	22702
884.897	22497
885.023	22569
885.148	22698
885.274	22599
885.399	22622
885.524	22561
885.65	22622
885.775	22565
885.9	22611
886.025	22584
886.15	22630
886.275	22519
886.4	22405
886.525	22497
886.65	22424
886.775	22462
886.9	22763
887.025	22702
887.149	22497
887.274	22363
887.399	22421
887.523	22306
887.648	22367
887.773	22238
887.897	22287
888.021	22325
888.146	22371
888.27	22447
888.395	22322
888.519	22253
888.643	22337
888.767	22356
888.891	22287
889.015	22025
889.139	22067
889.263	22078
889.387	22070
889.511	22341
889.635	22097
889.759	22048
889.883	21968
890.006	22109
890.13	22223
890.254	22044
890.377	22063
890.501	21838
890.624	21888
890.748	21846
890.871	21804
890.995	21606
891.118	21496
891.241	21538
891.364	21694
891.488	21804
891.611	21633
891.734	21637
891.857	21724
891.98	21633
892.103	21770
892.226	21606
892.349	21526
892.471	21435
892.594	21401
892.717	21637
892.839	21450
892.962	21454
893.085	21606
893.207	21549
893.33	21367
893.452	21348
893.575	21564
893.697	21408
893.819	21641
893.941	21656
894.064	21572
894.186	21435
894.308	21389
894.43	21557
894.552	21583
894.674	21583
894.796	21416
894.918	21492
895.04	21530
895.161	21523
895.283	21504
895.405	21382
895.526	21466
895.648	21420
895.769	21557
895.891	21496
896.012	21587
896.134	21500
896.255	21553
896.376	21488
896.498	21389
896.619	21526
896.74	21389
896.861	21488
896.982	21808
897.103	21888
897.224	21759
897.345	21747
897.466	21675
897.587	21629
897.708	21884
897.828	21663
897.949	21583
898.07	21488
898.19	21682
898.311	21755
898.431	21580
898.552	21622
898.672	21648
898.792	21591
898.913	21561
899.033	21504
899.153	21458
899.273	21298
899.393	21363
899.513	21431
899.633	21469
899.753	21408
899.873	21348
899.993	21363
900.113	21332
900.232	21306
900.352	21226
900.472	21169
900.591	21009
900.711	21176
900.83	21085
900.95	21348
901.069	21173
901.189	20899
901.308	20815
901.427	20811
901.546	20655
901.665	20743
901.784	20811
901.904	20602
902.023	20412
902.141	20377
902.26	20377
902.379	20267
902.498	20225
902.617	20252
902.735	20202
902.854	20122
902.973	20096
903.091	19890
903.21	19940
903.328	19860
903.446	19795
903.565	19651
903.683	19666
903.801	19510
903.919	19719
904.038	19609
904.156	19350
904.274	19578
904.392	19464
904.51	19438
904.627	19476
904.745	19575
904.863	19400
904.981	19198
905.098	19031
905.216	19126
905.334	19118
905.451	19069
905.569	19065
905.686	19114
905.803	19038
905.921	18844
906.038	18985
906.155	18913
906.272	18825
906.389	18833
906.506	18525
906.623	18738
906.74	18555
906.857	18490
906.974	18445
907.091	18688
907.208	18688
907.324	18677
907.441	18551
907.557	18334
907.674	18319
907.79	18216
907.907	18228
908.023	18281
908.139	18361
908.256	18304
908.372	18144
908.488	18171
908.604	18030
908.72	18087
908.836	17996
908.952	18022
909.068	18045
909.184	18110
909.3	17931
909.415	18038
909.531	18019
909.647	17802
909.762	17802
909.878	17714
909.993	17722
910.108	17748
910.224	17714
910.339	17630
910.454	17528
910.57	17570
910.685	17455
910.8	17623
910.915	17657
911.03	17509
911.145	17356
911.259	17372
911.374	17402
911.489	17189
911.604	17136
911.718	16972
911.833	16968
911.947	16927
912.062	16908
912.176	17060
912.291	17018
912.405	17193
912.519	17178
912.633	17216
912.748	17143
912.862	16995
912.976	16809
913.09	16710
913.204	16763
913.318	16862
913.431	16873
913.545	16934
913.659	17071
913.772	16725
913.886	16592
914	16694
914.113	16721
914.226	16637
914.34	16596
914.453	16474
914.566	16721
914.68	16516
914.793	16409
914.906	16306
915.019	16143
915.132	16071
915.245	16128
915.358	16242
915.47	16238
915.583	16192
915.696	16234
915.809	16303
915.921	16287
916.034	16124
916.146	16010
916.259	15960
916.371	16207
916.483	16230
916.595	16029
916.708	15972
916.82	16021
916.932	15991
917.044	15892
917.156	15850
917.268	15892
917.38	15762
917.491	15831
917.603	15819
917.715	15873
917.826	15979
917.938	15876
918.049	15622
918.161	15751
918.272	15861
918.384	15892
918.495	15717
918.606	15473
918.717	15477
918.828	15523
918.939	15553
919.05	15488
919.161	15519
919.272	15279
919.383	15359
919.494	15504
919.604	15747
919.715	15526
919.826	15443
919.936	15355
920.047	15622
920.157	15485
920.267	15625
920.378	15473
920.488	15401
920.598	15614
920.708	15736
920.818	15564
920.928	15629
921.038	15770
921.148	15743
921.258	15481
921.368	15363
921.477	15218
921.587	15245
921.697	15104
921.806	15207
921.916	14952
922.025	14895
922.134	14758
922.244	14800
922.353	14800
922.462	14777
922.571	14571
922.68	14533
922.789	14415
922.898	14514
923.007	14457
923.116	14522
923.224	14366
923.333	14366
923.442	14237
923.55	14286
923.659	14290
923.767	14358
923.876	14206
923.984	14324
924.092	14240
924.201	14214
924.309	14252
924.417	14168
924.525	14164
924.633	14123
924.741	15119
924.849	13837
924.956	14027
925.064	13928
925.172	13791
925.279	13845
925.387	13830
925.494	13811
925.602	13967
925.709	13868
925.816	13753
925.924	13750
926.031	13776
926.138	13738
926.245	13890
926.352	13662
926.459	13746
926.566	13830
926.673	13731
926.779	13613
926.886	13537
926.993	13460
927.099	13388
927.206	13362
927.312	13266
927.419	13472
927.525	13384
927.631	13331
927.737	13217
927.843	13297
927.95	13076
928.056	13110
928.162	13175
928.267	13160
928.373	13879
928.479	13240
928.585	13019
928.69	13118
928.796	13114
928.901	13072
929.007	12935
929.112	13065
929.218	13061
929.323	12859
929.428	12814
929.533	12973
929.638	12802
929.743	12802
929.848	12894
929.953	12837
930.058	12734
930.163	12540
930.267	12563
930.372	12631
930.477	12494
930.581	12730
930.685	12502
930.79	12437
930.894	12479
930.998	12422
931.103	12517
931.207	12045
931.311	12038
931.415	11950
931.519	11775
931.623	11737
