Data from test_V78500241_437.txt Node
Date: Fri Mar 25 15:44:49 CST 2022
User: usil
Spectrometer: V785-0024
Trigger mode: 0
Integration Time (sec): 4.000000E-1
Scans to average: 1
Nonlinearity correction enabled: false
Boxcar width: 0
Storing dark spectrum: false
XAxis mode: Wavelengths
Number of Pixels in Spectrum: 1024
>>>>>Begin Spectral Data<<<<<
801.071	28356
801.214	28443
801.356	28124
801.499	27964
801.641	27922
801.783	28048
801.926	28131
802.068	28090
802.211	27895
802.353	27827
802.496	27656
802.638	27583
802.78	27667
802.923	27652
803.065	27504
803.208	27530
803.35	27675
803.492	27778
803.635	27701
803.777	27671
803.919	27785
804.061	27998
804.204	27789
804.346	27892
804.488	27705
804.63	27759
804.773	27610
804.915	27785
805.057	27949
805.199	27846
805.341	27732
805.483	27884
805.626	27831
805.768	27671
805.91	27907
806.052	27888
806.194	27903
806.336	28090
806.478	27835
806.62	27907
806.762	28025
806.904	28070
807.046	28371
807.188	28390
807.33	28131
807.472	28424
807.614	28131
807.756	28219
807.898	28048
808.04	28101
808.182	28131
808.324	28059
808.465	28070
808.607	28253
808.749	28470
808.891	28497
809.033	28478
809.174	28474
809.316	28664
809.458	28565
809.6	28516
809.741	28611
809.883	28649
810.025	28748
810.166	28824
810.308	28569
810.45	28763
810.591	28538
810.733	28615
810.875	28428
811.016	28459
811.158	28386
811.299	28607
811.441	28713
811.582	28599
811.724	28447
811.865	28447
812.007	28493
812.148	28451
812.29	28493
812.431	28607
812.573	28733
812.714	28934
812.855	28934
812.997	29044
813.138	29269
813.279	28942
813.421	28968
813.562	28946
813.703	28782
813.845	28596
813.986	28394
814.127	28238
814.268	28044
814.41	28112
814.551	28166
814.692	28249
814.833	27972
814.974	28139
815.115	28048
815.256	28017
815.397	28021
815.539	28017
815.68	27873
815.821	27914
815.962	27861
816.103	27987
816.244	27797
816.385	27599
816.526	27663
816.666	27534
816.807	27207
816.948	27408
817.089	27538
817.23	27325
817.371	27306
817.512	27294
817.653	27336
817.793	27302
817.934	27386
818.075	27351
818.216	27412
818.356	27332
818.497	27374
818.638	27001
818.778	27058
818.919	27135
819.06	27203
819.2	27256
819.341	27325
819.481	27298
819.622	27466
819.762	27557
819.903	27515
820.043	27599
820.184	27298
820.324	27401
820.465	27496
820.605	27336
820.746	27336
820.886	27268
821.026	27450
821.167	27401
821.307	27481
821.447	27340
821.588	27207
821.728	27055
821.868	26887
822.008	26842
822.149	26967
822.289	26800
822.429	26644
822.569	26526
822.709	26404
822.849	26317
822.99	26355
823.13	26244
823.27	26180
823.41	26130
823.55	25978
823.69	26191
823.83	26062
823.97	26115
824.11	25932
824.25	25883
824.389	26031
824.529	26012
824.669	25925
824.809	25959
824.949	25913
825.089	25925
825.228	25989
825.368	25666
825.508	25890
825.648	25849
825.787	25753
825.927	25982
826.067	25693
826.206	25685
826.346	25761
826.485	25734
826.625	25704
826.765	25963
826.904	25700
827.044	25529
827.183	25392
827.323	25400
827.462	25491
827.601	25548
827.741	25316
827.88	25377
828.02	25217
828.159	25438
828.298	25377
828.437	25506
828.577	25369
828.716	25563
828.855	25251
828.994	25103
829.134	25103
829.273	25091
829.412	25057
829.551	25091
829.69	25038
829.829	25088
829.968	25164
830.107	25221
830.246	25076
830.385	25160
830.524	25065
830.663	24901
830.802	24928
830.941	24787
831.08	24597
831.219	24821
831.357	24757
831.496	25012
831.635	24620
831.774	24658
831.913	24627
832.051	24445
832.19	24399
832.329	24601
832.467	24410
832.606	24239
832.744	24289
832.883	24452
833.022	24243
833.16	24342
833.299	24178
833.437	24300
833.576	24334
833.714	24460
833.852	24395
833.991	24380
834.129	24566
834.267	24563
834.406	24357
834.544	24388
834.682	24277
834.821	24357
834.959	24547
835.097	24330
835.235	24483
835.373	24350
835.511	24391
835.65	24247
835.788	24213
835.926	24007
836.064	23988
836.202	24041
836.34	24247
836.478	24251
836.615	24049
836.753	24140
836.891	24194
837.029	24194
837.167	24167
837.305	24053
837.443	24030
837.58	23889
837.718	24083
837.856	24091
837.993	23783
838.131	23999
838.269	23927
838.406	24030
838.544	23935
838.681	23634
838.819	23520
838.956	23417
839.094	23501
839.231	23573
839.369	23627
839.506	23855
839.643	23665
839.781	23452
839.918	23429
840.055	23433
840.193	23235
840.33	23516
840.467	23406
840.604	23490
840.742	23665
840.879	23246
841.016	23379
841.153	23349
841.29	23364
841.427	23455
841.564	23402
841.701	23288
841.838	23337
841.975	23246
842.112	23368
842.249	23193
842.385	23193
842.522	23356
842.659	23102
842.796	23006
842.933	23124
843.069	23052
843.206	23018
843.343	23151
843.479	23048
843.616	23094
843.752	22987
843.889	22938
844.025	22904
844.162	22759
844.298	22991
844.435	22793
844.571	22748
844.708	22908
844.844	22927
844.98	22968
845.117	22934
845.253	22752
845.389	22748
845.525	22622
845.661	22626
845.798	22516
845.934	22599
846.07	22519
846.206	22653
846.342	22725
846.478	22592
846.614	22398
846.75	22291
846.886	22417
847.022	22405
847.158	22287
847.294	22276
847.429	22432
847.565	22261
847.701	22584
847.837	22074
847.972	21991
848.108	22105
848.244	22139
848.379	21918
848.515	21975
848.65	21793
848.786	21880
848.921	21892
849.057	21979
849.192	22021
849.328	21873
849.463	21819
849.598	21774
849.734	21747
849.869	21728
850.004	21652
850.14	21641
850.275	21633
850.41	21507
850.545	21622
850.68	21549
850.815	21572
850.95	21564
851.085	21895
851.22	21660
851.355	21580
851.49	21622
851.625	21701
851.76	21492
851.895	21401
852.03	21382
852.165	21648
852.299	21637
852.434	21572
852.569	21618
852.703	21496
852.838	21671
852.973	21720
853.107	21770
853.242	21568
853.376	21511
853.511	21340
853.645	21412
853.78	21534
853.914	21431
854.048	21378
854.183	21389
854.317	21462
854.451	21625
854.585	21374
854.72	21447
854.854	21435
854.988	21317
855.122	21355
855.256	21180
855.39	21500
855.524	21431
855.658	21420
855.792	21504
855.926	21359
856.06	21412
856.194	21458
856.327	21367
856.461	21302
856.595	21428
856.729	21401
856.862	21538
856.996	21504
857.13	21583
857.263	21507
857.397	21450
857.53	21393
857.664	21389
857.797	21344
857.931	21408
858.064	21416
858.197	21469
858.331	21397
858.464	21355
858.597	21291
858.731	21321
858.864	21325
858.997	21382
859.13	21424
859.263	21420
859.396	21473
859.529	21306
859.662	21256
859.795	21359
859.928	21329
860.061	21671
860.194	21549
860.327	21378
860.46	21435
860.592	21542
860.725	21564
860.858	21511
860.99	21325
861.123	21317
861.256	21230
861.388	21340
861.521	21926
861.653	21321
861.786	21275
861.918	21203
862.05	21313
862.183	21291
862.315	21260
862.447	21344
862.58	21317
862.712	21074
862.844	20979
862.976	21119
863.108	21222
863.24	21523
863.372	21005
863.504	20952
863.636	21119
863.768	21165
863.9	21146
864.032	20979
864.164	21135
864.296	21047
864.428	21165
864.559	21165
864.691	21062
864.823	21119
864.954	21074
865.086	21154
865.217	21089
865.349	21066
865.48	20994
865.612	21051
865.743	21135
865.875	21062
866.006	20868
866.137	21043
866.269	20960
866.4	21051
866.531	20887
866.662	20823
866.793	20952
866.924	20861
867.055	20921
867.186	20952
867.317	20845
867.448	20773
867.579	20811
867.71	20811
867.841	20918
867.972	20883
868.103	20883
868.233	20979
868.364	20975
868.495	21058
868.625	21070
868.756	21264
868.886	21096
869.017	21036
869.147	21264
869.278	21226
869.408	21173
869.539	21207
869.669	21165
869.799	21226
869.929	21291
870.06	21298
870.19	21485
870.32	21568
870.45	21511
870.58	21530
870.71	21633
870.84	21603
870.97	21557
871.1	21526
871.23	21656
871.36	21759
871.489	21580
871.619	21622
871.749	21732
871.879	21747
872.008	21751
872.138	21705
872.267	21694
872.397	21538
872.526	21629
872.656	21534
872.785	21515
872.915	21720
873.044	21888
873.173	21751
873.303	21778
873.432	21781
873.561	21876
873.69	21884
873.819	21694
873.948	21774
874.077	21747
874.206	21720
874.335	21873
874.464	21960
874.593	21994
874.722	21880
874.851	21960
874.979	22017
875.108	22147
875.237	21972
875.365	21972
875.494	21960
875.623	22044
875.751	21850
875.88	22013
876.008	22143
876.136	22181
876.265	22432
876.393	22462
876.521	22409
876.65	22561
876.778	22382
876.906	22363
877.034	22303
877.162	22341
877.29	22306
877.418	22341
877.546	22428
877.674	22421
877.802	22272
877.93	22276
878.058	22341
878.185	22253
878.313	22325
878.441	22379
878.568	22124
878.696	22265
878.824	22375
878.951	22481
879.079	22497
879.206	22603
879.333	22584
879.461	22333
879.588	22584
879.715	22421
879.842	22573
879.97	22451
880.097	22234
880.224	22067
880.351	22150
880.478	22128
880.605	22169
880.732	22128
880.859	22375
880.986	22207
881.112	22253
881.239	22048
881.366	21953
881.493	21842
881.619	21831
881.746	21899
881.872	21732
881.999	21686
882.125	21591
882.252	21915
882.378	21705
882.505	21850
882.631	21717
882.757	21454
882.883	21477
883.01	21500
883.136	21450
883.262	21332
883.388	21291
883.514	21389
883.64	21428
883.766	21275
883.892	21237
884.018	21256
884.143	21329
884.269	21564
884.395	21188
884.52	21150
884.646	21173
884.772	20956
884.897	21028
885.023	21093
885.148	21123
885.274	21245
885.399	21245
885.524	21032
885.65	21070
885.775	21199
885.9	21001
886.025	21127
886.15	21199
886.275	21104
886.4	21173
886.525	21131
886.65	20914
886.775	21028
886.9	21089
887.025	21199
887.149	21127
887.274	20838
887.399	20834
887.523	20990
887.648	20735
887.773	20765
887.897	20876
888.021	20845
888.146	20739
888.27	20979
888.395	20838
888.519	20811
888.643	20864
888.767	20815
888.891	20693
889.015	20648
889.139	20819
889.263	20705
889.387	20830
889.511	20773
889.635	20800
889.759	20579
889.883	20579
890.006	20708
890.13	20617
890.254	20457
890.377	20598
890.501	20427
890.624	20317
890.748	20419
890.871	20240
890.995	20240
891.118	20195
891.241	20206
891.364	20195
891.488	20218
891.611	20100
891.734	20107
891.857	20161
891.98	20282
892.103	20282
892.226	20355
892.349	20233
892.471	20035
892.594	20172
892.717	20202
892.839	20031
892.962	20145
893.085	20077
893.207	19944
893.33	19906
893.452	20115
893.575	20225
893.697	20081
893.819	20328
893.941	20195
894.064	20183
894.186	20088
894.308	20046
894.43	20149
894.552	20130
894.674	20237
894.796	20031
894.918	20092
895.04	20199
895.161	20191
895.283	20195
895.405	20050
895.526	20046
895.648	20054
895.769	20210
895.891	20206
896.012	20180
896.134	20176
896.255	20195
896.376	20214
896.498	20138
896.619	20233
896.74	20153
896.861	20157
896.982	20385
897.103	20583
897.224	20366
897.345	20336
897.466	20347
897.587	20389
897.708	20556
897.828	20461
897.949	20225
898.07	20031
898.19	20351
898.311	20492
898.431	20237
898.552	20286
898.672	20347
898.792	20431
898.913	20461
899.033	20119
899.153	20008
899.273	20008
899.393	20096
899.513	20164
899.633	20115
899.753	20138
899.873	19963
899.993	20081
900.113	19906
900.232	20020
900.352	19894
900.472	19944
900.591	19811
900.711	19928
900.83	19772
900.95	19902
901.069	19887
901.189	19860
901.308	19472
901.427	19495
901.546	19457
901.665	19518
901.784	19468
901.904	19430
902.023	19270
902.141	19038
902.26	18939
902.379	19053
902.498	18840
902.617	18909
902.735	18894
902.854	18985
902.973	18848
903.091	18570
903.21	18684
903.328	18616
903.446	18536
903.565	18426
903.683	18388
903.801	18330
903.919	18445
904.038	18338
904.156	18258
904.274	18266
904.392	18167
904.51	18136
904.627	18171
904.745	18194
904.863	18228
904.981	17965
905.098	17809
905.216	17882
905.334	17954
905.451	17847
905.569	17722
905.686	17817
905.803	17783
905.921	17668
906.038	17710
906.155	17627
906.272	17505
906.389	17543
906.506	17448
906.623	17440
906.74	17490
906.857	17265
906.974	17284
907.091	17315
907.208	17589
907.324	17455
907.441	17261
907.557	17094
907.674	17124
907.79	16995
907.907	17025
908.023	17193
908.139	17037
908.256	17121
908.372	17048
908.488	16980
908.604	16786
908.72	16805
908.836	16771
908.952	16740
909.068	16782
909.184	16805
909.3	16740
909.415	16816
909.531	16835
909.647	16466
909.762	16478
909.878	16451
909.993	16535
910.108	16405
910.224	16424
910.339	16424
910.454	16337
910.57	16310
910.685	16223
910.8	16485
910.915	16405
911.03	16333
911.145	16139
911.259	16090
911.374	15953
911.489	16021
911.604	15956
911.718	15778
911.833	15884
911.947	15728
912.062	15774
912.176	15812
912.291	15819
912.405	15873
912.519	16006
912.633	15991
912.748	15838
912.862	15827
912.976	15618
913.09	15542
913.204	15591
913.318	15599
913.431	15625
913.545	15603
913.659	15667
913.772	15603
913.886	15462
914	15458
914.113	15599
914.226	15507
914.34	15412
914.453	15283
914.566	15553
914.68	15412
914.793	15363
914.906	15077
915.019	15074
915.132	15055
915.245	14979
915.358	15039
915.47	14990
915.583	15001
915.696	15104
915.809	15135
915.921	15161
916.034	15062
916.146	14910
916.259	14872
916.371	15039
916.483	15039
916.595	14823
916.708	14880
916.82	14880
916.932	14868
917.044	14876
917.156	14693
917.268	14769
917.38	14743
917.491	14636
917.603	14746
917.715	14849
917.826	14758
917.938	14724
918.049	14590
918.161	14610
918.272	14746
918.384	14769
918.495	14655
918.606	14499
918.717	14396
918.828	14427
918.939	14442
919.05	14324
919.161	14499
919.272	14301
919.383	14206
919.494	14461
919.604	14598
919.715	14473
919.826	14286
919.936	14374
920.047	14454
920.157	14457
920.267	14625
920.378	14412
920.488	14408
920.598	14484
920.708	14682
920.818	14537
920.928	14575
921.038	14739
921.148	14659
921.258	14427
921.368	14267
921.477	14142
921.587	14130
921.697	14088
921.806	14054
921.916	13997
922.025	13856
922.134	13791
922.244	13769
922.353	13868
922.462	13700
922.571	13613
922.68	13400
922.789	13487
922.898	13472
923.007	13354
923.116	13441
923.224	13434
923.333	13400
923.442	13297
923.55	13175
923.659	13266
923.767	13365
923.876	13225
923.984	13217
924.092	13118
924.201	13194
924.309	13168
924.417	13202
924.525	13080
924.633	13050
924.741	13864
924.849	12966
924.956	13015
925.064	12878
925.172	12730
925.279	12806
925.387	12962
925.494	12837
925.602	12951
925.709	12856
925.816	12852
925.924	12829
926.031	12882
926.138	12779
926.245	12779
926.352	12627
926.459	12875
926.566	12798
926.673	12776
926.779	12627
926.886	12566
926.993	12399
927.099	12418
927.206	12346
927.312	12395
927.419	12479
927.525	12433
927.631	12403
927.737	12247
927.843	12346
927.95	12136
928.056	12289
928.162	12171
928.267	12334
928.373	12871
928.479	12369
928.585	12079
928.69	12178
928.796	12220
928.901	12117
929.007	11935
929.112	12114
929.218	12068
929.323	11992
929.428	11920
929.533	12110
929.638	11889
929.743	11882
929.848	11996
929.953	11863
930.058	11794
930.163	11672
930.267	11562
930.372	11832
930.477	11665
930.581	11821
930.685	11710
930.79	11524
930.894	11573
930.998	11528
931.103	11718
931.207	11242
931.311	11197
931.415	11098
931.519	10843
931.623	10873
