Data from test_V78500241_1896.txt Node
Date: Fri Mar 25 15:54:56 CST 2022
User: usil
Spectrometer: V785-0024
Trigger mode: 0
Integration Time (sec): 4.000000E-1
Scans to average: 1
Nonlinearity correction enabled: false
Boxcar width: 0
Storing dark spectrum: false
XAxis mode: Wavelengths
Number of Pixels in Spectrum: 1024
>>>>>Begin Spectral Data<<<<<
801.071	28752
801.214	28672
801.356	28421
801.499	28318
801.641	28185
801.783	28147
801.926	28390
802.068	28268
802.211	28154
802.353	28040
802.496	28192
802.638	27979
802.78	27937
802.923	27914
803.065	27899
803.208	28010
803.35	28021
803.492	28147
803.635	28048
803.777	28082
803.919	28226
804.061	28561
804.204	28234
804.346	28211
804.488	28112
804.63	28177
804.773	28158
804.915	28158
805.057	28367
805.199	28154
805.341	28276
805.483	28401
805.626	28405
805.768	28253
805.91	28405
806.052	28443
806.194	28322
806.336	28470
806.478	28371
806.62	28455
806.762	28485
806.904	28717
807.046	28752
807.188	28797
807.33	28828
807.472	28881
807.614	28748
807.756	28896
807.898	28641
808.04	28573
808.182	28485
808.324	28774
808.465	28645
808.607	28904
808.749	28976
808.891	29235
809.033	29204
809.174	29014
809.316	28934
809.458	29079
809.6	29159
809.741	29159
809.883	29174
810.025	29391
810.166	29277
810.308	29387
810.45	29208
810.591	29067
810.733	29025
810.875	29083
811.016	28942
811.158	28938
811.299	29223
811.441	29265
811.582	29143
811.724	29090
811.865	29014
812.007	28938
812.148	29033
812.29	29155
812.431	29204
812.573	29387
812.714	29467
812.855	29547
812.997	29649
813.138	29798
813.279	29653
813.421	29570
813.562	29520
813.703	29311
813.845	29269
813.986	28919
814.127	28801
814.268	28710
814.41	28843
814.551	28645
814.692	28873
814.833	28637
814.974	28618
815.115	28763
815.256	28645
815.397	28630
815.539	28698
815.68	28561
815.821	28557
815.962	28561
816.103	28405
816.244	28371
816.385	28409
816.526	28401
816.666	28067
816.807	28166
816.948	28059
817.089	28059
817.23	28090
817.371	28112
817.512	28044
817.653	27991
817.793	27972
817.934	27956
818.075	28063
818.216	28128
818.356	27983
818.497	27968
818.638	27762
818.778	27724
818.919	27720
819.06	27842
819.2	27899
819.341	27926
819.481	28116
819.622	28188
819.762	28554
819.903	28242
820.043	28188
820.184	28219
820.324	28303
820.465	28261
820.605	28120
820.746	28013
820.886	27994
821.026	28067
821.167	28185
821.307	28333
821.447	28169
821.588	27914
821.728	27846
821.868	27728
822.008	27568
822.149	27641
822.289	27485
822.429	27416
822.569	27085
822.709	27211
822.849	27157
822.99	27169
823.13	27070
823.27	26963
823.41	26697
823.55	26830
823.69	26769
823.83	26914
823.97	26781
824.11	26541
824.25	26682
824.389	26785
824.529	26716
824.669	26701
824.809	26800
824.949	26750
825.089	26857
825.228	26823
825.368	26579
825.508	26640
825.648	26621
825.787	26678
825.927	26648
826.067	26560
826.206	26579
826.346	26575
826.485	26571
826.625	26629
826.765	26705
826.904	26762
827.044	26324
827.183	26389
827.323	26252
827.462	26362
827.601	26389
827.741	26248
827.88	26507
828.02	26081
828.159	26355
828.298	26195
828.437	26374
828.577	26153
828.716	26317
828.855	26233
828.994	26054
829.134	26020
829.273	26024
829.412	25997
829.551	25833
829.69	25959
829.829	25932
829.968	25986
830.107	26073
830.246	25982
830.385	25887
830.524	25986
830.663	25913
830.802	25655
830.941	25628
831.08	25556
831.219	25689
831.357	25791
831.496	25902
831.635	25674
831.774	25479
831.913	25491
832.051	25491
832.19	25544
832.329	25415
832.467	25232
832.606	25129
832.744	25289
832.883	25320
833.022	25324
833.16	25206
833.299	25346
833.437	25381
833.576	25377
833.714	25320
833.852	25335
833.991	25384
834.129	25434
834.267	25384
834.406	25445
834.544	25362
834.682	25415
834.821	25255
834.959	25453
835.097	25282
835.235	25472
835.373	25373
835.511	25190
835.65	25194
835.788	25183
835.926	25118
836.064	25080
836.202	25031
836.34	25175
836.478	25194
836.615	25206
836.753	25095
836.891	25221
837.029	25244
837.167	25129
837.305	24992
837.443	25107
837.58	24954
837.718	25080
837.856	24966
837.993	24943
838.131	24954
838.269	24894
838.406	24829
838.544	24947
838.681	24696
838.819	24639
838.956	24456
839.094	24536
839.231	24479
839.369	24486
839.506	25000
839.643	24757
839.781	24441
839.918	24505
840.055	24369
840.193	24369
840.33	24300
840.467	24418
840.604	24384
840.742	24817
840.879	24167
841.016	24365
841.153	24163
841.29	24365
841.427	24334
841.564	24361
841.701	24334
841.838	24330
841.975	24224
842.112	24273
842.249	24095
842.385	24079
842.522	24289
842.659	24235
842.796	24079
842.933	24121
843.069	24003
843.206	24072
843.343	24174
843.479	24140
843.616	24095
843.752	23775
843.889	23942
844.025	24041
844.162	23847
844.298	23916
844.435	23821
844.571	23691
844.708	23977
844.844	24098
844.98	24129
845.117	24064
845.253	23901
845.389	23672
845.525	23828
845.661	23783
845.798	23600
845.934	23581
846.07	23566
846.206	23687
846.342	23741
846.478	23661
846.614	23364
846.75	23223
846.886	23376
847.022	23337
847.158	23368
847.294	23376
847.429	23345
847.565	23261
847.701	23627
847.837	22991
847.972	23102
848.108	23239
848.244	23052
848.379	22919
848.515	22953
848.65	22892
848.786	22889
848.921	22972
849.057	23014
849.192	22915
849.328	22915
849.463	22869
849.598	22908
849.734	22744
849.869	22820
850.004	22626
850.14	22641
850.275	22763
850.41	22546
850.545	22660
850.68	22634
850.815	22698
850.95	22687
851.085	22672
851.22	22801
851.355	22740
851.49	22634
851.625	22626
851.76	22573
851.895	22618
852.03	22527
852.165	22736
852.299	22637
852.434	22759
852.569	22721
852.703	22656
852.838	22717
852.973	22934
853.107	22790
853.242	22786
853.376	22550
853.511	22341
853.645	22363
853.78	22634
853.914	22481
854.048	22455
854.183	22459
854.317	22451
854.451	22763
854.585	22580
854.72	22485
854.854	22580
854.988	22379
855.122	22451
855.256	22428
855.39	22489
855.524	22557
855.658	22504
855.792	22523
855.926	22436
856.06	22596
856.194	22577
856.327	22500
856.461	22436
856.595	22470
856.729	22474
856.862	22577
856.996	22470
857.13	22519
857.263	22736
857.397	22592
857.53	22417
857.664	22675
857.797	22478
857.931	22615
858.064	22436
858.197	22542
858.331	22436
858.464	22363
858.597	22348
858.731	22523
858.864	22428
858.997	22527
859.13	22493
859.263	22516
859.396	22531
859.529	22546
859.662	22421
859.795	22481
859.928	22424
860.061	22592
860.194	22592
860.327	22512
860.46	22493
860.592	22607
860.725	22721
860.858	22592
860.99	22512
861.123	22508
861.256	22455
861.388	22485
861.521	23376
861.653	22409
861.786	22341
861.918	22360
862.05	22398
862.183	22424
862.315	22363
862.447	22413
862.58	22443
862.712	22287
862.844	22143
862.976	22272
863.108	22485
863.24	22748
863.372	22158
863.504	22192
863.636	22207
863.768	22040
863.9	22226
864.032	22131
864.164	22177
864.296	22192
864.428	22192
864.559	22318
864.691	22348
864.823	22169
864.954	22219
865.086	22185
865.217	22112
865.349	21945
865.48	22029
865.612	22097
865.743	22135
865.875	22185
866.006	22059
866.137	22101
866.269	22166
866.4	22109
866.531	22040
866.662	22021
866.793	21979
866.924	22139
867.055	22040
867.186	21930
867.317	22032
867.448	21911
867.579	21838
867.71	21816
867.841	22025
867.972	22002
868.103	22128
868.233	21964
868.364	22017
868.495	22131
868.625	22261
868.756	22253
868.886	22162
869.017	22261
869.147	22299
869.278	22386
869.408	22310
869.539	22192
869.669	22375
869.799	22318
869.929	22413
870.06	22405
870.19	22470
870.32	22409
870.45	22504
870.58	22668
870.71	22767
870.84	22675
870.97	22679
871.1	22607
871.23	22820
871.36	22793
871.489	22702
871.619	22953
871.749	22854
871.879	22809
872.008	22927
872.138	22866
872.267	22812
872.397	22637
872.526	22694
872.656	22698
872.785	22736
872.915	22850
873.044	22968
873.173	22919
873.303	22915
873.432	22942
873.561	22987
873.69	22862
873.819	22934
873.948	22919
874.077	22961
874.206	22915
874.335	22858
874.464	23098
874.593	23075
874.722	22976
874.851	23121
874.979	23064
875.108	23105
875.237	22877
875.365	22953
875.494	23060
875.623	23200
875.751	23060
875.88	23105
876.008	23159
876.136	23185
876.265	23402
876.393	23585
876.521	23585
876.65	23444
876.778	23463
876.906	23440
877.034	23421
877.162	23410
877.29	23220
877.418	23482
877.546	23463
877.674	23356
877.802	23471
877.93	23330
878.058	23414
878.185	23280
878.313	23402
878.441	23391
878.568	23242
878.696	23307
878.824	23493
878.951	23429
879.079	23471
879.206	23752
879.333	23562
879.461	23379
879.588	23566
879.715	23627
879.842	23775
879.97	23467
880.097	23181
880.224	23223
880.351	23280
880.478	23303
880.605	23200
880.732	23280
880.859	23406
880.986	23246
881.112	23143
881.239	22957
881.366	23022
881.493	22938
881.619	22972
881.746	22946
881.872	22778
881.999	22828
882.125	22634
882.252	22782
882.378	22755
882.505	22847
882.631	22713
882.757	22462
882.883	22645
883.01	22466
883.136	22402
883.262	22382
883.388	22348
883.514	22485
883.64	22390
883.766	22379
883.892	22303
884.018	22257
884.143	22337
884.269	22481
884.395	22105
884.52	22040
884.646	22101
884.772	22086
884.897	21941
885.023	22116
885.148	22268
885.274	22249
885.399	22173
885.524	22204
885.65	22044
885.775	22154
885.9	22093
886.025	22207
886.15	22158
886.275	21941
886.4	21994
886.525	22029
886.65	21899
886.775	22154
886.9	22230
887.025	22261
887.149	22044
887.274	21915
887.399	21846
887.523	21804
887.648	21850
887.773	21778
887.897	21930
888.021	21918
888.146	21759
888.27	22017
888.395	22029
888.519	21861
888.643	21850
888.767	21918
888.891	21717
889.015	21557
889.139	21675
889.263	21603
889.387	21850
889.511	21842
889.635	21778
889.759	21644
889.883	21580
890.006	21557
890.13	21667
890.254	21656
890.377	21641
890.501	21462
890.624	21249
890.748	21431
890.871	21287
890.995	21214
891.118	21150
891.241	21226
891.364	21214
891.488	21370
891.611	21131
891.734	21252
891.857	21237
891.98	21226
892.103	21203
892.226	21313
892.349	21142
892.471	21077
892.594	21100
892.717	21123
892.839	21119
892.962	21017
893.085	21089
893.207	21131
893.33	20910
893.452	20960
893.575	21203
893.697	21131
893.819	21203
893.941	21241
894.064	21104
894.186	21005
894.308	21058
894.43	21077
894.552	21203
894.674	21173
894.796	20990
894.918	21043
895.04	21024
895.161	21070
895.283	21131
895.405	20990
895.526	21062
895.648	21108
895.769	21123
895.891	21036
896.012	21195
896.134	21116
896.255	21005
896.376	21001
896.498	20998
896.619	21066
896.74	21051
896.861	21131
896.982	21526
897.103	21606
897.224	21374
897.345	21298
897.466	21230
897.587	21226
897.708	21481
897.828	21332
897.949	21135
898.07	21070
898.19	21211
898.311	21268
898.431	21157
898.552	21272
898.672	21317
898.792	21420
898.913	21264
899.033	21108
899.153	21150
899.273	20891
899.393	21051
899.513	21096
899.633	20998
899.753	21005
899.873	21017
899.993	20944
900.113	20994
900.232	20937
900.352	20956
900.472	20857
900.591	20644
900.711	20788
900.83	20731
900.95	20849
901.069	20868
901.189	20678
901.308	20393
901.427	20332
901.546	20400
901.665	20450
901.784	20366
901.904	20259
902.023	20218
902.141	19913
902.26	19833
902.379	19944
902.498	19883
902.617	19902
902.735	19864
902.854	19864
902.973	19784
903.091	19548
903.21	19476
903.328	19533
903.446	19343
903.565	19304
903.683	19320
903.801	19164
903.919	19190
904.038	19251
904.156	19046
904.274	19076
904.392	18859
904.51	18932
904.627	19091
904.745	19031
904.863	19103
904.981	18798
905.098	18730
905.216	18681
905.334	18791
905.451	18749
905.569	18658
905.686	18707
905.803	18673
905.921	18452
906.038	18540
906.155	18566
906.272	18350
906.389	18407
906.506	18140
906.623	18220
906.74	18281
906.857	18133
906.974	18121
907.091	18330
907.208	18399
907.324	18300
907.441	18174
907.557	17889
907.674	17996
907.79	17878
907.907	17969
908.023	17893
908.139	17958
908.256	17863
908.372	17840
908.488	17824
908.604	17649
908.72	17642
908.836	17680
908.952	17608
909.068	17707
909.184	17627
909.3	17562
909.415	17672
909.531	17623
909.647	17395
909.762	17482
909.878	17269
909.993	17376
910.108	17360
910.224	17273
910.339	17299
910.454	17220
910.57	17178
910.685	17041
910.8	17463
910.915	17212
911.03	17121
911.145	17067
911.259	16892
911.374	17018
911.489	16843
911.604	16847
911.718	16702
911.833	16702
911.947	16546
912.062	16508
912.176	16634
912.291	16748
912.405	16675
912.519	16911
912.633	16881
912.748	16733
912.862	16679
912.976	16512
913.09	16428
913.204	16474
913.318	16417
913.431	16615
913.545	16565
913.659	16550
913.772	16394
913.886	16329
914	16295
914.113	16390
914.226	16352
914.34	16325
914.453	16181
914.566	16295
914.68	16093
914.793	16154
914.906	16032
915.019	15941
915.132	15831
915.245	15911
915.358	15945
915.47	15903
915.583	15793
915.696	15846
915.809	15884
915.921	15964
916.034	15865
916.146	15747
916.259	15755
916.371	15797
916.483	15774
916.595	15709
916.708	15618
916.82	15717
916.932	15671
917.044	15625
917.156	15580
917.268	15568
917.38	15568
917.491	15496
917.603	15496
917.715	15500
917.826	15572
917.938	15370
918.049	15237
918.161	15431
918.272	15500
918.384	15477
918.495	15416
918.606	15241
918.717	15313
918.828	15275
918.939	15344
919.05	15116
919.161	15184
919.272	15100
919.383	15070
919.494	15214
919.604	15367
919.715	15188
919.826	15112
919.936	15222
920.047	15310
920.157	15188
920.267	15279
920.378	15195
920.488	15169
920.598	15329
920.708	15507
920.818	15355
920.928	15275
921.038	15496
921.148	15340
921.258	15093
921.368	15039
921.477	14975
921.587	14880
921.697	14811
921.806	14868
921.916	14743
922.025	14549
922.134	14484
922.244	14412
922.353	14552
922.462	14442
922.571	14381
922.68	14138
922.789	14202
922.898	14183
923.007	14168
923.116	14195
923.224	14157
923.333	14073
923.442	14107
923.55	13963
923.659	14043
923.767	14054
923.876	13890
923.984	14005
924.092	13814
924.201	13917
924.309	13925
924.417	13849
924.525	13761
924.633	13776
924.741	14625
924.849	13624
924.956	13822
925.064	13609
925.172	13514
925.279	13487
925.387	13563
925.494	13529
925.602	13704
925.709	13685
925.816	13491
925.924	13495
926.031	13525
926.138	13384
926.245	13544
926.352	13346
926.459	13495
926.566	13453
926.673	13400
926.779	13308
926.886	13301
926.993	13187
927.099	13110
927.206	13015
927.312	13088
927.419	13110
927.525	13072
927.631	13122
927.737	12894
927.843	12935
927.95	12814
928.056	12863
928.162	12871
928.267	12996
928.373	13556
928.479	13095
928.585	12814
928.69	12852
928.796	12867
928.901	12726
929.007	12604
929.112	12821
929.218	12700
929.323	12601
929.428	12665
929.533	12776
929.638	12566
929.743	12597
929.848	12589
929.953	12593
930.058	12513
930.163	12270
930.267	12311
930.372	12441
930.477	12148
930.581	12486
930.685	12319
930.79	12091
930.894	12175
930.998	12190
931.103	12262
931.207	11927
931.311	11824
931.415	11745
931.519	11516
931.623	11570
