Data from test_V78500241_2123.txt Node
Date: Fri Mar 25 15:56:30 CST 2022
User: usil
Spectrometer: V785-0024
Trigger mode: 0
Integration Time (sec): 4.000000E-1
Scans to average: 1
Nonlinearity correction enabled: false
Boxcar width: 0
Storing dark spectrum: false
XAxis mode: Wavelengths
Number of Pixels in Spectrum: 1024
>>>>>Begin Spectral Data<<<<<
801.071	29006
801.214	29033
801.356	28557
801.499	28599
801.641	28637
801.783	28535
801.926	28596
802.068	28653
802.211	28504
802.353	28516
802.496	28417
802.638	28230
802.78	28166
802.923	28154
803.065	28093
803.208	28257
803.35	28310
803.492	28371
803.635	28485
803.777	28508
803.919	28561
804.061	28782
804.204	28489
804.346	28405
804.488	28436
804.63	28516
804.773	28596
804.915	28710
805.057	28626
805.199	28489
805.341	28497
805.483	28630
805.626	28694
805.768	28615
805.91	28611
806.052	28702
806.194	28622
806.336	28866
806.478	28771
806.62	28588
806.762	28824
806.904	28835
807.046	29239
807.188	29071
807.33	29197
807.472	29349
807.614	29098
807.756	28957
807.898	28987
808.04	28812
808.182	28881
808.324	29098
808.465	29132
808.607	29200
808.749	29299
808.891	29493
809.033	29471
809.174	29372
809.316	29261
809.458	29421
809.6	29372
809.741	29421
809.883	29573
810.025	29726
810.166	29592
810.308	29653
810.45	29604
810.591	29619
810.733	29349
810.875	29277
811.016	29368
811.158	29303
811.299	29326
811.441	29528
811.582	29577
811.724	29330
811.865	29395
812.007	29353
812.148	29368
812.29	29364
812.431	29570
812.573	29646
812.714	29794
812.855	29786
812.997	29942
813.138	30232
813.279	30057
813.421	29920
813.562	29821
813.703	29672
813.845	29509
813.986	29368
814.127	29223
814.268	29041
814.41	29083
814.551	28999
814.692	29121
814.833	29174
814.974	29079
815.115	29090
815.256	29117
815.397	28965
815.539	29041
815.68	28953
815.821	28790
815.962	28946
816.103	28904
816.244	28850
816.385	28710
816.526	28649
816.666	28523
816.807	28386
816.948	28466
817.089	28577
817.23	28394
817.371	28265
817.512	28272
817.653	28474
817.793	28299
817.934	28303
818.075	28341
818.216	28481
818.356	28348
818.497	28356
818.638	28063
818.778	28131
818.919	28173
819.06	28158
819.2	28379
819.341	28421
819.481	28557
819.622	28618
819.762	28702
819.903	28649
820.043	28649
820.184	28584
820.324	28375
820.465	28721
820.605	28626
820.746	28542
820.886	28432
821.026	28599
821.167	28542
821.307	28478
821.447	28394
821.588	28337
821.728	28287
821.868	28059
822.008	27968
822.149	27838
822.289	27819
822.429	27759
822.569	27622
822.709	27610
822.849	27408
822.99	27435
823.13	27378
823.27	27382
823.41	27370
823.55	27066
823.69	27294
823.83	27184
823.97	27096
824.11	27077
824.25	27081
824.389	26960
824.529	27154
824.669	27104
824.809	27184
824.949	27062
825.089	27135
825.228	27180
825.368	26899
825.508	26963
825.648	26880
825.787	26887
825.927	27013
826.067	26773
826.206	26963
826.346	27138
826.485	27150
826.625	26948
826.765	27032
826.904	26914
827.044	26705
827.183	26670
827.323	26693
827.462	26765
827.601	26739
827.741	26689
827.88	26739
828.02	26598
828.159	26838
828.298	26781
828.437	26743
828.577	26667
828.716	26773
828.855	26526
828.994	26286
829.134	26271
829.273	26492
829.412	26377
829.551	26358
829.69	26377
829.829	26358
829.968	26465
830.107	26358
830.246	26320
830.385	26259
830.524	26187
830.663	26278
830.802	26096
830.941	26054
831.08	25997
831.219	25993
831.357	26122
831.496	26107
831.635	25997
831.774	25928
831.913	25769
832.051	25826
832.19	25727
832.329	25757
832.467	25624
832.606	25647
832.744	25681
832.883	25696
833.022	25597
833.16	25639
833.299	25757
833.437	25708
833.576	25799
833.714	25784
833.852	25769
833.991	25856
834.129	25750
834.267	25986
834.406	25681
834.544	25887
834.682	25723
834.821	25658
834.959	25860
835.097	25727
835.235	25772
835.373	25651
835.511	25715
835.65	25628
835.788	25548
835.926	25316
836.064	25209
836.202	25407
836.34	25525
836.478	25776
836.615	25685
836.753	25479
836.891	25548
837.029	25582
837.167	25479
837.305	25464
837.443	25510
837.58	25506
837.718	25396
837.856	25373
837.993	25392
838.131	25381
838.269	25225
838.406	25274
838.544	25213
838.681	25061
838.819	24928
838.956	24878
839.094	24772
839.231	24810
839.369	24970
839.506	25213
839.643	25027
839.781	24856
839.918	24798
840.055	24730
840.193	24783
840.33	24669
840.467	24795
840.604	24795
840.742	25027
840.879	24604
841.016	24661
841.153	24608
841.29	24798
841.427	24700
841.564	24856
841.701	24688
841.838	24734
841.975	24650
842.112	24631
842.249	24604
842.385	24574
842.522	24711
842.659	24654
842.796	24544
842.933	24513
843.069	24479
843.206	24471
843.343	24479
843.479	24418
843.616	24445
843.752	24323
843.889	24315
844.025	24460
844.162	24281
844.298	24216
844.435	24186
844.571	24159
844.708	24384
844.844	24426
844.98	24330
845.117	24327
845.253	24194
845.389	24087
845.525	24232
845.661	24159
845.798	24015
845.934	23901
846.07	23908
846.206	23889
846.342	24121
846.478	23935
846.614	23855
846.75	23619
846.886	23623
847.022	23767
847.158	23703
847.294	23710
847.429	23642
847.565	23695
847.701	23901
847.837	23372
847.972	23265
848.108	23547
848.244	23463
848.379	23414
848.515	23220
848.65	23330
848.786	23387
848.921	23265
849.057	23337
849.192	23345
849.328	23277
849.463	23334
849.598	23231
849.734	23254
849.869	23223
850.004	23010
850.14	23014
850.275	23056
850.41	23033
850.545	22862
850.68	23105
850.815	23166
850.95	22987
851.085	23185
851.22	23174
851.355	23067
851.49	23079
851.625	22927
851.76	23079
851.895	22858
852.03	22908
852.165	23037
852.299	23064
852.434	23155
852.569	23117
852.703	23064
852.838	23109
852.973	23147
853.107	23124
853.242	23006
853.376	22930
853.511	22771
853.645	22744
853.78	22965
853.914	22980
854.048	22759
854.183	22904
854.317	22824
854.451	23025
854.585	22862
854.72	22915
854.854	22938
854.988	22793
855.122	22854
855.256	22706
855.39	22850
855.524	22953
855.658	22820
855.792	22740
855.926	22881
856.06	22866
856.194	22869
856.327	22809
856.461	22843
856.595	22713
856.729	22877
856.862	22892
856.996	22866
857.13	22877
857.263	22919
857.397	22900
857.53	22900
857.664	22965
857.797	22873
857.931	22938
858.064	22877
858.197	22953
858.331	22816
858.464	22755
858.597	22782
858.731	22767
858.864	22961
858.997	22858
859.13	22835
859.263	22828
859.396	22900
859.529	22843
859.662	22717
859.795	22755
859.928	22831
860.061	23094
860.194	22999
860.327	23003
860.46	22790
860.592	22980
860.725	23094
860.858	22976
860.99	22816
861.123	22733
861.256	22710
861.388	22942
861.521	23562
861.653	22736
861.786	22634
861.918	22744
862.05	22702
862.183	22786
862.315	22790
862.447	22809
862.58	22908
862.712	22584
862.844	22573
862.976	22679
863.108	22698
863.24	23071
863.372	22550
863.504	22554
863.636	22584
863.768	22645
863.9	22436
864.032	22489
864.164	22504
864.296	22538
864.428	22630
864.559	22698
864.691	22649
864.823	22546
864.954	22508
865.086	22561
865.217	22417
865.349	22447
865.48	22325
865.612	22519
865.743	22637
865.875	22508
866.006	22436
866.137	22386
866.269	22375
866.4	22360
866.531	22280
866.662	22455
866.793	22375
866.924	22375
867.055	22329
867.186	22341
867.317	22238
867.448	22207
867.579	22268
867.71	22192
867.841	22207
867.972	22333
868.103	22249
868.233	22295
868.364	22314
868.495	22360
868.625	22466
868.756	22653
868.886	22599
869.017	22462
869.147	22710
869.278	22812
869.408	22554
869.539	22630
869.669	22649
869.799	22679
869.929	22771
870.06	22725
870.19	22847
870.32	22946
870.45	22980
870.58	22923
870.71	23113
870.84	23079
870.97	23071
871.1	23052
871.23	23170
871.36	23185
871.489	23174
871.619	23022
871.749	23155
871.879	23235
872.008	23326
872.138	23185
872.267	23181
872.397	23014
872.526	23033
872.656	23018
872.785	22965
872.915	23212
873.044	23311
873.173	23216
873.303	23162
873.432	23242
873.561	23246
873.69	23102
873.819	23235
873.948	23265
874.077	23220
874.206	23102
874.335	23185
874.464	23379
874.593	23421
874.722	23383
874.851	23493
874.979	23436
875.108	23554
875.237	23395
875.365	23353
875.494	23315
875.623	23356
875.751	23478
875.88	23402
876.008	23417
876.136	23657
876.265	23813
876.393	23885
876.521	23882
876.65	23969
876.778	23733
876.906	23718
877.034	23775
877.162	23840
877.29	23764
877.418	23779
877.546	23764
877.674	23638
877.802	23741
877.93	23714
878.058	23737
878.185	23680
878.313	23630
878.441	23824
878.568	23657
878.696	23649
878.824	23840
878.951	23889
879.079	24072
879.206	23958
879.333	23935
879.461	23779
879.588	23821
879.715	23973
879.842	23916
879.97	23965
880.097	23653
880.224	23478
880.351	23551
880.478	23535
880.605	23524
880.732	23516
880.859	23703
880.986	23691
881.112	23543
881.239	23490
881.366	23265
881.493	23231
881.619	23094
881.746	23060
881.872	23174
881.999	23124
882.125	23014
882.252	23151
882.378	23056
882.505	23288
882.631	22972
882.757	22755
882.883	22911
883.01	22797
883.136	22782
883.262	22672
883.388	22752
883.514	22771
883.64	22904
883.766	22637
883.892	22512
884.018	22626
884.143	22782
884.269	22759
884.395	22424
884.52	22379
884.646	22405
884.772	22276
884.897	22390
885.023	22329
885.148	22459
885.274	22645
885.399	22641
885.524	22363
885.65	22375
885.775	22451
885.9	22382
886.025	22478
886.15	22424
886.275	22417
886.4	22363
886.525	22405
886.65	22398
886.775	22249
886.9	22607
887.025	22626
887.149	22375
887.274	22211
887.399	22162
887.523	22276
887.648	21994
887.773	22082
887.897	22284
888.021	22226
888.146	22044
888.27	22253
888.395	22101
888.519	22291
888.643	22329
888.767	22143
888.891	22124
889.015	21865
889.139	22025
889.263	21850
889.387	22032
889.511	22128
889.635	22158
889.759	21861
889.883	21880
890.006	21918
890.13	22070
890.254	21797
890.377	21785
890.501	21797
890.624	21671
890.748	21739
890.871	21492
890.995	21443
891.118	21549
891.241	21557
891.364	21580
891.488	21663
891.611	21564
891.734	21473
891.857	21610
891.98	21397
892.103	21587
892.226	21568
892.349	21401
892.471	21325
892.594	21416
892.717	21447
892.839	21405
892.962	21382
893.085	21439
893.207	21401
893.33	21306
893.452	21363
893.575	21428
893.697	21378
893.819	21568
893.941	21599
894.064	21538
894.186	21268
894.308	21188
894.43	21492
894.552	21519
894.674	21401
894.796	21256
894.918	21218
895.04	21412
895.161	21317
895.283	21405
895.405	21283
895.526	21359
895.648	21283
895.769	21397
895.891	21405
896.012	21496
896.134	21469
896.255	21245
896.376	21336
896.498	21355
896.619	21386
896.74	21298
896.861	21359
896.982	21724
897.103	21739
897.224	21542
897.345	21553
897.466	21469
897.587	21515
897.708	21686
897.828	21599
897.949	21496
898.07	21374
898.19	21420
898.311	21637
898.431	21515
898.552	21492
898.672	21564
898.792	21618
898.913	21568
899.033	21519
899.153	21306
899.273	21226
899.393	21329
899.513	21340
899.633	21218
899.753	21272
899.873	21176
899.993	21275
900.113	21252
900.232	21256
900.352	21275
900.472	21020
900.591	21116
900.711	20967
900.83	21100
900.95	21161
901.069	21024
901.189	20952
901.308	20731
901.427	20632
901.546	20773
901.665	20526
901.784	20670
901.904	20446
902.023	20522
902.141	20107
902.26	20088
902.379	20218
902.498	20107
902.617	20062
902.735	20134
902.854	20134
902.973	19963
903.091	19727
903.21	19742
903.328	19879
903.446	19651
903.565	19586
903.683	19571
903.801	19426
903.919	19343
904.038	19575
904.156	19225
904.274	19525
904.392	19217
904.51	19232
904.627	19373
904.745	19259
904.863	19232
904.981	19126
905.098	18947
905.216	18954
905.334	18916
905.451	19076
905.569	18935
905.686	18977
905.803	19008
905.921	18779
906.038	18875
906.155	18696
906.272	18688
906.389	18703
906.506	18498
906.623	18566
906.74	18525
906.857	18330
906.974	18327
907.091	18528
907.208	18547
907.324	18642
907.441	18433
907.557	18304
907.674	18213
907.79	18091
907.907	18194
908.023	18327
908.139	18178
908.256	18163
908.372	18083
908.488	18095
908.604	18072
908.72	17840
908.836	17878
908.952	17882
909.068	17973
909.184	18102
909.3	17836
909.415	17882
909.531	17942
909.647	17703
909.762	17562
909.878	17577
909.993	17642
910.108	17619
910.224	17619
910.339	17486
910.454	17463
910.57	17356
910.685	17395
910.8	17596
910.915	17566
911.03	17467
911.145	17174
911.259	17235
911.374	17212
911.489	17075
911.604	17147
911.718	16881
911.833	16885
911.947	16869
912.062	16786
912.176	17018
912.291	16965
912.405	17022
912.519	17098
912.633	17045
912.748	16942
912.862	16847
912.976	16687
913.09	16702
913.204	16698
913.318	16721
913.431	16854
913.545	16892
913.659	16713
913.772	16675
913.886	16573
914	16573
914.113	16592
914.226	16683
914.34	16531
914.453	16455
914.566	16573
914.68	16421
914.793	16337
914.906	16139
915.019	16166
915.132	16120
915.245	16078
915.358	16082
915.47	16124
915.583	16078
915.696	16120
915.809	16166
915.921	16131
916.034	16055
916.146	15972
916.259	15987
916.371	16101
916.483	16082
916.595	15934
916.708	15876
916.82	15850
916.932	15846
917.044	15823
917.156	15846
917.268	15637
917.38	15755
917.491	15686
917.603	15587
917.715	15747
917.826	15819
917.938	15561
918.049	15572
918.161	15576
918.272	15781
918.384	15766
918.495	15709
918.606	15511
918.717	15389
918.828	15515
918.939	15431
919.05	15397
919.161	15405
919.272	15214
919.383	15279
919.494	15466
919.604	15644
919.715	15485
919.826	15348
919.936	15363
920.047	15412
920.157	15336
920.267	15504
920.378	15389
920.488	15321
920.598	15526
920.708	15694
920.818	15515
920.928	15412
921.038	15686
921.148	15542
921.258	15317
921.368	15207
921.477	15066
921.587	15074
921.697	15001
921.806	15089
921.916	14990
922.025	14800
922.134	14826
922.244	14708
922.353	14765
922.462	14644
922.571	14598
922.68	14343
922.789	14396
922.898	14351
923.007	14339
923.116	14438
923.224	14389
923.333	14332
923.442	14115
923.55	14206
923.659	14263
923.767	14305
923.876	14142
923.984	14229
924.092	13970
924.201	14088
924.309	14077
924.417	14103
924.525	14100
924.633	13997
924.741	14716
924.849	13788
924.956	13974
925.064	13864
925.172	13734
925.279	13727
925.387	13814
925.494	13799
925.602	14005
925.709	13799
925.816	13620
925.924	13693
926.031	13719
926.138	13685
926.245	13655
926.352	13537
926.459	13677
926.566	13738
926.673	13518
926.779	13548
926.886	13396
926.993	13350
927.099	13251
927.206	13263
927.312	13213
927.419	13293
927.525	13301
927.631	13343
927.737	13152
927.843	13118
927.95	13080
928.056	13126
928.162	13110
928.267	13126
928.373	13731
928.479	13156
928.585	12821
928.69	13057
928.796	12993
928.901	12890
929.007	12787
929.112	12996
929.218	12875
929.323	12837
929.428	12848
929.533	12954
929.638	12684
929.743	12795
929.848	12707
929.953	12730
930.058	12578
930.163	12414
930.267	12422
930.372	12566
930.477	12323
930.581	12601
930.685	12513
930.79	12262
930.894	12380
930.998	12327
931.103	12437
931.207	12049
931.311	12064
931.415	11973
931.519	11710
931.623	11665
