Data from test_V78500241_2491.txt Node
Date: Fri Mar 25 15:59:03 CST 2022
User: usil
Spectrometer: V785-0024
Trigger mode: 0
Integration Time (sec): 4.000000E-1
Scans to average: 1
Nonlinearity correction enabled: false
Boxcar width: 0
Storing dark spectrum: false
XAxis mode: Wavelengths
Number of Pixels in Spectrum: 1024
>>>>>Begin Spectral Data<<<<<
801.071	28394
801.214	28394
801.356	28246
801.499	27975
801.641	27937
801.783	28006
801.926	27987
802.068	28139
802.211	27991
802.353	27922
802.496	27732
802.638	27694
802.78	27724
802.923	27583
803.065	27530
803.208	27534
803.35	27633
803.492	27861
803.635	27907
803.777	27831
803.919	27876
804.061	28226
804.204	27960
804.346	27789
804.488	27861
804.63	27964
804.773	27934
804.915	28002
805.057	28006
805.199	27838
805.341	28131
805.483	27994
805.626	28078
805.768	27968
805.91	28120
806.052	28067
806.194	28025
806.336	28055
806.478	28025
806.62	28055
806.762	28166
806.904	28272
807.046	28519
807.188	28535
807.33	28531
807.472	28565
807.614	28322
807.756	28489
807.898	28276
808.04	28192
808.182	28352
808.324	28322
808.465	28299
808.607	28653
808.749	28691
808.891	28793
809.033	28843
809.174	28812
809.316	28664
809.458	28710
809.6	28733
809.741	28930
809.883	28843
810.025	29128
810.166	28987
810.308	29083
810.45	29041
810.591	28968
810.733	28786
810.875	28782
811.016	28634
811.158	28607
811.299	28733
811.441	28892
811.582	28938
811.724	28721
811.865	28489
812.007	28683
812.148	28869
812.29	28713
812.431	28919
812.573	29022
812.714	29178
812.855	29273
812.997	29345
813.138	29471
813.279	29436
813.421	29220
813.562	29193
813.703	29132
813.845	28961
813.986	28672
814.127	28497
814.268	28538
814.41	28485
814.551	28466
814.692	28478
814.833	28455
814.974	28322
815.115	28440
815.256	28440
815.397	28314
815.539	28299
815.68	28299
815.821	28147
815.962	28268
816.103	28249
816.244	28044
816.385	28025
816.526	27998
816.666	27930
816.807	27690
816.948	27800
817.089	27972
817.23	27705
817.371	27789
817.512	27709
817.653	27747
817.793	27591
817.934	27766
818.075	27804
818.216	27686
818.356	27660
818.497	27553
818.638	27412
818.778	27393
818.919	27622
819.06	27587
819.2	27515
819.341	27629
819.481	27736
819.622	27945
819.762	28135
819.903	27991
820.043	27975
820.184	27808
820.324	27899
820.465	27979
820.605	27930
820.746	27789
820.886	27679
821.026	27819
821.167	27854
821.307	27827
821.447	27732
821.588	27633
821.728	27599
821.868	27359
822.008	27211
822.149	27241
822.289	27176
822.429	26762
822.569	27013
822.709	26853
822.849	26735
822.99	26701
823.13	26632
823.27	26663
823.41	26640
823.55	26518
823.69	26545
823.83	26511
823.97	26396
824.11	26294
824.25	26153
824.389	26389
824.529	26412
824.669	26434
824.809	26552
824.949	26374
825.089	26461
825.228	26381
825.368	26256
825.508	26225
825.648	26244
825.787	26199
825.927	26225
826.067	26164
826.206	26191
826.346	26324
826.485	26370
826.625	26301
826.765	26446
826.904	26305
827.044	25852
827.183	26039
827.323	26062
827.462	26024
827.601	25989
827.741	26088
827.88	25993
828.02	25909
828.159	25887
828.298	25932
828.437	26046
828.577	25856
828.716	26001
828.855	25852
828.994	25639
829.134	25746
829.273	25746
829.412	25609
829.551	25510
829.69	25544
829.829	25723
829.968	25742
830.107	25613
830.246	25723
830.385	25567
830.524	25601
830.663	25472
830.802	25415
830.941	25175
831.08	25232
831.219	25339
831.357	25327
831.496	25533
831.635	25221
831.774	25145
831.913	25126
832.051	25156
832.19	25057
832.329	24970
832.467	25023
832.606	24722
832.744	24852
832.883	24821
833.022	24890
833.16	24798
833.299	24840
833.437	24954
833.576	24992
833.714	24875
833.852	25072
833.991	25107
834.129	25042
834.267	25019
834.406	25015
834.544	25031
834.682	24905
834.821	24890
834.959	25133
835.097	24852
835.235	24867
835.373	24924
835.511	25065
835.65	24802
835.788	24833
835.926	24635
836.064	24673
836.202	24623
836.34	24768
836.478	24871
836.615	24753
836.753	24730
836.891	24848
837.029	24890
837.167	24688
837.305	24673
837.443	24673
837.58	24623
837.718	24642
837.856	24665
837.993	24616
838.131	24494
838.269	24452
838.406	24479
838.544	24445
838.681	24292
838.819	24243
838.956	24144
839.094	24049
839.231	24136
839.369	24262
839.506	24460
839.643	24388
839.781	24148
839.918	24026
840.055	23988
840.193	24087
840.33	24015
840.467	23988
840.604	24076
840.742	24205
840.879	23927
841.016	23958
841.153	23916
841.29	24114
841.427	23961
841.564	23950
841.701	24022
841.838	23935
841.975	23866
842.112	24011
842.249	24026
842.385	23821
842.522	23931
842.659	23863
842.796	23756
842.933	23733
843.069	23756
843.206	23855
843.343	23813
843.479	23687
843.616	23802
843.752	23436
843.889	23592
844.025	23790
844.162	23467
844.298	23539
844.435	23551
844.571	23448
844.708	23547
844.844	23676
844.98	23653
845.117	23737
845.253	23581
845.389	23269
845.525	23372
845.661	23410
845.798	23220
845.934	23406
846.07	23261
846.206	23231
846.342	23345
846.478	23326
846.614	23086
846.75	22877
846.886	22919
847.022	23071
847.158	23044
847.294	23060
847.429	23025
847.565	22889
847.701	23223
847.837	22698
847.972	22679
848.108	22790
848.244	22835
848.379	22542
848.515	22535
848.65	22592
848.786	22550
848.921	22778
849.057	22698
849.192	22691
849.328	22691
849.463	22603
849.598	22527
849.734	22462
849.869	22462
850.004	22428
850.14	22265
850.275	22344
850.41	22177
850.545	22360
850.68	22295
850.815	22276
850.95	22363
851.085	22493
851.22	22519
851.355	22375
851.49	22371
851.625	22295
851.76	22363
851.895	22204
852.03	22177
852.165	22382
852.299	22432
852.434	22405
852.569	22432
852.703	22386
852.838	22363
852.973	22436
853.107	22424
853.242	22322
853.376	22177
853.511	22070
853.645	22238
853.78	22268
853.914	22169
854.048	22173
854.183	22219
854.317	22234
854.451	22333
854.585	22181
854.72	22162
854.854	22135
854.988	22082
855.122	22242
855.256	22070
855.39	22139
855.524	22086
855.658	22246
855.792	22109
855.926	22276
856.06	22112
856.194	22192
856.327	22097
856.461	22211
856.595	22101
856.729	22128
856.862	22325
856.996	22078
857.13	22268
857.263	22253
857.397	22265
857.53	22139
857.664	22086
857.797	22299
857.931	22219
858.064	22116
858.197	22265
858.331	22166
858.464	22109
858.597	22150
858.731	22070
858.864	22131
858.997	22055
859.13	22162
859.263	22166
859.396	22238
859.529	22135
859.662	22166
859.795	22124
859.928	22158
860.061	22337
860.194	22474
860.327	22109
860.46	22173
860.592	22249
860.725	22356
860.858	22306
860.99	22169
861.123	22082
861.256	22078
861.388	22280
861.521	22927
861.653	22166
861.786	22048
861.918	22029
862.05	22044
862.183	22150
862.315	21998
862.447	22074
862.58	22013
862.712	21838
862.844	21827
862.976	21888
863.108	21873
863.24	22280
863.372	21892
863.504	21835
863.636	21812
863.768	21987
863.9	21918
864.032	21816
864.164	21797
864.296	21797
864.428	21991
864.559	21922
864.691	21983
864.823	21880
864.954	21880
865.086	21819
865.217	21793
865.349	21747
865.48	21778
865.612	21770
865.743	21789
865.875	21865
866.006	21770
866.137	21846
866.269	21739
866.4	21827
866.531	21751
866.662	21500
866.793	21648
866.924	21736
867.055	21743
867.186	21690
867.317	21701
867.448	21644
867.579	21553
867.71	21576
867.841	21770
867.972	21728
868.103	21698
868.233	21701
868.364	21713
868.495	21728
868.625	21945
868.756	22017
868.886	21812
869.017	21831
869.147	21968
869.278	22116
869.408	21865
869.539	21857
869.669	21987
869.799	21968
869.929	21934
870.06	21972
870.19	22196
870.32	22215
870.45	22265
870.58	22291
870.71	22440
870.84	22489
870.97	22249
871.1	22303
871.23	22592
871.36	22611
871.489	22390
871.619	22596
871.749	22622
871.879	22577
872.008	22584
872.138	22573
872.267	22417
872.397	22314
872.526	22394
872.656	22428
872.785	22284
872.915	22508
873.044	22607
873.173	22592
873.303	22596
873.432	22607
873.561	22603
873.69	22611
873.819	22630
873.948	22653
874.077	22531
874.206	22500
874.335	22489
874.464	22668
874.593	22858
874.722	22782
874.851	22847
874.979	22793
875.108	22850
875.237	22599
875.365	22660
875.494	22721
875.623	22782
875.751	22664
875.88	22740
876.008	22934
876.136	22915
876.265	23143
876.393	23330
876.521	23151
876.65	23292
876.778	23041
876.906	23121
877.034	23132
877.162	23185
877.29	23052
877.418	23140
877.546	23064
877.674	23033
877.802	23025
877.93	23124
878.058	23056
878.185	22972
878.313	22984
878.441	23102
878.568	22858
878.696	23025
878.824	23098
878.951	23178
879.079	23330
879.206	23459
879.333	23185
879.461	23166
879.588	23200
879.715	23280
879.842	23307
879.97	23174
880.097	23018
880.224	23010
880.351	22987
880.478	22786
880.605	22923
880.732	22892
880.859	23124
880.986	23006
881.112	22915
881.239	22790
881.366	22771
881.493	22588
881.619	22497
881.746	22512
881.872	22497
881.999	22489
882.125	22382
882.252	22356
882.378	22428
882.505	22535
882.631	22360
882.757	22188
882.883	22234
883.01	22207
883.136	22044
883.262	21994
883.388	22055
883.514	22181
883.64	22192
883.766	22067
883.892	21880
884.018	22059
884.143	22105
884.269	22177
884.395	21884
884.52	21880
884.646	21831
884.772	21774
884.897	21717
885.023	21755
885.148	21865
885.274	21869
885.399	21781
885.524	21797
885.65	21819
885.775	21762
885.9	21835
886.025	21884
886.15	21911
886.275	21774
886.4	21682
886.525	21736
886.65	21660
886.775	21603
886.9	21884
887.025	22051
887.149	21705
887.274	21625
887.399	21549
887.523	21648
887.648	21389
887.773	21428
887.897	21538
888.021	21618
888.146	21511
888.27	21637
888.395	21644
888.519	21606
888.643	21587
888.767	21443
888.891	21591
889.015	21291
889.139	21294
889.263	21401
889.387	21507
889.511	21500
889.635	21526
889.759	21313
889.883	21321
890.006	21310
890.13	21530
890.254	21233
890.377	21306
890.501	21085
890.624	21036
890.748	21218
890.871	21001
890.995	20914
891.118	20834
891.241	20906
891.364	20937
891.488	21020
891.611	20853
891.734	21039
891.857	20944
891.98	20883
892.103	20899
892.226	20686
892.349	20853
892.471	20697
892.594	20686
892.717	20910
892.839	20765
892.962	20960
893.085	20823
893.207	20765
893.33	20796
893.452	20632
893.575	20785
893.697	20872
893.819	20944
893.941	20941
894.064	20952
894.186	20743
894.308	20701
894.43	20746
894.552	20872
894.674	20872
894.796	20579
894.918	20807
895.04	20792
895.161	20952
895.283	20849
895.405	20720
895.526	20785
895.648	20868
895.769	20823
895.891	20868
896.012	20868
896.134	20788
896.255	20895
896.376	20788
896.498	20785
896.619	20724
896.74	20864
896.861	20880
896.982	21089
897.103	21112
897.224	21081
897.345	20921
897.466	20994
897.587	20941
897.708	21066
897.828	21066
897.949	20929
898.07	20830
898.19	20937
898.311	21017
898.431	20982
898.552	21058
898.672	21112
898.792	21142
898.913	21051
899.033	20944
899.153	20910
899.273	20773
899.393	20765
899.513	20689
899.633	20792
899.753	20708
899.873	20651
899.993	20746
900.113	20811
900.232	20678
900.352	20678
900.472	20457
900.591	20461
900.711	20598
900.83	20457
900.95	20651
901.069	20613
901.189	20324
901.308	20168
901.427	20100
901.546	20149
901.665	20126
901.784	20111
901.904	19936
902.023	19818
902.141	19628
902.26	19685
902.379	19830
902.498	19795
902.617	19506
902.735	19666
902.854	19430
902.973	19468
903.091	19301
903.21	19270
903.328	19289
903.446	19122
903.565	19129
903.683	18966
903.801	18962
903.919	19080
904.038	19019
904.156	18829
904.274	18867
904.392	18821
904.51	18715
904.627	18878
904.745	18878
904.863	18951
904.981	18597
905.098	18601
905.216	18475
905.334	18593
905.451	18559
905.569	18486
905.686	18448
905.803	18509
905.921	18391
906.038	18456
906.155	18304
906.272	18159
906.389	18205
906.506	18087
906.623	18030
906.74	18117
906.857	17897
906.974	18007
907.091	18030
907.208	18155
907.324	18155
907.441	17980
907.557	17840
907.674	17748
907.79	17722
907.907	17718
908.023	17703
908.139	17786
908.256	17668
908.372	17649
908.488	17592
908.604	17482
908.72	17376
908.836	17436
908.952	17459
909.068	17570
909.184	17501
909.3	17349
909.415	17566
909.531	17516
909.647	17227
909.762	17197
909.878	17140
909.993	17090
910.108	17079
910.224	17151
910.339	17151
910.454	17071
910.57	16991
910.685	16957
910.8	17166
910.915	17109
911.03	17067
911.145	16786
911.259	16691
911.374	16774
911.489	16694
911.604	16664
911.718	16508
911.833	16474
911.947	16424
912.062	16356
912.176	16500
912.291	16455
912.405	16584
912.519	16653
912.633	16687
912.748	16462
912.862	16447
912.976	16356
913.09	16147
913.204	16257
913.318	16318
913.431	16348
913.545	16348
913.659	16379
913.772	16166
913.886	16238
914	16090
914.113	16234
914.226	16162
914.34	16131
914.453	16093
914.566	16078
914.68	15930
914.793	15911
914.906	15781
915.019	15591
915.132	15610
915.245	15667
915.358	15717
915.47	15667
915.583	15698
915.696	15709
915.809	15884
915.921	15720
916.034	15656
916.146	15595
916.259	15629
916.371	15648
916.483	15618
916.595	15526
916.708	15481
916.82	15568
916.932	15488
917.044	15542
917.156	15523
917.268	15302
917.38	15302
917.491	15260
917.603	15348
917.715	15397
917.826	15405
917.938	15264
918.049	15116
918.161	15291
918.272	15359
918.384	15382
918.495	15241
918.606	15066
918.717	15020
918.828	15100
918.939	15214
919.05	14975
919.161	15017
919.272	14815
919.383	14990
919.494	15066
919.604	15256
919.715	14990
919.826	14975
919.936	15066
920.047	15135
920.157	14998
920.267	15192
920.378	14990
920.488	14990
920.598	15199
920.708	15329
920.818	15176
920.928	15093
921.038	15355
921.148	15218
921.258	14929
921.368	14868
921.477	14765
921.587	14701
921.697	14602
921.806	14758
921.916	14636
922.025	14480
922.134	14374
922.244	14336
922.353	14480
922.462	14343
922.571	14263
922.68	14035
922.789	13970
922.898	14050
923.007	13917
923.116	13993
923.224	14031
923.333	13986
923.442	13849
923.55	13894
923.659	13898
923.767	13898
923.876	13807
923.984	13906
924.092	13700
924.201	13799
924.309	13750
924.417	13647
924.525	13643
924.633	13704
924.741	14454
924.849	13563
924.956	13476
925.064	13411
925.172	13362
925.279	13369
925.387	13434
925.494	13354
925.602	13521
925.709	13438
925.816	13354
925.924	13396
926.031	13441
926.138	13354
926.245	13407
926.352	13282
926.459	13354
926.566	13430
926.673	13270
926.779	13168
926.886	13168
926.993	12993
927.099	12996
927.206	12863
927.312	12852
927.419	12989
927.525	12977
927.631	13088
927.737	12856
927.843	12738
927.95	12665
928.056	12787
928.162	12783
928.267	12859
928.373	13384
928.479	12863
928.585	12521
928.69	12707
928.796	12795
928.901	12623
929.007	12498
929.112	12662
929.218	12513
929.323	12506
929.428	12433
929.533	12635
929.638	12467
929.743	12372
929.848	12494
929.953	12418
930.058	12353
930.163	12197
930.267	12209
930.372	12395
930.477	12064
930.581	12289
930.685	12197
930.79	12068
930.894	12087
930.998	12019
931.103	12186
931.207	11809
931.311	11745
931.415	11547
931.519	11406
931.623	11353
