Data from test_V78500241_698.txt Node
Date: Fri Mar 25 15:46:38 CST 2022
User: usil
Spectrometer: V785-0024
Trigger mode: 0
Integration Time (sec): 4.000000E-1
Scans to average: 1
Nonlinearity correction enabled: false
Boxcar width: 0
Storing dark spectrum: false
XAxis mode: Wavelengths
Number of Pixels in Spectrum: 1024
>>>>>Begin Spectral Data<<<<<
801.071	27545
801.214	27595
801.356	27317
801.499	27249
801.641	27009
801.783	27138
801.926	27211
802.068	27009
802.211	27055
802.353	26918
802.496	26861
802.638	26857
802.78	26845
802.923	26689
803.065	26746
803.208	26689
803.35	26853
803.492	26842
803.635	26990
803.777	26826
803.919	27017
804.061	27211
804.204	27085
804.346	26990
804.488	26838
804.63	26876
804.773	26853
804.915	27005
805.057	27032
805.199	26986
805.341	26933
805.483	27264
805.626	27058
805.768	26857
805.91	27032
806.052	27150
806.194	27096
806.336	27161
806.478	27089
806.62	27024
806.762	27180
806.904	27329
807.046	27629
807.188	27568
807.33	27469
807.472	27439
807.614	27580
807.756	27439
807.898	27294
808.04	27317
808.182	27393
808.324	27226
808.465	27408
808.607	27466
808.749	27694
808.891	27698
809.033	27880
809.174	27892
809.316	27701
809.458	27789
809.6	27736
809.741	27690
809.883	27888
810.025	27975
810.166	27861
810.308	28051
810.45	27945
810.591	27789
810.733	27835
810.875	27812
811.016	27587
811.158	27511
811.299	27759
811.441	27895
811.582	27869
811.724	27720
811.865	27694
812.007	27694
812.148	27705
812.29	27812
812.431	27865
812.573	27937
812.714	27983
812.855	28154
812.997	28249
813.138	28409
813.279	28325
813.421	28128
813.562	28257
813.703	28067
813.845	27975
813.986	27587
814.127	27564
814.268	27317
814.41	27397
814.551	27287
814.692	27447
814.833	27363
814.974	27340
815.115	27427
815.256	27199
815.397	27302
815.539	27237
815.68	27150
815.821	27142
815.962	27161
816.103	27165
816.244	27074
816.385	27001
816.526	26944
816.666	26773
816.807	26724
816.948	26743
817.089	26720
817.23	26739
817.371	26678
817.512	26644
817.653	26606
817.793	26598
817.934	26651
818.075	26606
818.216	26811
818.356	26549
818.497	26423
818.638	26499
818.778	26347
818.919	26282
819.06	26408
819.2	26488
819.341	26613
819.481	26602
819.622	26754
819.762	26883
819.903	26933
820.043	26815
820.184	26769
820.324	26686
820.465	26876
820.605	26659
820.746	26826
820.886	26636
821.026	26712
821.167	26670
821.307	26739
821.447	26716
821.588	26484
821.728	26408
821.868	26305
822.008	26138
822.149	26142
822.289	26157
822.429	25814
822.569	25811
822.709	25791
822.849	25696
822.99	25727
823.13	25441
823.27	25457
823.41	25438
823.55	25308
823.69	25491
823.83	25419
823.97	25472
824.11	25285
824.25	25133
824.389	25221
824.529	25441
824.669	25141
824.809	25373
824.949	25350
825.089	25388
825.228	25308
825.368	25095
825.508	25133
825.648	25183
825.787	25122
825.927	25221
826.067	24977
826.206	25038
826.346	25400
826.485	25232
826.625	25126
826.765	25164
826.904	25088
827.044	24875
827.183	24886
827.323	24840
827.462	24916
827.601	24753
827.741	24768
827.88	24700
828.02	24749
828.159	24844
828.298	24669
828.437	24779
828.577	24791
828.716	24741
828.855	24715
828.994	24601
829.134	24555
829.273	24608
829.412	24509
829.551	24426
829.69	24456
829.829	24646
829.968	24650
830.107	24555
830.246	24460
830.385	24502
830.524	24361
830.663	24315
830.802	24273
830.941	23927
831.08	24003
831.219	24163
831.357	24194
831.496	24544
831.635	24258
831.774	24155
831.913	23977
832.051	23889
832.19	23805
832.329	23760
832.467	23958
832.606	23866
832.744	23775
832.883	23733
833.022	23745
833.16	23771
833.299	23809
833.437	23756
833.576	23866
833.714	23828
833.852	23764
833.991	23950
834.129	24026
834.267	23999
834.406	23885
834.544	23866
834.682	23836
834.821	23783
834.959	24053
835.097	23745
835.235	23748
835.373	23935
835.511	23836
835.65	23680
835.788	23630
835.926	23668
836.064	23535
836.202	23554
836.34	23676
836.478	23752
836.615	23665
836.753	23649
836.891	23661
837.029	23786
837.167	23733
837.305	23592
837.443	23604
837.58	23665
837.718	23577
837.856	23497
837.993	23459
838.131	23570
838.269	23322
838.406	23467
838.544	23102
838.681	23231
838.819	23166
838.956	22911
839.094	23105
839.231	23006
839.369	23098
839.506	23383
839.643	23398
839.781	23181
839.918	22968
840.055	22961
840.193	22957
840.33	22953
840.467	22911
840.604	23075
840.742	23239
840.879	22713
841.016	22885
841.153	22809
841.29	23151
841.427	23022
841.564	22923
841.701	22911
841.838	22854
841.975	22694
842.112	22999
842.249	22706
842.385	22748
842.522	22869
842.659	22759
842.796	22653
842.933	22634
843.069	22660
843.206	22584
843.343	22687
843.479	22797
843.616	22763
843.752	22440
843.889	22436
844.025	22557
844.162	22470
844.298	22535
844.435	22489
844.571	22455
844.708	22523
844.844	22588
844.98	22596
845.117	22516
845.253	22497
845.389	22219
845.525	22276
845.661	22462
845.798	22207
845.934	22375
846.07	22268
846.206	22238
846.342	22371
846.478	22204
846.614	21945
846.75	21827
846.886	21937
847.022	21899
847.158	21994
847.294	21994
847.429	21915
847.565	21873
847.701	22204
847.837	21682
847.972	21648
848.108	21789
848.244	21682
848.379	21515
848.515	21473
848.65	21431
848.786	21443
848.921	21603
849.057	21549
849.192	21595
849.328	21561
849.463	21648
849.598	21481
849.734	21393
849.869	21355
850.004	21199
850.14	21359
850.275	21233
850.41	21180
850.545	21272
850.68	21214
850.815	21313
850.95	21397
851.085	21469
851.22	21389
851.355	21272
851.49	21230
851.625	21287
851.76	21329
851.895	21058
852.03	21218
852.165	21176
852.299	21321
852.434	21332
852.569	21329
852.703	21211
852.838	21310
852.973	21469
853.107	21291
853.242	21222
853.376	21074
853.511	20902
853.645	21062
853.78	21165
853.914	21066
854.048	21135
854.183	21074
854.317	21070
854.451	21344
854.585	21142
854.72	21039
854.854	21104
854.988	21154
855.122	21058
855.256	20975
855.39	21119
855.524	21351
855.658	21127
855.792	21070
855.926	21062
856.06	21260
856.194	21203
856.327	21017
856.461	21001
856.595	21043
856.729	21062
856.862	21131
856.996	21150
857.13	21146
857.263	21154
857.397	21165
857.53	21127
857.664	21135
857.797	21100
857.931	21207
858.064	21157
858.197	21192
858.331	21093
858.464	21039
858.597	20887
858.731	21108
858.864	21157
858.997	21070
859.13	21032
859.263	21157
859.396	21161
859.529	20982
859.662	21138
859.795	20902
859.928	21055
860.061	21256
860.194	21283
860.327	21192
860.46	21127
860.592	21218
860.725	21150
860.858	21222
860.99	21116
861.123	20986
861.256	21077
861.388	21127
861.521	21781
861.653	20967
861.786	20914
861.918	20906
862.05	20975
862.183	20948
862.315	21024
862.447	21154
862.58	20971
862.712	20762
862.844	20708
862.976	20849
863.108	20857
863.24	21351
863.372	20670
863.504	20891
863.636	20811
863.768	20792
863.9	20712
864.032	20632
864.164	20800
864.296	20956
864.428	20895
864.559	20910
864.691	20838
864.823	20834
864.954	20735
865.086	20670
865.217	20720
865.349	20678
865.48	20594
865.612	20655
865.743	20796
865.875	20750
866.006	20720
866.137	20769
866.269	20602
866.4	20670
866.531	20659
866.662	20754
866.793	20537
866.924	20579
867.055	20716
867.186	20583
867.317	20575
867.448	20571
867.579	20541
867.71	20473
867.841	20537
867.972	20541
868.103	20568
868.233	20632
868.364	20663
868.495	20823
868.625	20887
868.756	20963
868.886	20853
869.017	20830
869.147	20929
869.278	20933
869.408	20891
869.539	20849
869.669	20933
869.799	20979
869.929	20998
870.06	20979
870.19	21268
870.32	21195
870.45	21218
870.58	21321
870.71	21256
870.84	21340
870.97	21268
871.1	21241
871.23	21386
871.36	21504
871.489	21252
871.619	21344
871.749	21515
871.879	21481
872.008	21530
872.138	21408
872.267	21481
872.397	21382
872.526	21325
872.656	21348
872.785	21260
872.915	21473
873.044	21614
873.173	21500
873.303	21572
873.432	21610
873.561	21610
873.69	21614
873.819	21500
873.948	21633
874.077	21500
874.206	21401
874.335	21488
874.464	21557
874.593	21705
874.722	21705
874.851	21827
874.979	21701
875.108	21770
875.237	21789
875.365	21682
875.494	21717
875.623	21778
875.751	21709
875.88	21762
876.008	21846
876.136	21998
876.265	22223
876.393	22265
876.521	22101
876.65	22192
876.778	22051
876.906	22036
877.034	22067
877.162	22109
877.29	21930
877.418	22196
877.546	22101
877.674	21975
877.802	22078
877.93	22120
878.058	22040
878.185	21857
878.313	22090
878.441	22074
878.568	21892
878.696	22040
878.824	22063
878.951	22204
879.079	22276
879.206	22386
879.333	22223
879.461	22177
879.588	22128
879.715	22196
879.842	22440
879.97	22013
880.097	21945
880.224	21876
880.351	21880
880.478	21899
880.605	21945
880.732	21774
880.859	22116
880.986	21911
881.112	21895
881.239	21686
881.366	21545
881.493	21553
881.619	21485
881.746	21515
881.872	21595
881.999	21454
882.125	21321
882.252	21469
882.378	21408
882.505	21458
882.631	21469
882.757	21294
882.883	21348
883.01	21180
883.136	21058
883.262	21039
883.388	21058
883.514	21116
883.64	21184
883.766	21081
883.892	20891
884.018	21024
884.143	21138
884.269	21214
884.395	21043
884.52	20872
884.646	20796
884.772	20834
884.897	20724
885.023	20682
885.148	21036
885.274	21013
885.399	20975
885.524	20895
885.65	20853
885.775	20861
885.9	20769
886.025	20967
886.15	20960
886.275	20746
886.4	20693
886.525	20731
886.65	20716
886.775	20708
886.9	21013
887.025	21028
887.149	20686
887.274	20579
887.399	20697
887.523	20545
887.648	20556
887.773	20465
887.897	20674
888.021	20575
888.146	20587
888.27	20682
888.395	20640
888.519	20533
888.643	20674
888.767	20663
888.891	20583
889.015	20423
889.139	20385
889.263	20450
889.387	20571
889.511	20583
889.635	20503
889.759	20404
889.883	20317
890.006	20313
890.13	20415
890.254	20317
890.377	20370
890.501	20259
890.624	20221
890.748	20096
890.871	20001
890.995	19921
891.118	19902
891.241	19978
891.364	19906
891.488	20107
891.611	19974
891.734	20065
891.857	19993
891.98	19856
892.103	20065
892.226	19932
892.349	19989
892.471	19856
892.594	19928
892.717	19883
892.839	19860
892.962	19890
893.085	19856
893.207	19894
893.33	19772
893.452	19830
893.575	19967
893.697	19833
893.819	20054
893.941	20088
894.064	20012
894.186	19837
894.308	19868
894.43	19944
894.552	20035
894.674	19864
894.796	19643
894.918	19906
895.04	19917
895.161	19898
895.283	20012
895.405	19837
895.526	19803
895.648	19875
895.769	19928
895.891	19898
896.012	19890
896.134	19761
896.255	19944
896.376	19879
896.498	19868
896.619	19845
896.74	19928
896.861	19967
896.982	20233
897.103	20343
897.224	20183
897.345	20077
897.466	20138
897.587	20031
897.708	20130
897.828	20187
897.949	19936
898.07	20008
898.19	20065
898.311	20195
898.431	20031
898.552	20092
898.672	20229
898.792	20180
898.913	20122
899.033	20077
899.153	19753
899.273	19864
899.393	19845
899.513	19906
899.633	20008
899.753	19837
899.873	19811
899.993	19932
900.113	19784
900.232	19803
900.352	19674
900.472	19746
900.591	19533
900.711	19788
900.83	19662
900.95	19632
901.069	19795
901.189	19563
901.308	19335
901.427	19232
901.546	19251
901.665	19293
901.784	19263
901.904	19069
902.023	19008
902.141	18856
902.26	18715
902.379	18837
902.498	18635
902.617	18738
902.735	18810
902.854	18684
902.973	18768
903.091	18506
903.21	18311
903.328	18327
903.446	18433
903.565	18201
903.683	18174
903.801	18136
903.919	18148
904.038	18117
904.156	18026
904.274	18068
904.392	17931
904.51	18072
904.627	17988
904.745	18011
904.863	17988
904.981	17779
905.098	17802
905.216	17714
905.334	17752
905.451	17741
905.569	17748
905.686	17604
905.803	17611
905.921	17395
906.038	17604
906.155	17539
906.272	17364
906.389	17318
906.506	17220
906.623	17185
906.74	17239
906.857	17124
906.974	17166
907.091	17208
907.208	17296
907.324	17147
907.441	17204
907.557	16965
907.674	17022
907.79	16953
907.907	16873
908.023	16904
908.139	17018
908.256	16885
908.372	16816
908.488	16771
908.604	16634
908.72	16561
908.836	16664
908.952	16519
909.068	16706
909.184	16626
909.3	16656
909.415	16683
909.531	16637
909.647	16371
909.762	16329
909.878	16219
909.993	16287
910.108	16306
910.224	16344
910.339	16314
910.454	16276
910.57	16291
910.685	16139
910.8	16363
910.915	16303
911.03	16051
911.145	15956
911.259	16013
911.374	15911
911.489	15861
911.604	15781
911.718	15781
911.833	15755
911.947	15671
912.062	15485
912.176	15739
912.291	15755
912.405	15755
912.519	15911
912.633	15793
912.748	15656
912.862	15671
912.976	15553
913.09	15405
913.204	15351
913.318	15534
913.431	15606
913.545	15576
913.659	15660
913.772	15428
913.886	15393
914	15275
914.113	15291
914.226	15401
914.34	15363
914.453	15173
914.566	15393
914.68	15165
914.793	15119
914.906	15028
915.019	14986
915.132	14902
915.245	14849
915.358	14902
915.47	14941
915.583	14971
915.696	14982
915.809	15070
915.921	15047
916.034	15028
916.146	14823
916.259	14853
916.371	14937
916.483	14838
916.595	14712
916.708	14785
916.82	14777
916.932	14724
917.044	14804
917.156	14701
917.268	14556
917.38	14594
917.491	14568
917.603	14579
917.715	14590
917.826	14701
917.938	14507
918.049	14400
918.161	14621
918.272	14636
918.384	14537
918.495	14552
918.606	14343
918.717	14320
918.828	14389
918.939	14370
919.05	14282
919.161	14351
919.272	14145
919.383	14180
919.494	14332
919.604	14530
919.715	14332
919.826	14256
919.936	14324
920.047	14358
920.157	14328
920.267	14419
920.378	14275
920.488	14320
920.598	14339
920.708	14606
920.818	14415
920.928	14415
921.038	14568
921.148	14571
921.258	14328
921.368	14145
921.477	14084
921.587	14142
921.697	13894
921.806	13993
921.916	13955
922.025	13765
922.134	13685
922.244	13708
922.353	13871
922.462	13567
922.571	13575
922.68	13373
922.789	13312
922.898	13365
923.007	13339
923.116	13365
923.224	13407
923.333	13373
923.442	13175
923.55	13099
923.659	13225
923.767	13225
923.876	13091
923.984	13247
924.092	13080
924.201	13133
924.309	13107
924.417	13091
924.525	13069
924.633	13091
924.741	13921
924.849	12764
924.956	12981
925.064	12806
925.172	12715
925.279	12734
925.387	12837
925.494	12817
925.602	12962
925.709	12749
925.816	12741
925.924	12852
926.031	12802
926.138	12787
926.245	12772
926.352	12715
926.459	12753
926.566	12814
926.673	12719
926.779	12540
926.886	12574
926.993	12395
927.099	12395
927.206	12380
927.312	12350
927.419	12410
927.525	12239
927.631	12399
927.737	12308
927.843	12258
927.95	12136
928.056	12152
928.162	12194
928.267	12262
928.373	12768
928.479	12376
928.585	12049
928.69	12159
928.796	12144
928.901	12038
929.007	11901
929.112	12053
929.218	11958
929.323	11912
929.428	11882
929.533	12053
929.638	11885
929.743	11874
929.848	11832
929.953	11821
930.058	11779
930.163	11611
930.267	11585
930.372	11756
930.477	11604
930.581	11802
930.685	11653
930.79	11547
930.894	11444
930.998	11436
931.103	11573
931.207	11296
931.311	11136
931.415	11067
931.519	10892
931.623	10881
