Data from test_V78500241_1219.txt Node
Date: Fri Mar 25 15:50:14 CST 2022
User: usil
Spectrometer: V785-0024
Trigger mode: 0
Integration Time (sec): 4.000000E-1
Scans to average: 1
Nonlinearity correction enabled: false
Boxcar width: 0
Storing dark spectrum: false
XAxis mode: Wavelengths
Number of Pixels in Spectrum: 1024
>>>>>Begin Spectral Data<<<<<
801.071	28668
801.214	28679
801.356	28474
801.499	28398
801.641	28268
801.783	28413
801.926	28459
802.068	28234
802.211	28211
802.353	28226
802.496	28017
802.638	28013
802.78	27850
802.923	28029
803.065	27991
803.208	28120
803.35	28105
803.492	28128
803.635	28116
803.777	28067
803.919	28226
804.061	28451
804.204	28314
804.346	28166
804.488	28169
804.63	28272
804.773	28238
804.915	28303
805.057	28363
805.199	28177
805.341	28360
805.483	28401
805.626	28329
805.768	28424
805.91	28303
806.052	28405
806.194	28447
806.336	28649
806.478	28447
806.62	28428
806.762	28546
806.904	28713
807.046	28904
807.188	28801
807.33	28972
807.472	28968
807.614	28957
807.756	28824
807.898	28630
808.04	28740
808.182	28626
808.324	28786
808.465	28748
808.607	29029
808.749	29231
808.891	29254
809.033	29337
809.174	29258
809.316	29041
809.458	29079
809.6	29105
809.741	29242
809.883	29341
810.025	29318
810.166	29383
810.308	29608
810.45	29330
810.591	29296
810.733	29223
810.875	29174
811.016	28915
811.158	29113
811.299	29181
811.441	29459
811.582	29292
811.724	29117
811.865	29098
812.007	29048
812.148	29288
812.29	29029
812.431	29337
812.573	29535
812.714	29505
812.855	29680
812.997	29729
813.138	29939
813.279	29916
813.421	29726
813.562	29649
813.703	29421
813.845	29436
813.986	29143
814.127	28923
814.268	28831
814.41	28908
814.551	28930
814.692	29014
814.833	28702
814.974	28809
815.115	28873
815.256	28850
815.397	28752
815.539	28725
815.68	28618
815.821	28519
815.962	28527
816.103	28626
816.244	28653
816.385	28462
816.526	28459
816.666	28128
816.807	28128
816.948	28230
817.089	28428
817.23	28310
817.371	28226
817.512	28219
817.653	28188
817.793	28044
817.934	28230
818.075	28048
818.216	28166
818.356	28116
818.497	28063
818.638	27907
818.778	27983
818.919	27899
819.06	27937
819.2	28154
819.341	28116
819.481	28021
819.622	28504
819.762	28561
819.903	28379
820.043	28459
820.184	28246
820.324	28219
820.465	28382
820.605	28390
820.746	28371
820.886	28238
821.026	28211
821.167	28192
821.307	28462
821.447	28131
821.588	28124
821.728	28048
821.868	27781
822.008	27530
822.149	27660
822.289	27576
822.429	27401
822.569	27386
822.709	27317
822.849	27108
822.99	27123
823.13	27161
823.27	27013
823.41	27085
823.55	26914
823.69	27009
823.83	27062
823.97	26994
824.11	26872
824.25	26701
824.389	26762
824.529	26815
824.669	26857
824.809	26990
824.949	27009
825.089	26971
825.228	26887
825.368	26705
825.508	26617
825.648	26659
825.787	26670
825.927	26712
826.067	26670
826.206	26617
826.346	26678
826.485	26754
826.625	26663
826.765	26750
826.904	26872
827.044	26571
827.183	26602
827.323	26564
827.462	26530
827.601	26598
827.741	26317
827.88	26442
828.02	26244
828.159	26393
828.298	26412
828.437	26552
828.577	26256
828.716	26461
828.855	26301
828.994	26138
829.134	26065
829.273	26263
829.412	26142
829.551	25970
829.69	26073
829.829	26164
829.968	26176
830.107	26130
830.246	26221
830.385	26043
830.524	26050
830.663	25963
830.802	25932
830.941	25727
831.08	25666
831.219	25803
831.357	25814
831.496	25814
831.635	25738
831.774	25537
831.913	25677
832.051	25628
832.19	25320
832.329	25472
832.467	25430
832.606	25365
832.744	25362
832.883	25369
833.022	25183
833.16	25324
833.299	25472
833.437	25369
833.576	25411
833.714	25415
833.852	25567
833.991	25358
834.129	25518
834.267	25613
834.406	25403
834.544	25438
834.682	25396
834.821	25506
834.959	25616
835.097	25403
835.235	25430
835.373	25403
835.511	25354
835.65	25289
835.788	25274
835.926	25213
836.064	25091
836.202	25034
836.34	25228
836.478	25476
836.615	25263
836.753	25335
836.891	25297
837.029	25308
837.167	25255
837.305	25228
837.443	25114
837.58	25091
837.718	25175
837.856	24939
837.993	25141
838.131	25145
838.269	24962
838.406	25061
838.544	24894
838.681	24814
838.819	24768
838.956	24559
839.094	24570
839.231	24502
839.369	24719
839.506	24897
839.643	24856
839.781	24696
839.918	24494
840.055	24544
840.193	24426
840.33	24505
840.467	24475
840.604	24589
840.742	24650
840.879	24319
841.016	24433
841.153	24353
841.29	24582
841.427	24254
841.564	24334
841.701	24532
841.838	24395
841.975	24254
842.112	24296
842.249	24197
842.385	24266
842.522	24574
842.659	24365
842.796	24289
842.933	24182
843.069	24030
843.206	24148
843.343	24281
843.479	24270
843.616	24144
843.752	23984
843.889	24003
844.025	24216
844.162	23870
844.298	24072
844.435	23942
844.571	23832
844.708	24022
844.844	24072
844.98	24205
845.117	24117
845.253	23988
845.389	23988
845.525	23885
845.661	23798
845.798	23786
845.934	23783
846.07	23653
846.206	23672
846.342	23851
846.478	23707
846.614	23463
846.75	23299
846.886	23261
847.022	23509
847.158	23531
847.294	23474
847.429	23349
847.565	23402
847.701	23672
847.837	23189
847.972	23166
848.108	23292
848.244	23265
848.379	23056
848.515	22961
848.65	23044
848.786	23170
848.921	22987
849.057	23322
849.192	23140
849.328	23132
849.463	22953
849.598	22949
849.734	22862
849.869	22904
850.004	22900
850.14	22805
850.275	22812
850.41	22637
850.545	22782
850.68	22683
850.815	22793
850.95	22828
851.085	22930
851.22	22873
851.355	22782
851.49	22809
851.625	22698
851.76	22847
851.895	22740
852.03	22698
852.165	22839
852.299	22797
852.434	22915
852.569	22812
852.703	22752
852.838	22927
852.973	22782
853.107	22896
853.242	22740
853.376	22497
853.511	22519
853.645	22630
853.78	22710
853.914	22630
854.048	22535
854.183	22538
854.317	22679
854.451	22725
854.585	22649
854.72	22615
854.854	22634
854.988	22596
855.122	22630
855.256	22519
855.39	22447
855.524	22618
855.658	22599
855.792	22573
855.926	22649
856.06	22630
856.194	22744
856.327	22603
856.461	22466
856.595	22588
856.729	22455
856.862	22706
856.996	22611
857.13	22710
857.263	22740
857.397	22599
857.53	22630
857.664	22733
857.797	22664
857.931	22649
858.064	22656
858.197	22717
858.331	22653
858.464	22470
858.597	22535
858.731	22531
858.864	22508
858.997	22577
859.13	22565
859.263	22691
859.396	22561
859.529	22557
859.662	22459
859.795	22531
859.928	22561
860.061	22748
860.194	22679
860.327	22698
860.46	22569
860.592	22607
860.725	22740
860.858	22805
860.99	22759
861.123	22565
861.256	22500
861.388	22443
861.521	23334
861.653	22489
861.786	22405
861.918	22417
862.05	22611
862.183	22497
862.315	22523
862.447	22656
862.58	22363
862.712	22284
862.844	22188
862.976	22382
863.108	22436
863.24	22664
863.372	22192
863.504	22386
863.636	22325
863.768	22379
863.9	22196
864.032	22291
864.164	22276
864.296	22363
864.428	22398
864.559	22268
864.691	22325
864.823	22356
864.954	22295
865.086	22265
865.217	22181
865.349	22200
865.48	22147
865.612	22196
865.743	22329
865.875	22291
866.006	22070
866.137	22188
866.269	22188
866.4	22139
866.531	22162
866.662	22074
866.793	22131
866.924	22078
867.055	22044
867.186	22120
867.317	22188
867.448	22013
867.579	22097
867.71	22158
867.841	22082
867.972	22093
868.103	21998
868.233	22105
868.364	22074
868.495	22181
868.625	22261
868.756	22481
868.886	22352
869.017	22451
869.147	22375
869.278	22413
869.408	22329
869.539	22280
869.669	22443
869.799	22371
869.929	22504
870.06	22363
870.19	22683
870.32	22706
870.45	22611
870.58	22713
870.71	22820
870.84	22691
870.97	22744
871.1	22713
871.23	22854
871.36	22919
871.489	22854
871.619	22820
871.749	23037
871.879	22957
872.008	22980
872.138	22866
872.267	23014
872.397	22877
872.526	22615
872.656	22774
872.785	22824
872.915	22889
873.044	23056
873.173	23010
873.303	22896
873.432	23071
873.561	23124
873.69	22980
873.819	22965
873.948	22946
874.077	23064
874.206	23067
874.335	23033
874.464	23044
874.593	23136
874.722	23018
874.851	23174
874.979	23296
875.108	23277
875.237	23231
875.365	23018
875.494	23083
875.623	23212
875.751	23124
875.88	23231
876.008	23204
876.136	23337
876.265	23570
876.393	23642
876.521	23608
876.65	23581
876.778	23596
876.906	23596
877.034	23425
877.162	23558
877.29	23531
877.418	23474
877.546	23490
877.674	23573
877.802	23577
877.93	23486
878.058	23410
878.185	23398
878.313	23501
878.441	23497
878.568	23299
878.696	23482
878.824	23585
878.951	23516
879.079	23783
879.206	23699
879.333	23798
879.461	23581
879.588	23623
879.715	23657
879.842	23851
879.97	23634
880.097	23299
880.224	23444
880.351	23421
880.478	23364
880.605	23242
880.732	23402
880.859	23600
880.986	23315
881.112	23356
881.239	23166
881.366	23060
881.493	22896
881.619	22980
881.746	22968
881.872	22965
881.999	22759
882.125	22873
882.252	23003
882.378	22797
882.505	22862
882.631	22782
882.757	22622
882.883	22626
883.01	22523
883.136	22546
883.262	22432
883.388	22287
883.514	22554
883.64	22588
883.766	22436
883.892	22280
884.018	22253
884.143	22432
884.269	22478
884.395	22272
884.52	22143
884.646	22181
884.772	22097
884.897	22120
885.023	22257
885.148	22375
885.274	22284
885.399	22405
885.524	22067
885.65	22280
885.775	22116
885.9	22238
886.025	22291
886.15	22196
886.275	22097
886.4	22048
886.525	22048
886.65	22051
886.775	22055
886.9	22261
887.025	22325
887.149	22120
887.274	22006
887.399	22021
887.523	22017
887.648	21918
887.773	21888
887.897	21918
888.021	21972
888.146	21827
888.27	21987
888.395	21994
888.519	21941
888.643	21968
888.767	22032
888.891	21804
889.015	21720
889.139	21831
889.263	21732
889.387	21770
889.511	21869
889.635	21911
889.759	21675
889.883	21671
890.006	21785
890.13	21789
890.254	21682
890.377	21614
890.501	21572
890.624	21466
890.748	21534
890.871	21313
890.995	21195
891.118	21218
891.241	21188
891.364	21336
891.488	21462
891.611	21287
891.734	21355
891.857	21340
891.98	21268
892.103	21351
892.226	21332
892.349	21245
892.471	21009
892.594	21252
892.717	21222
892.839	21233
892.962	21085
893.085	21211
893.207	21279
893.33	20994
893.452	21100
893.575	21131
893.697	21146
893.819	21408
893.941	21272
894.064	21287
894.186	21100
894.308	21036
894.43	21192
894.552	21374
894.674	21173
894.796	21169
894.918	21112
895.04	21100
895.161	21256
895.283	21146
895.405	21138
895.526	21135
895.648	21066
895.769	21230
895.891	21214
896.012	21241
896.134	21199
896.255	21176
896.376	21028
896.498	21188
896.619	21325
896.74	21279
896.861	21272
896.982	21424
897.103	21595
897.224	21481
897.345	21382
897.466	21161
897.587	21340
897.708	21439
897.828	21439
897.949	21180
898.07	21074
898.19	21294
898.311	21447
898.431	21272
898.552	21329
898.672	21416
898.792	21275
898.913	21336
899.033	21165
899.153	21100
899.273	21070
899.393	21028
899.513	21150
899.633	21207
899.753	21154
899.873	21001
899.993	21211
900.113	21005
900.232	21047
900.352	21024
900.472	20823
900.591	20819
900.711	20887
900.83	20845
900.95	20948
901.069	20899
901.189	20606
901.308	20465
901.427	20351
901.546	20396
901.665	20423
901.784	20370
901.904	20168
902.023	20180
902.141	19883
902.26	19947
902.379	19913
902.498	19947
902.617	19894
902.735	19883
902.854	19845
902.973	19772
903.091	19521
903.21	19529
903.328	19582
903.446	19388
903.565	19339
903.683	19362
903.801	19171
903.919	19354
904.038	19274
904.156	19137
904.274	19278
904.392	19110
904.51	19038
904.627	19080
904.745	19175
904.863	18993
904.981	18951
905.098	18802
905.216	18833
905.334	18871
905.451	18734
905.569	18741
905.686	18681
905.803	18639
905.921	18616
906.038	18608
906.155	18517
906.272	18559
906.389	18486
906.506	18323
906.623	18239
906.74	18365
906.857	18216
906.974	18182
907.091	18361
907.208	18391
907.324	18353
907.441	18171
907.557	18106
907.674	18045
907.79	17954
907.907	18019
908.023	18038
908.139	18053
908.256	18007
908.372	17889
908.488	17920
908.604	17745
908.72	17615
908.836	17619
908.952	17802
909.068	17802
909.184	17817
909.3	17771
909.415	17764
909.531	17775
909.647	17512
909.762	17356
909.878	17520
909.993	17368
910.108	17429
910.224	17379
910.339	17433
910.454	17132
910.57	17280
910.685	17174
910.8	17444
910.915	17341
911.03	17170
911.145	17018
911.259	17094
911.374	17003
911.489	16892
911.604	16949
911.718	16630
911.833	16740
911.947	16702
912.062	16626
912.176	16797
912.291	16835
912.405	16668
912.519	16942
912.633	16987
912.748	16740
912.862	16752
912.976	16626
913.09	16417
913.204	16493
913.318	16637
913.431	16717
913.545	16554
913.659	16668
913.772	16424
913.886	16436
914	16363
914.113	16470
914.226	16428
914.34	16398
914.453	16234
914.566	16367
914.68	16154
914.793	16196
914.906	15987
915.019	15983
915.132	15861
915.245	15884
915.358	15915
915.47	15899
915.583	15876
915.696	15922
915.809	16032
915.921	16025
916.034	15854
916.146	15701
916.259	15865
916.371	15861
916.483	15850
916.595	15698
916.708	15831
916.82	15743
916.932	15637
917.044	15656
917.156	15671
917.268	15591
917.38	15603
917.491	15576
917.603	15450
917.715	15576
917.826	15606
917.938	15424
918.049	15428
918.161	15507
918.272	15530
918.384	15679
918.495	15435
918.606	15325
918.717	15233
918.828	15306
918.939	15332
919.05	15260
919.161	15268
919.272	15058
919.383	15154
919.494	15287
919.604	15469
919.715	15218
919.826	15157
919.936	15302
920.047	15252
920.157	15249
920.267	15519
920.378	15214
920.488	15176
920.598	15515
920.708	15534
920.818	15348
920.928	15370
921.038	15504
921.148	15454
921.258	15146
921.368	15039
921.477	14918
921.587	14944
921.697	14895
921.806	14902
921.916	14777
922.025	14648
922.134	14667
922.244	14598
922.353	14552
922.462	14381
922.571	14412
922.68	14176
922.789	14309
922.898	14119
923.007	14168
923.116	14180
923.224	14256
923.333	14221
923.442	14153
923.55	13913
923.659	14054
923.767	14107
923.876	14005
923.984	14069
924.092	13909
924.201	13986
924.309	13852
924.417	13944
924.525	13879
924.633	13883
924.741	14625
924.849	13666
924.956	13753
925.064	13715
925.172	13609
925.279	13529
925.387	13677
925.494	13616
925.602	13723
925.709	13662
925.816	13502
925.924	13529
926.031	13590
926.138	13449
926.245	13639
926.352	13430
926.459	13544
926.566	13586
926.673	13510
926.779	13335
926.886	13327
926.993	13236
927.099	13149
927.206	13160
927.312	13103
927.419	13202
927.525	13133
927.631	13103
927.737	13042
927.843	12909
927.95	12958
928.056	12981
928.162	12962
928.267	13023
928.373	13666
928.479	12966
928.585	12741
928.69	12890
928.796	12943
928.901	12821
929.007	12696
929.112	12863
929.218	12825
929.323	12798
929.428	12635
929.533	12817
929.638	12525
929.743	12593
929.848	12658
929.953	12582
930.058	12456
930.163	12391
930.267	12350
930.372	12433
930.477	12273
930.581	12555
930.685	12380
930.79	12243
930.894	12239
930.998	12148
931.103	12292
931.207	11969
931.311	11923
931.415	11870
931.519	11566
931.623	11478
