Data from test_V78500241_3621.txt Node
Date: Fri Mar 25 16:06:53 CST 2022
User: usil
Spectrometer: V785-0024
Trigger mode: 0
Integration Time (sec): 4.000000E-1
Scans to average: 1
Nonlinearity correction enabled: false
Boxcar width: 0
Storing dark spectrum: false
XAxis mode: Wavelengths
Number of Pixels in Spectrum: 1024
>>>>>Begin Spectral Data<<<<<
801.071	28805
801.214	28656
801.356	28523
801.499	28344
801.641	28413
801.783	28333
801.926	28344
802.068	28371
802.211	28318
802.353	28337
802.496	28090
802.638	28055
802.78	28048
802.923	28090
803.065	27991
803.208	28067
803.35	27987
803.492	28280
803.635	28291
803.777	28181
803.919	28219
804.061	28637
804.204	28386
804.346	28226
804.488	28284
804.63	28135
804.773	28268
804.915	28352
805.057	28447
805.199	28287
805.341	28489
805.483	28497
805.626	28242
805.768	28204
805.91	28405
806.052	28489
806.194	28386
806.336	28679
806.478	28519
806.62	28451
806.762	28573
806.904	28702
807.046	28957
807.188	28923
807.33	28824
807.472	28938
807.614	28961
807.756	28915
807.898	28767
808.04	28713
808.182	28687
808.324	28725
808.465	28915
808.607	29006
808.749	29121
808.891	29250
809.033	29223
809.174	29124
809.316	29265
809.458	29056
809.6	29379
809.741	29197
809.883	29277
810.025	29562
810.166	29452
810.308	29436
810.45	29474
810.591	29341
810.733	29246
810.875	29132
811.016	28953
811.158	29250
811.299	29372
811.441	29299
811.582	29307
811.724	29239
811.865	29136
812.007	29185
812.148	29318
812.29	29425
812.431	29322
812.573	29516
812.714	29547
812.855	29771
812.997	29855
813.138	29885
813.279	29809
813.421	29657
813.562	29661
813.703	29646
813.845	29337
813.986	29124
814.127	28938
814.268	28961
814.41	28915
814.551	28847
814.692	29010
814.833	28797
814.974	28847
815.115	28984
815.256	28972
815.397	28729
815.539	28759
815.68	28740
815.821	28782
815.962	28672
816.103	28679
816.244	28645
816.385	28379
816.526	28466
816.666	28303
816.807	28070
816.948	28166
817.089	28318
817.23	28268
817.371	28166
817.512	28166
817.653	28093
817.793	28074
817.934	28135
818.075	28253
818.216	28143
818.356	28078
818.497	28154
818.638	27994
818.778	27918
818.919	28074
819.06	28006
819.2	28124
819.341	28040
819.481	28143
819.622	28386
819.762	28542
819.903	28443
820.043	28394
820.184	28363
820.324	28382
820.465	28356
820.605	28226
820.746	28306
820.886	28291
821.026	28341
821.167	28200
821.307	28276
821.447	28242
821.588	28272
821.728	27987
821.868	27956
822.008	27720
822.149	27865
822.289	27496
822.429	27435
822.569	27370
822.709	27523
822.849	27321
822.99	27268
823.13	27161
823.27	27203
823.41	27013
823.55	26895
823.69	26994
823.83	26963
823.97	26948
824.11	26800
824.25	26861
824.389	26754
824.529	26925
824.669	26887
824.809	26914
824.949	26986
825.089	26906
825.228	26853
825.368	26750
825.508	26731
825.648	26830
825.787	26963
825.927	26663
826.067	26682
826.206	26777
826.346	26716
826.485	26788
826.625	26792
826.765	26899
826.904	26708
827.044	26473
827.183	26469
827.323	26415
827.462	26609
827.601	26434
827.741	26522
827.88	26590
828.02	26347
828.159	26431
828.298	26309
828.437	26423
828.577	26355
828.716	26530
828.855	26267
828.994	26043
829.134	26145
829.273	26149
829.412	25925
829.551	26103
829.69	26103
829.829	26168
829.968	26256
830.107	26176
830.246	26195
830.385	26096
830.524	26016
830.663	25776
830.802	25955
830.941	25906
831.08	25799
831.219	25856
831.357	25864
831.496	25970
831.635	25807
831.774	25715
831.913	25628
832.051	25597
832.19	25476
832.329	25506
832.467	25415
832.606	25335
832.744	25400
832.883	25247
833.022	25457
833.16	25324
833.299	25544
833.437	25472
833.576	25616
833.714	25400
833.852	25502
833.991	25533
834.129	25628
834.267	25704
834.406	25468
834.544	25537
834.682	25491
834.821	25400
834.959	25552
835.097	25460
835.235	25479
835.373	25483
835.511	25301
835.65	25483
835.788	25324
835.926	25183
836.064	25175
836.202	25114
836.34	25327
836.478	25525
836.615	25247
836.753	25411
836.891	25373
837.029	25297
837.167	25301
837.305	25126
837.443	25088
837.58	25114
837.718	25308
837.856	25148
837.993	25061
838.131	25160
838.269	25038
838.406	25046
838.544	24939
838.681	24859
838.819	24791
838.956	24540
839.094	24616
839.231	24593
839.369	24669
839.506	25091
839.643	24745
839.781	24540
839.918	24407
840.055	24498
840.193	24502
840.33	24509
840.467	24437
840.604	24582
840.742	24791
840.879	24391
841.016	24566
841.153	24209
841.29	24642
841.427	24517
841.564	24559
841.701	24437
841.838	24407
841.975	24388
842.112	24350
842.249	24289
842.385	24281
842.522	24429
842.659	24228
842.796	24266
842.933	24254
843.069	24228
843.206	24087
843.343	24327
843.479	24228
843.616	24254
843.752	23999
843.889	24171
844.025	24167
844.162	23999
844.298	24087
844.435	24114
844.571	23984
844.708	24030
844.844	24114
844.98	24110
845.117	24098
845.253	23969
845.389	24007
845.525	23893
845.661	23786
845.798	23809
845.934	23802
846.07	23703
846.206	23802
846.342	23805
846.478	23790
846.614	23684
846.75	23455
846.886	23547
847.022	23421
847.158	23486
847.294	23505
847.429	23570
847.565	23547
847.701	23745
847.837	23155
847.972	23052
848.108	23250
848.244	23254
848.379	23041
848.515	23006
848.65	23010
848.786	22938
848.921	23025
849.057	23200
849.192	23265
849.328	23102
849.463	23136
849.598	23083
849.734	22881
849.869	22908
850.004	22828
850.14	22946
850.275	22877
850.41	22801
850.545	22687
850.68	22862
850.815	22862
850.95	22843
851.085	23064
851.22	22938
851.355	22896
851.49	22843
851.625	22824
851.76	22812
851.895	22809
852.03	22672
852.165	22771
852.299	22965
852.434	22809
852.569	23003
852.703	22889
852.838	22892
852.973	22987
853.107	23003
853.242	22866
853.376	22592
853.511	22565
853.645	22569
853.78	22793
853.914	22580
854.048	22649
854.183	22569
854.317	22721
854.451	22786
854.585	22736
854.72	22580
854.854	22675
854.988	22641
855.122	22691
855.256	22470
855.39	22672
855.524	22710
855.658	22774
855.792	22713
855.926	22588
856.06	22683
856.194	22729
856.327	22565
856.461	22637
856.595	22706
856.729	22637
856.862	22721
856.996	22641
857.13	22752
857.263	22580
857.397	22634
857.53	22668
857.664	22717
857.797	22637
857.931	22820
858.064	22713
858.197	22824
858.331	22634
858.464	22603
858.597	22569
858.731	22538
858.864	22653
858.997	22504
859.13	22626
859.263	22694
859.396	22771
859.529	22535
859.662	22554
859.795	22653
859.928	22649
860.061	22683
860.194	22923
860.327	22656
860.46	22672
860.592	22698
860.725	22873
860.858	22698
860.99	22691
861.123	22542
861.256	22630
861.388	22687
861.521	23433
861.653	22577
861.786	22493
861.918	22432
862.05	22607
862.183	22512
862.315	22516
862.447	22710
862.58	22664
862.712	22386
862.844	22272
862.976	22436
863.108	22489
863.24	22828
863.372	22386
863.504	22318
863.636	22363
863.768	22394
863.9	22128
864.032	22249
864.164	22272
864.296	22314
864.428	22531
864.559	22424
864.691	22402
864.823	22462
864.954	22192
865.086	22261
865.217	22352
865.349	22051
865.48	22169
865.612	22173
865.743	22314
865.875	22230
866.006	22333
866.137	22211
866.269	22124
866.4	22257
866.531	22204
866.662	22082
866.793	22090
866.924	22185
867.055	22173
867.186	22131
867.317	22116
867.448	22131
867.579	22204
867.71	22036
867.841	22185
867.972	22105
868.103	22082
868.233	22143
868.364	22147
868.495	22188
868.625	22402
868.756	22580
868.886	22337
869.017	22303
869.147	22455
869.278	22382
869.408	22455
869.539	22424
869.669	22474
869.799	22447
869.929	22428
870.06	22443
870.19	22805
870.32	22782
870.45	22725
870.58	22733
870.71	22915
870.84	22820
870.97	22801
871.1	22782
871.23	23018
871.36	22957
871.489	22946
871.619	23044
871.749	23071
871.879	22949
872.008	23239
872.138	23044
872.267	22919
872.397	23132
872.526	22805
872.656	22961
872.785	22809
872.915	23022
873.044	23090
873.173	23090
873.303	23117
873.432	23048
873.561	23067
873.69	23052
873.819	22976
873.948	22991
874.077	23006
874.206	22809
874.335	23018
874.464	23105
874.593	23246
874.722	23162
874.851	23292
874.979	23204
875.108	23223
875.237	23140
875.365	23018
875.494	23220
875.623	23299
875.751	23193
875.88	23246
876.008	23398
876.136	23440
876.265	23764
876.393	23832
876.521	23684
876.65	23752
876.778	23600
876.906	23547
877.034	23478
877.162	23619
877.29	23634
877.418	23558
877.546	23672
877.674	23509
877.802	23627
877.93	23649
878.058	23547
878.185	23429
878.313	23535
878.441	23505
878.568	23398
878.696	23558
878.824	23554
878.951	23611
879.079	23672
879.206	23950
879.333	23760
879.461	23600
879.588	23649
879.715	23722
879.842	23752
879.97	23558
880.097	23387
880.224	23345
880.351	23414
880.478	23379
880.605	23368
880.732	23433
880.859	23547
880.986	23402
881.112	23376
881.239	23208
881.366	23136
881.493	23006
881.619	22984
881.746	23044
881.872	22987
881.999	22953
882.125	22900
882.252	22980
882.378	22900
882.505	22957
882.631	22812
882.757	22615
882.883	22706
883.01	22565
883.136	22641
883.262	22535
883.388	22447
883.514	22493
883.64	22660
883.766	22523
883.892	22474
884.018	22398
884.143	22561
884.269	22649
884.395	22322
884.52	22287
884.646	22162
884.772	22139
884.897	22223
885.023	22211
885.148	22447
885.274	22386
885.399	22360
885.524	22215
885.65	22367
885.775	22287
885.9	22131
886.025	22322
886.15	22379
886.275	22215
886.4	22158
886.525	22303
886.65	22135
886.775	22173
886.9	22341
887.025	22436
887.149	22101
887.274	22139
887.399	21937
887.523	22036
887.648	21968
887.773	21937
887.897	22010
888.021	22044
888.146	22010
888.27	22025
888.395	22078
888.519	22059
888.643	22051
888.767	21930
888.891	21956
889.015	21831
889.139	21907
889.263	21747
889.387	21804
889.511	21983
889.635	21915
889.759	21793
889.883	21724
890.006	21724
890.13	21869
890.254	21724
890.377	21869
890.501	21523
890.624	21435
890.748	21614
890.871	21424
890.995	21408
891.118	21325
891.241	21294
891.364	21431
891.488	21614
891.611	21287
891.734	21405
891.857	21397
891.98	21344
892.103	21405
892.226	21252
892.349	21321
892.471	21062
892.594	21302
892.717	21298
892.839	21180
892.962	21233
893.085	21291
893.207	21294
893.33	21252
893.452	21180
893.575	21340
893.697	21245
893.819	21386
893.941	21412
894.064	21256
894.186	21116
894.308	21096
894.43	21180
894.552	21298
894.674	21256
894.796	21154
894.918	21150
895.04	21218
895.161	21412
895.283	21184
895.405	21112
895.526	21203
895.648	21252
895.769	21195
895.891	21260
896.012	21188
896.134	21203
896.255	21237
896.376	21112
896.498	21233
896.619	21214
896.74	21336
896.861	21317
896.982	21530
897.103	21656
897.224	21481
897.345	21302
897.466	21287
897.587	21488
897.708	21545
897.828	21500
897.949	21389
898.07	21313
898.19	21302
898.311	21595
898.431	21348
898.552	21351
898.672	21534
898.792	21477
898.913	21545
899.033	21359
899.153	21157
899.273	21081
899.393	21142
899.513	21249
899.633	21123
899.753	21146
899.873	21081
899.993	21104
900.113	21005
900.232	21119
900.352	21009
900.472	20975
900.591	20948
900.711	20925
900.83	20880
900.95	20952
901.069	20986
901.189	20720
901.308	20522
901.427	20412
901.546	20461
901.665	20507
901.784	20461
901.904	20252
902.023	20358
902.141	20046
902.26	20001
902.379	20081
902.498	19921
902.617	19925
902.735	20020
902.854	19883
902.973	19841
903.091	19632
903.21	19601
903.328	19487
903.446	19563
903.565	19396
903.683	19540
903.801	19293
903.919	19415
904.038	19331
904.156	19194
904.274	19228
904.392	19160
904.51	19141
904.627	19084
904.745	19190
904.863	19259
904.981	19050
905.098	18783
905.216	18897
905.334	18863
905.451	18814
905.569	18833
905.686	18901
905.803	18817
905.921	18544
906.038	18684
906.155	18658
906.272	18471
906.389	18509
906.506	18429
906.623	18342
906.74	18357
906.857	18292
906.974	18285
907.091	18460
907.208	18467
907.324	18376
907.441	18258
907.557	18155
907.674	18072
907.79	18110
907.907	17996
908.023	18045
908.139	18079
908.256	17988
908.372	17859
908.488	17882
908.604	17828
908.72	17703
908.836	17779
908.952	17821
909.068	17794
909.184	17866
909.3	17741
909.415	17710
909.531	17733
909.647	17547
909.762	17604
909.878	17551
909.993	17425
910.108	17474
910.224	17383
910.339	17414
910.454	17356
910.57	17246
910.685	17174
910.8	17543
910.915	17360
911.03	17360
911.145	17105
911.259	17052
911.374	17113
911.489	16991
911.604	16987
911.718	16824
911.833	16805
911.947	16577
912.062	16607
912.176	16828
912.291	16786
912.405	16881
912.519	16987
912.633	16980
912.748	16900
912.862	16854
912.976	16675
913.09	16527
913.204	16577
913.318	16592
913.431	16755
913.545	16603
913.659	16748
913.772	16626
913.886	16508
914	16360
914.113	16565
914.226	16531
914.34	16531
914.453	16177
914.566	16390
914.68	16234
914.793	16257
914.906	16120
915.019	16097
915.132	15903
915.245	15960
915.358	16120
915.47	16048
915.583	15934
915.696	15953
915.809	16147
915.921	16150
916.034	15937
916.146	15789
916.259	15793
916.371	15945
916.483	15968
916.595	15846
916.708	15759
916.82	15831
916.932	15778
917.044	15759
917.156	15667
917.268	15599
917.38	15675
917.491	15599
917.603	15526
917.715	15743
917.826	15686
917.938	15557
918.049	15416
918.161	15515
918.272	15838
918.384	15663
918.495	15622
918.606	15439
918.717	15351
918.828	15412
918.939	15313
919.05	15176
919.161	15230
919.272	15131
919.383	15249
919.494	15431
919.604	15523
919.715	15245
919.826	15176
919.936	15359
920.047	15302
920.157	15252
920.267	15408
920.378	15348
920.488	15176
920.598	15401
920.708	15477
920.818	15454
920.928	15412
921.038	15637
921.148	15507
921.258	15207
921.368	15089
921.477	14963
921.587	15100
921.697	14872
921.806	14956
921.916	14914
922.025	14667
922.134	14533
922.244	14629
922.353	14579
922.462	14579
922.571	14495
922.68	14332
922.789	14278
922.898	14313
923.007	14225
923.116	14294
923.224	14294
923.333	14275
923.442	14161
923.55	14115
923.659	14111
923.767	14145
923.876	14043
923.984	14073
924.092	13986
924.201	14001
924.309	13913
924.417	14043
924.525	13921
924.633	13921
924.741	14842
924.849	13689
924.956	13902
925.064	13719
925.172	13521
925.279	13647
925.387	13685
925.494	13666
925.602	13837
925.709	13719
925.816	13590
925.924	13613
926.031	13609
926.138	13609
926.245	13693
926.352	13525
926.459	13620
926.566	13696
926.673	13556
926.779	13331
926.886	13301
926.993	13164
927.099	13232
927.206	13209
927.312	13145
927.419	13335
927.525	13149
927.631	13164
927.737	13065
927.843	13091
927.95	12916
928.056	13053
928.162	13088
928.267	13152
928.373	13731
928.479	13084
928.585	12897
928.69	12901
928.796	12973
928.901	12924
929.007	12757
929.112	12810
929.218	12844
929.323	12814
929.428	12684
929.533	12878
929.638	12639
929.743	12696
929.848	12669
929.953	12734
930.058	12593
930.163	12357
930.267	12403
930.372	12578
930.477	12410
930.581	12547
930.685	12464
930.79	12311
930.894	12285
930.998	12266
931.103	12300
931.207	12011
931.311	12007
931.415	11840
931.519	11630
931.623	11627
