Data from test_V78500241_1547.txt Node
Date: Fri Mar 25 15:52:31 CST 2022
User: usil
Spectrometer: V785-0024
Trigger mode: 0
Integration Time (sec): 4.000000E-1
Scans to average: 1
Nonlinearity correction enabled: false
Boxcar width: 0
Storing dark spectrum: false
XAxis mode: Wavelengths
Number of Pixels in Spectrum: 1024
>>>>>Begin Spectral Data<<<<<
801.071	27625
801.214	27526
801.356	27306
801.499	27298
801.641	27161
801.783	27104
801.926	27077
802.068	27150
802.211	27104
802.353	27150
802.496	26948
802.638	26918
802.78	26815
802.923	26796
803.065	26743
803.208	26651
803.35	26902
803.492	26834
803.635	27089
803.777	27013
803.919	26902
804.061	27325
804.204	27013
804.346	27062
804.488	26781
804.63	26899
804.773	26743
804.915	26963
805.057	27161
805.199	26990
805.341	27058
805.483	27039
805.626	27203
805.768	27154
805.91	27260
806.052	27176
806.194	27081
806.336	27287
806.478	27188
806.62	27230
806.762	27329
806.904	27412
807.046	27564
807.188	27454
807.33	27427
807.472	27717
807.614	27439
807.756	27603
807.898	27496
808.04	27424
808.182	27348
808.324	27359
808.465	27564
808.607	27720
808.749	27732
808.891	27835
809.033	27953
809.174	27800
809.316	27747
809.458	27698
809.6	27728
809.741	27720
809.883	27949
810.025	28025
810.166	28063
810.308	28063
810.45	27937
810.591	27880
810.733	27964
810.875	27770
811.016	27622
811.158	27633
811.299	27804
811.441	27991
811.582	27914
811.724	27842
811.865	27644
812.007	27812
812.148	27755
812.29	27884
812.431	27975
812.573	28074
812.714	28242
812.855	28147
812.997	28329
813.138	28497
813.279	28424
813.421	28207
813.562	28173
813.703	28090
813.845	27934
813.986	27679
814.127	27431
814.268	27595
814.41	27534
814.551	27473
814.692	27583
814.833	27287
814.974	27332
815.115	27496
815.256	27268
815.397	27275
815.539	27348
815.68	27230
815.821	27123
815.962	27214
816.103	27180
816.244	27154
816.385	27085
816.526	26918
816.666	26864
816.807	26674
816.948	26727
817.089	26872
817.23	26785
817.371	26708
817.512	26670
817.653	26777
817.793	26556
817.934	26648
818.075	26701
818.216	26773
818.356	26708
818.497	26613
818.638	26431
818.778	26396
818.919	26453
819.06	26457
819.2	26659
819.341	26632
819.481	26739
819.622	26815
819.762	26872
819.903	26967
820.043	26891
820.184	26826
820.324	26792
820.465	26864
820.605	26880
820.746	26785
820.886	26644
821.026	26830
821.167	26876
821.307	26857
821.447	26731
821.588	26792
821.728	26602
821.868	26499
822.008	26149
822.149	26305
822.289	26191
822.429	25970
822.569	25951
822.709	25875
822.849	25632
822.99	25845
823.13	25628
823.27	25635
823.41	25616
823.55	25308
823.69	25605
823.83	25559
823.97	25415
824.11	25259
824.25	25282
824.389	25472
824.529	25464
824.669	25304
824.809	25468
824.949	25479
825.089	25479
825.228	25358
825.368	25171
825.508	25183
825.648	25244
825.787	25236
825.927	25289
826.067	25179
826.206	25255
826.346	25164
826.485	25190
826.625	25145
826.765	25335
826.904	25209
827.044	25046
827.183	24981
827.323	24916
827.462	24897
827.601	24943
827.741	24821
827.88	24932
828.02	24882
828.159	24863
828.298	24932
828.437	25050
828.577	24894
828.716	25008
828.855	24859
828.994	24620
829.134	24544
829.273	24768
829.412	24604
829.551	24502
829.69	24616
829.829	24563
829.968	24711
830.107	24681
830.246	24486
830.385	24627
830.524	24452
830.663	24395
830.802	24334
830.941	24251
831.08	24178
831.219	24228
831.357	24262
831.496	24361
831.635	24243
831.774	24045
831.913	24201
832.051	23965
832.19	24007
832.329	24068
832.467	23904
832.606	23737
832.744	23756
832.883	23752
833.022	23817
833.16	23908
833.299	23920
833.437	24018
833.576	24003
833.714	23977
833.852	24003
833.991	24022
834.129	24167
834.267	24167
834.406	23893
834.544	23920
834.682	23908
834.821	24064
834.959	24167
835.097	23832
835.235	24045
835.373	23950
835.511	23798
835.65	23859
835.788	23718
835.926	23634
836.064	23520
836.202	23657
836.34	23790
836.478	23863
836.615	23752
836.753	23707
836.891	23866
837.029	23771
837.167	23729
837.305	23585
837.443	23615
837.58	23653
837.718	23638
837.856	23619
837.993	23630
838.131	23646
838.269	23318
838.406	23493
838.544	23372
838.681	23273
838.819	23273
838.956	22953
839.094	22995
839.231	23109
839.369	23265
839.506	23486
839.643	23349
839.781	23109
839.918	23018
840.055	23079
840.193	23197
840.33	23041
840.467	22911
840.604	23079
840.742	23322
840.879	22873
841.016	23022
841.153	22881
841.29	23048
841.427	23075
841.564	23113
841.701	22934
841.838	23003
841.975	22896
842.112	22930
842.249	22835
842.385	22725
842.522	22896
842.659	22835
842.796	22862
842.933	22683
843.069	22736
843.206	22664
843.343	22892
843.479	22759
843.616	22797
843.752	22569
843.889	22584
844.025	22691
844.162	22679
844.298	22538
844.435	22523
844.571	22508
844.708	22413
844.844	22649
844.98	22778
845.117	22645
845.253	22478
845.389	22291
845.525	22341
845.661	22371
845.798	22147
845.934	22291
846.07	22246
846.206	22432
846.342	22382
846.478	22173
846.614	21983
846.75	21949
846.886	21972
847.022	22067
847.158	22032
847.294	21838
847.429	22074
847.565	21918
847.701	22265
847.837	21800
847.972	21713
848.108	21857
848.244	21732
848.379	21610
848.515	21656
848.65	21614
848.786	21618
848.921	21599
849.057	21759
849.192	21720
849.328	21679
849.463	21663
849.598	21557
849.734	21450
849.869	21420
850.004	21492
850.14	21496
850.275	21325
850.41	21405
850.545	21321
850.68	21363
850.815	21298
850.95	21382
851.085	21713
851.22	21439
851.355	21469
851.49	21374
851.625	21321
851.76	21302
851.895	21233
852.03	21157
852.165	21374
852.299	21382
852.434	21405
852.569	21370
852.703	21367
852.838	21408
852.973	21469
853.107	21416
853.242	21272
853.376	21074
853.511	21131
853.645	21203
853.78	21169
853.914	21192
854.048	21020
854.183	21222
854.317	21119
854.451	21351
854.585	21310
854.72	21173
854.854	21169
854.988	21055
855.122	21135
855.256	21036
855.39	21123
855.524	21264
855.658	21222
855.792	21157
855.926	21245
856.06	21256
856.194	21245
856.327	21237
856.461	21150
856.595	21275
856.729	21226
856.862	21310
856.996	21211
857.13	21192
857.263	21264
857.397	21161
857.53	21203
857.664	21291
857.797	21112
857.931	21325
858.064	21249
858.197	21252
858.331	21310
858.464	21142
858.597	21100
858.731	21005
858.864	21062
858.997	21058
859.13	21207
859.263	21218
859.396	21195
859.529	21058
859.662	21188
859.795	21157
859.928	21211
860.061	21401
860.194	21416
860.327	21203
860.46	21272
860.592	21344
860.725	21359
860.858	21370
860.99	21264
861.123	21150
861.256	21173
861.388	21165
861.521	21781
861.653	21138
861.786	20956
861.918	21055
862.05	21028
862.183	21074
862.315	21173
862.447	21100
862.58	21112
862.712	20982
862.844	20899
862.976	20941
863.108	20918
863.24	21325
863.372	20777
863.504	20910
863.636	20975
863.768	20853
863.9	20830
864.032	20830
864.164	20823
864.296	20937
864.428	20933
864.559	20861
864.691	20857
864.823	20876
864.954	20914
865.086	20800
865.217	20811
865.349	20746
865.48	20785
865.612	20853
865.743	20948
865.875	20792
866.006	20785
866.137	20609
866.269	20796
866.4	20853
866.531	20708
866.662	20686
866.793	20796
866.924	20754
867.055	20727
867.186	20800
867.317	20674
867.448	20564
867.579	20613
867.71	20507
867.841	20655
867.972	20746
868.103	20750
868.233	20815
868.364	20682
868.495	20899
868.625	21028
868.756	21017
868.886	20967
869.017	21009
869.147	21036
869.278	21119
869.408	20944
869.539	20914
869.669	21066
869.799	21024
869.929	21093
870.06	21089
870.19	21389
870.32	21294
870.45	21348
870.58	21340
870.71	21526
870.84	21382
870.97	21564
871.1	21359
871.23	21682
871.36	21637
871.489	21420
871.619	21542
871.749	21603
871.879	21625
872.008	21690
872.138	21637
872.267	21587
872.397	21397
872.526	21359
872.656	21389
872.785	21393
872.915	21633
873.044	21720
873.173	21542
873.303	21595
873.432	21686
873.561	21751
873.69	21610
873.819	21564
873.948	21663
874.077	21717
874.206	21587
874.335	21656
874.464	21629
874.593	21899
874.722	21717
874.851	21968
874.979	21892
875.108	21888
875.237	21759
875.365	21641
875.494	21895
875.623	21899
875.751	21854
875.88	21911
876.008	21880
876.136	21998
876.265	22348
876.393	22367
876.521	22371
876.65	22284
876.778	22272
876.906	22265
877.034	22257
877.162	22044
877.29	22048
877.418	22268
877.546	22196
877.674	22173
877.802	22284
877.93	22284
878.058	22082
878.185	22021
878.313	22074
878.441	22128
878.568	22025
878.696	22147
878.824	22314
878.951	22181
879.079	22276
879.206	22557
879.333	22284
879.461	22143
879.588	22299
879.715	22360
879.842	22459
879.97	22196
880.097	21949
880.224	21930
880.351	22067
880.478	21979
880.605	21979
880.732	22010
880.859	22280
880.986	21854
881.112	22021
881.239	21816
881.366	21774
881.493	21591
881.619	21660
881.746	21610
881.872	21553
881.999	21523
882.125	21500
882.252	21679
882.378	21564
882.505	21648
882.631	21458
882.757	21393
882.883	21401
883.01	21249
883.136	21272
883.262	21055
883.388	21218
883.514	21233
883.64	21332
883.766	21188
883.892	21058
884.018	21066
884.143	21165
884.269	21348
884.395	21001
884.52	20929
884.646	21009
884.772	20815
884.897	20826
885.023	20804
885.148	21036
885.274	21043
885.399	21096
885.524	20944
885.65	20899
885.775	20994
885.9	20838
886.025	21020
886.15	20971
886.275	20807
886.4	20857
886.525	20880
886.65	20849
886.775	20842
886.9	21001
887.025	21123
887.149	20853
887.274	20746
887.399	20720
887.523	20701
887.648	20644
887.773	20697
887.897	20777
888.021	20796
888.146	20716
888.27	20830
888.395	20777
888.519	20598
888.643	20731
888.767	20739
888.891	20663
889.015	20571
889.139	20598
889.263	20507
889.387	20587
889.511	20651
889.635	20651
889.759	20473
889.883	20545
890.006	20503
890.13	20503
890.254	20278
890.377	20381
890.501	20187
890.624	20240
890.748	20320
890.871	20145
890.995	20008
891.118	20035
891.241	20020
891.364	20115
891.488	20069
891.611	19970
891.734	20024
891.857	20199
891.98	20039
892.103	20271
892.226	19944
892.349	19978
892.471	19875
892.594	19944
892.717	19993
892.839	19936
892.962	20092
893.085	19955
893.207	19970
893.33	19894
893.452	19959
893.575	19967
893.697	19822
893.819	20107
893.941	20081
894.064	20073
894.186	19883
894.308	19879
894.43	20103
894.552	20161
894.674	20111
894.796	19849
894.918	19921
895.04	19947
895.161	19970
895.283	19898
895.405	19982
895.526	20008
895.648	19959
895.769	20001
895.891	19909
896.012	20062
896.134	20005
896.255	19959
896.376	19978
896.498	20065
896.619	20077
896.74	20001
896.861	20054
896.982	20298
897.103	20454
897.224	20263
897.345	20180
897.466	20142
897.587	20259
897.708	20267
897.828	20275
897.949	20100
898.07	19959
898.19	20119
898.311	20084
898.431	20256
898.552	20138
898.672	20317
898.792	20282
898.913	20199
899.033	20073
899.153	19993
899.273	19837
899.393	19986
899.513	19959
899.633	19997
899.753	20020
899.873	19868
899.993	20031
900.113	19864
900.232	19887
900.352	19776
900.472	19780
900.591	19742
900.711	19776
900.83	19723
900.95	19837
901.069	19837
901.189	19651
901.308	19419
901.427	19407
901.546	19266
901.665	19441
901.784	19396
901.904	19065
902.023	19110
902.141	18882
902.26	18882
902.379	18993
902.498	18806
902.617	18890
902.735	18954
902.854	18715
902.973	18863
903.091	18574
903.21	18589
903.328	18559
903.446	18418
903.565	18384
903.683	18407
903.801	18140
903.919	18273
904.038	18380
904.156	17969
904.274	18243
904.392	17992
904.51	18041
904.627	18076
904.745	18144
904.863	18148
904.981	17809
905.098	17771
905.216	17592
905.334	17733
905.451	17794
905.569	17649
905.686	17824
905.803	17676
905.921	17528
906.038	17687
906.155	17653
906.272	17303
906.389	17383
906.506	17372
906.623	17292
906.74	17220
906.857	17227
906.974	17258
907.091	17372
907.208	17395
907.324	17258
907.441	17181
907.557	17105
907.674	17109
907.79	16946
907.907	17022
908.023	16938
908.139	17022
908.256	16957
908.372	16854
908.488	16877
908.604	16767
908.72	16725
908.836	16843
908.952	16706
909.068	16786
909.184	16744
909.3	16740
909.415	16733
909.531	16710
909.647	16470
909.762	16405
909.878	16413
909.993	16489
910.108	16436
910.224	16455
910.339	16371
910.454	16306
910.57	16181
910.685	16147
910.8	16459
910.915	16348
911.03	16223
911.145	15987
911.259	16101
911.374	16063
911.489	15850
911.604	15907
911.718	15682
911.833	15762
911.947	15724
912.062	15633
912.176	15766
912.291	15854
912.405	15827
912.519	15930
912.633	15960
912.748	15835
912.862	15743
912.976	15599
913.09	15496
913.204	15534
913.318	15663
913.431	15648
913.545	15675
913.659	15584
913.772	15504
913.886	15462
914	15321
914.113	15447
914.226	15492
914.34	15469
914.453	15256
914.566	15431
914.68	15332
914.793	15268
914.906	15017
915.019	14975
915.132	14906
915.245	14902
915.358	14902
915.47	15013
915.583	14948
915.696	15055
915.809	15009
915.921	15104
916.034	14998
916.146	14876
916.259	14933
916.371	14887
916.483	14937
916.595	14880
916.708	14815
916.82	14861
916.932	14800
917.044	14838
917.156	14758
917.268	14636
917.38	14708
917.491	14629
917.603	14686
917.715	14762
917.826	14655
917.938	14644
918.049	14533
918.161	14621
918.272	14682
918.384	14781
918.495	14670
918.606	14465
918.717	14415
918.828	14552
918.939	14454
919.05	14332
919.161	14381
919.272	14275
919.383	14221
919.494	14533
919.604	14587
919.715	14412
919.826	14381
919.936	14385
920.047	14530
920.157	14351
920.267	14575
920.378	14400
920.488	14370
920.598	14571
920.708	14682
920.818	14488
920.928	14522
921.038	14632
921.148	14575
921.258	14294
921.368	14278
921.477	14206
921.587	14039
921.697	14035
921.806	14142
921.916	14024
922.025	13788
922.134	13765
922.244	13715
922.353	13791
922.462	13681
922.571	13681
922.68	13388
922.789	13377
922.898	13510
923.007	13327
923.116	13525
923.224	13430
923.333	13438
923.442	13251
923.55	13206
923.659	13274
923.767	13468
923.876	13187
923.984	13259
924.092	13095
924.201	13168
924.309	13129
924.417	13175
924.525	13053
924.633	13168
924.741	14031
924.849	12981
924.956	13065
925.064	12890
925.172	12817
925.279	12798
925.387	12871
925.494	12783
925.602	12977
925.709	12871
925.816	12726
925.924	12726
926.031	12863
926.138	12768
926.245	12825
926.352	12673
926.459	12875
926.566	12878
926.673	12806
926.779	12623
926.886	12536
926.993	12483
927.099	12342
927.206	12448
927.312	12346
927.419	12479
927.525	12456
927.631	12380
927.737	12289
927.843	12190
927.95	12155
928.056	12216
928.162	12285
928.267	12308
928.373	12924
928.479	12281
928.585	12117
928.69	12266
928.796	12182
928.901	12079
929.007	12019
929.112	12144
929.218	12121
929.323	11923
929.428	12015
929.533	12148
929.638	11855
929.743	11973
929.848	11893
929.953	11912
930.058	11870
930.163	11627
930.267	11722
930.372	11745
930.477	11562
930.581	11870
930.685	11756
930.79	11600
930.894	11600
930.998	11509
931.103	11691
931.207	11318
931.311	11315
931.415	11155
931.519	10980
931.623	10946
