Data from test_V78500241_1668.txt Node
Date: Fri Mar 25 15:53:21 CST 2022
User: usil
Spectrometer: V785-0024
Trigger mode: 0
Integration Time (sec): 4.000000E-1
Scans to average: 1
Nonlinearity correction enabled: false
Boxcar width: 0
Storing dark spectrum: false
XAxis mode: Wavelengths
Number of Pixels in Spectrum: 1024
>>>>>Begin Spectral Data<<<<<
801.071	28314
801.214	28295
801.356	28055
801.499	28013
801.641	27857
801.783	27747
801.926	27876
802.068	27861
802.211	27629
802.353	27728
802.496	27477
802.638	27526
802.78	27393
802.923	27393
803.065	27237
803.208	27416
803.35	27530
803.492	27656
803.635	27614
803.777	27530
803.919	27679
804.061	27922
804.204	27728
804.346	27595
804.488	27591
804.63	27633
804.773	27583
804.915	27736
805.057	27865
805.199	27538
805.341	27755
805.483	27869
805.626	27842
805.768	27816
805.91	27808
806.052	27895
806.194	27709
806.336	27953
806.478	27831
806.62	27892
806.762	28051
806.904	28040
807.046	28204
807.188	28363
807.33	28139
807.472	28181
807.614	28185
807.756	28169
807.898	28105
808.04	28006
808.182	28128
808.324	28074
808.465	28109
808.607	28455
808.749	28470
808.891	28542
809.033	28675
809.174	28626
809.316	28409
809.458	28504
809.6	28474
809.741	28687
809.883	28622
810.025	28622
810.166	28774
810.308	28687
810.45	28782
810.591	28748
810.733	28592
810.875	28409
811.016	28485
811.158	28356
811.299	28565
811.441	28634
811.582	28607
811.724	28466
811.865	28405
812.007	28371
812.148	28497
812.29	28535
812.431	28721
812.573	28839
812.714	28885
812.855	29143
812.997	29105
813.138	29250
813.279	29109
813.421	29037
813.562	28953
813.703	28809
813.845	28778
813.986	28523
814.127	28344
814.268	28230
814.41	28242
814.551	28219
814.692	28135
814.833	28101
814.974	28147
815.115	28223
815.256	27979
815.397	27994
815.539	28074
815.68	27987
815.821	27972
815.962	27892
816.103	27888
816.244	27854
816.385	27842
816.526	27724
816.666	27515
816.807	27450
816.948	27549
817.089	27473
817.23	27542
817.371	27599
817.512	27363
817.653	27515
817.793	27481
817.934	27576
818.075	27583
818.216	27367
818.356	27412
818.497	27435
818.638	27214
818.778	27233
818.919	27184
819.06	27348
819.2	27363
819.341	27511
819.481	27466
819.622	27671
819.762	27743
819.903	27778
820.043	27622
820.184	27587
820.324	27663
820.465	27606
820.605	27599
820.746	27686
820.886	27386
821.026	27648
821.167	27663
821.307	27625
821.447	27587
821.588	27481
821.728	27150
821.868	27085
822.008	27020
822.149	26971
822.289	27024
822.429	26788
822.569	26727
822.709	26644
822.849	26431
822.99	26480
823.13	26313
823.27	26393
823.41	26168
823.55	26183
823.69	26237
823.83	26259
823.97	26206
824.11	26130
824.25	26043
824.389	26145
824.529	26191
824.669	26126
824.809	26149
824.949	26191
825.089	26305
825.228	26062
825.368	26027
825.508	25898
825.648	25993
825.787	26035
825.927	26081
826.067	25944
826.206	25993
826.346	26020
826.485	26256
826.625	25921
826.765	26122
826.904	26062
827.044	25738
827.183	25670
827.323	25712
827.462	25742
827.601	25544
827.741	25765
827.88	25757
828.02	25575
828.159	25723
828.298	25685
828.437	25917
828.577	25674
828.716	25818
828.855	25529
828.994	25365
829.134	25453
829.273	25403
829.412	25411
829.551	25297
829.69	25343
829.829	25304
829.968	25434
830.107	25343
830.246	25335
830.385	25419
830.524	25343
830.663	25133
830.802	25171
830.941	24958
831.08	25114
831.219	25015
831.357	25095
831.496	25110
831.635	25012
831.774	24909
831.913	24848
832.051	24810
832.19	24779
832.329	24692
832.467	24715
832.606	24669
832.744	24574
832.883	24741
833.022	24688
833.16	24741
833.299	24646
833.437	24757
833.576	24688
833.714	24764
833.852	24711
833.991	24817
834.129	24840
834.267	24814
834.406	24681
834.544	24833
834.682	24688
834.821	24635
834.959	25004
835.097	24673
835.235	24677
835.373	24684
835.511	24688
835.65	24403
835.788	24741
835.926	24448
836.064	24372
836.202	24483
836.34	24555
836.478	24616
836.615	24593
836.753	24623
836.891	24677
837.029	24528
837.167	24563
837.305	24483
837.443	24376
837.58	24384
837.718	24437
837.856	24346
837.993	24509
838.131	24460
838.269	24311
838.406	24201
838.544	24201
838.681	24022
838.819	24038
838.956	23889
839.094	23832
839.231	23939
839.369	23912
839.506	24167
839.643	24018
839.781	23843
839.918	23722
840.055	23882
840.193	23718
840.33	23798
840.467	23722
840.604	23764
840.742	24053
840.879	23566
841.016	23684
841.153	23661
841.29	23836
841.427	23707
841.564	23764
841.701	23771
841.838	23710
841.975	23817
842.112	23642
842.249	23577
842.385	23516
842.522	23710
842.659	23558
842.796	23634
842.933	23543
843.069	23551
843.206	23391
843.343	23573
843.479	23577
843.616	23425
843.752	23212
843.889	23227
844.025	23455
844.162	23277
844.298	23372
844.435	23307
844.571	23273
844.708	23318
844.844	23391
844.98	23402
845.117	23265
845.253	23250
845.389	23121
845.525	23315
845.661	23109
845.798	22961
845.934	23086
846.07	23033
846.206	22968
846.342	23151
846.478	23098
846.614	22774
846.75	22694
846.886	22706
847.022	22771
847.158	22771
847.294	22820
847.429	22816
847.565	22729
847.701	22968
847.837	22538
847.972	22440
848.108	22660
848.244	22413
848.379	22382
848.515	22226
848.65	22246
848.786	22382
848.921	22356
849.057	22481
849.192	22573
849.328	22394
849.463	22344
849.598	22303
849.734	22158
849.869	22192
850.004	22116
850.14	22090
850.275	22128
850.41	22013
850.545	22055
850.68	21975
850.815	22177
850.95	22086
851.085	22185
851.22	22158
851.355	22097
851.49	22067
851.625	22017
851.76	22021
851.895	22070
852.03	22029
852.165	22074
852.299	22150
852.434	22147
852.569	22086
852.703	22139
852.838	22169
852.973	22128
853.107	22265
853.242	22013
853.376	21956
853.511	21812
853.645	21857
853.78	22048
853.914	21926
854.048	21956
854.183	21869
854.317	21831
854.451	22044
854.585	21865
854.72	21922
854.854	21899
854.988	21865
855.122	21964
855.256	21679
855.39	22044
855.524	22029
855.658	21922
855.792	21880
855.926	21880
856.06	21968
856.194	21964
856.327	21861
856.461	21774
856.595	21842
856.729	21846
856.862	22017
856.996	21922
857.13	21964
857.263	21888
857.397	22044
857.53	21979
857.664	21972
857.797	22048
857.931	21994
858.064	21930
858.197	22051
858.331	21732
858.464	21888
858.597	21793
858.731	21983
858.864	21781
858.997	21842
859.13	21888
859.263	21987
859.396	22082
859.529	21823
859.662	21895
859.795	21808
859.928	21918
860.061	22150
860.194	22158
860.327	21937
860.46	21983
860.592	22059
860.725	22059
860.858	22101
860.99	21895
861.123	21895
861.256	21960
861.388	21876
861.521	22710
861.653	21873
861.786	21606
861.918	21736
862.05	21812
862.183	21781
862.315	21892
862.447	21918
862.58	21873
862.712	21583
862.844	21644
862.976	21709
863.108	21637
863.24	22158
863.372	21507
863.504	21663
863.636	21603
863.768	21633
863.9	21633
864.032	21606
864.164	21614
864.296	21690
864.428	21679
864.559	21770
864.691	21633
864.823	21743
864.954	21705
865.086	21599
865.217	21625
865.349	21431
865.48	21447
865.612	21553
865.743	21587
865.875	21568
866.006	21519
866.137	21492
866.269	21485
866.4	21405
866.531	21488
866.662	21405
866.793	21351
866.924	21473
867.055	21500
867.186	21488
867.317	21420
867.448	21389
867.579	21431
867.71	21431
867.841	21325
867.972	21466
868.103	21542
868.233	21515
868.364	21458
868.495	21473
868.625	21660
868.756	21804
868.886	21603
869.017	21720
869.147	21816
869.278	21831
869.408	21812
869.539	21675
869.669	21698
869.799	21720
869.929	21823
870.06	21663
870.19	21975
870.32	21983
870.45	22109
870.58	21922
870.71	22105
870.84	22200
870.97	22147
871.1	22010
871.23	22090
871.36	22257
871.489	22207
871.619	22299
871.749	22249
871.879	22284
872.008	22443
872.138	22348
872.267	22276
872.397	22207
872.526	22021
872.656	22067
872.785	22166
872.915	22295
873.044	22443
873.173	22504
873.303	22360
873.432	22382
873.561	22497
873.69	22246
873.819	22268
873.948	22261
874.077	22261
874.206	22257
874.335	22261
874.464	22371
874.593	22550
874.722	22485
874.851	22550
874.979	22577
875.108	22630
875.237	22493
875.365	22550
875.494	22432
875.623	22599
875.751	22478
875.88	22489
876.008	22622
876.136	22698
876.265	23003
876.393	22999
876.521	23044
876.65	22991
876.778	22892
876.906	22831
877.034	22908
877.162	22854
877.29	22816
877.418	22911
877.546	22877
877.674	23003
877.802	22923
877.93	22835
878.058	22778
878.185	22706
878.313	22824
878.441	22786
878.568	22675
878.696	22782
878.824	22946
878.951	22885
879.079	23037
879.206	23033
879.333	23220
879.461	22831
879.588	23052
879.715	23079
879.842	23254
879.97	22862
880.097	22694
880.224	22672
880.351	22702
880.478	22687
880.605	22698
880.732	22599
880.859	22938
880.986	22713
881.112	22755
881.239	22466
881.366	22424
881.493	22344
881.619	22249
881.746	22344
881.872	22181
881.999	22188
882.125	22226
882.252	22257
882.378	22158
882.505	22363
882.631	22128
882.757	21892
882.883	21998
883.01	21903
883.136	21857
883.262	21686
883.388	21705
883.514	21857
883.64	21983
883.766	21797
883.892	21606
884.018	21694
884.143	21907
884.269	21937
884.395	21564
884.52	21599
884.646	21496
884.772	21477
884.897	21416
885.023	21408
885.148	21705
885.274	21728
885.399	21755
885.524	21603
885.65	21557
885.775	21618
885.9	21507
886.025	21759
886.15	21557
886.275	21454
886.4	21507
886.525	21469
886.65	21538
886.775	21519
886.9	21797
887.025	21724
887.149	21553
887.274	21473
887.399	21310
887.523	21325
887.648	21222
887.773	21252
887.897	21393
888.021	21466
888.146	21233
888.27	21405
888.395	21370
888.519	21420
888.643	21359
888.767	21397
888.891	21218
889.015	21222
889.139	21195
889.263	21169
889.387	21199
889.511	21336
889.635	21313
889.759	21142
889.883	21154
890.006	21093
890.13	21279
890.254	21100
890.377	21001
890.501	20838
890.624	20906
890.748	20937
890.871	20807
890.995	20629
891.118	20670
891.241	20708
891.364	20670
891.488	20849
891.611	20765
891.734	20724
891.857	20785
891.98	20727
892.103	20777
892.226	20807
892.349	20731
892.471	20518
892.594	20541
892.717	20724
892.839	20716
892.962	20651
893.085	20560
893.207	20590
893.33	20533
893.452	20587
893.575	20651
893.697	20686
893.819	20785
893.941	20811
894.064	20845
894.186	20526
894.308	20552
894.43	20682
894.552	20701
894.674	20682
894.796	20537
894.918	20693
895.04	20552
895.161	20651
895.283	20663
895.405	20427
895.526	20670
895.648	20556
895.769	20705
895.891	20655
896.012	20670
896.134	20777
896.255	20549
896.376	20625
896.498	20549
896.619	20640
896.74	20648
896.861	20617
896.982	20941
897.103	21093
897.224	20887
897.345	20796
897.466	20845
897.587	20914
897.708	20994
897.828	20960
897.949	20807
898.07	20705
898.19	20720
898.311	20941
898.431	20651
898.552	20845
898.672	20914
898.792	20845
898.913	20845
899.033	20716
899.153	20587
899.273	20511
899.393	20514
899.513	20556
899.633	20571
899.753	20594
899.873	20571
899.993	20549
900.113	20461
900.232	20533
900.352	20415
900.472	20343
900.591	20282
900.711	20404
900.83	20332
900.95	20492
901.069	20427
901.189	20332
901.308	19963
901.427	19925
901.546	19974
901.665	20031
901.784	19936
901.904	19635
902.023	19712
902.141	19518
902.26	19434
902.379	19529
902.498	19441
902.617	19392
902.735	19419
902.854	19438
902.973	19289
903.091	19152
903.21	19034
903.328	19015
903.446	19065
903.565	18920
903.683	18863
903.801	18749
903.919	18852
904.038	18840
904.156	18593
904.274	18719
904.392	18608
904.51	18620
904.627	18631
904.745	18703
904.863	18669
904.981	18464
905.098	18334
905.216	18213
905.334	18330
905.451	18361
905.569	18235
905.686	18319
905.803	18270
905.921	18114
906.038	18201
906.155	18087
906.272	18003
906.389	18026
906.506	17893
906.623	17748
906.74	17870
906.857	17771
906.974	17798
907.091	17897
907.208	17904
907.324	17893
907.441	17665
907.557	17684
907.674	17570
907.79	17501
907.907	17425
908.023	17611
908.139	17573
908.256	17398
908.372	17455
908.488	17486
908.604	17311
908.72	17307
908.836	17410
908.952	17235
909.068	17197
909.184	17349
909.3	17246
909.415	17284
909.531	17277
909.647	16991
909.762	17045
909.878	16911
909.993	17045
910.108	16877
910.224	16957
910.339	16862
910.454	16797
910.57	16873
910.685	16767
910.8	17003
910.915	16927
911.03	16843
911.145	16672
911.259	16592
911.374	16596
911.489	16607
911.604	16443
911.718	16310
911.833	16333
911.947	16234
912.062	16200
912.176	16306
912.291	16333
912.405	16348
912.519	16519
912.633	16527
912.748	16363
912.862	16249
912.976	16131
913.09	16101
913.204	16109
913.318	16105
913.431	16234
913.545	16230
913.659	16150
913.772	16067
913.886	15953
914	15876
914.113	16010
914.226	16010
914.34	16105
914.453	15831
914.566	15907
914.68	15759
914.793	15743
914.906	15568
915.019	15435
915.132	15431
915.245	15507
915.358	15530
915.47	15530
915.583	15500
915.696	15576
915.809	15747
915.921	15675
916.034	15412
916.146	15325
916.259	15466
916.371	15458
916.483	15416
916.595	15393
916.708	15355
916.82	15393
916.932	15157
917.044	15344
917.156	15252
917.268	15218
917.38	15184
917.491	15138
917.603	15173
917.715	15203
917.826	15218
917.938	15055
918.049	15055
918.161	15207
918.272	15264
918.384	15161
918.495	15028
918.606	14941
918.717	14948
918.828	14948
918.939	14914
919.05	14689
919.161	14807
919.272	14746
919.383	14811
919.494	14902
919.604	15001
919.715	14880
919.826	14758
919.936	14826
920.047	14891
920.157	14792
920.267	15036
920.378	14838
920.488	14842
920.598	14941
920.708	15207
920.818	14986
920.928	14929
921.038	15150
921.148	15043
921.258	14815
921.368	14777
921.477	14651
921.587	14651
921.697	14526
921.806	14606
921.916	14415
922.025	14290
922.134	14214
922.244	14119
922.353	14221
922.462	14126
922.571	14107
922.68	13932
922.789	13818
922.898	13902
923.007	13879
923.116	13788
923.224	13830
923.333	13879
923.442	13753
923.55	13639
923.659	13700
923.767	13693
923.876	13609
923.984	13791
924.092	13582
924.201	13578
924.309	13563
924.417	13655
924.525	13567
924.633	13559
924.741	14298
924.849	13259
924.956	13476
925.064	13327
925.172	13202
925.279	13282
925.387	13308
925.494	13190
925.602	13362
925.709	13221
925.816	13206
925.924	13312
926.031	13384
926.138	13198
926.245	13240
926.352	13160
926.459	13312
926.566	13187
926.673	13114
926.779	13053
926.886	13057
926.993	12951
927.099	12779
927.206	12779
927.312	12719
927.419	12840
927.525	12760
927.631	12894
927.737	12783
927.843	12741
927.95	12445
928.056	12646
928.162	12639
928.267	12658
928.373	13324
928.479	12730
928.585	12422
928.69	12551
928.796	12582
928.901	12471
929.007	12338
929.112	12551
929.218	12410
929.323	12376
929.428	12346
929.533	12437
929.638	12292
929.743	12292
929.848	12330
929.953	12308
930.058	12228
930.163	12019
930.267	12030
930.372	12251
930.477	11980
930.581	12201
930.685	12026
930.79	11980
930.894	11950
930.998	11893
931.103	12041
931.207	11699
931.311	11661
931.415	11512
931.519	11284
931.623	11372
