Data from test_V78500241_3396.txt Node
Date: Fri Mar 25 16:05:19 CST 2022
User: usil
Spectrometer: V785-0024
Trigger mode: 0
Integration Time (sec): 4.000000E-1
Scans to average: 1
Nonlinearity correction enabled: false
Boxcar width: 0
Storing dark spectrum: false
XAxis mode: Wavelengths
Number of Pixels in Spectrum: 1024
>>>>>Begin Spectral Data<<<<<
801.071	28162
801.214	28185
801.356	28021
801.499	27972
801.641	27873
801.783	27724
801.926	27914
802.068	27793
802.211	27766
802.353	27660
802.496	27496
802.638	27576
802.78	27447
802.923	27526
803.065	27389
803.208	27424
803.35	27580
803.492	27629
803.635	27800
803.777	27736
803.919	27720
804.061	27941
804.204	27819
804.346	27618
804.488	27637
804.63	27629
804.773	27488
804.915	27603
805.057	27892
805.199	27686
805.341	27766
805.483	27804
805.626	27762
805.768	27766
805.91	27865
806.052	27800
806.194	27739
806.336	28131
806.478	27831
806.62	27812
806.762	28040
806.904	28276
807.046	28398
807.188	28257
807.33	28112
807.472	28329
807.614	28280
807.756	28192
807.898	28226
808.04	28074
808.182	28070
808.324	28048
808.465	28329
808.607	28462
808.749	28440
808.891	28618
809.033	28672
809.174	28653
809.316	28554
809.458	28478
809.6	28500
809.741	28660
809.883	28637
810.025	28729
810.166	28816
810.308	28869
810.45	28767
810.591	28675
810.733	28618
810.875	28432
811.016	28322
811.158	28325
811.299	28637
811.441	28710
811.582	28778
811.724	28447
811.865	28447
812.007	28500
812.148	28546
812.29	28417
812.431	28744
812.573	28831
812.714	29041
812.855	29010
812.997	29025
813.138	29307
813.279	29022
813.421	28980
813.562	28915
813.703	28744
813.845	28771
813.986	28310
814.127	28272
814.268	28226
814.41	28299
814.551	28284
814.692	28314
814.833	28097
814.974	28086
815.115	28242
815.256	28059
815.397	28013
815.539	28082
815.68	28040
815.821	27956
815.962	28029
816.103	28036
816.244	27762
816.385	27743
816.526	27641
816.666	27591
816.807	27378
816.948	27610
817.089	27701
817.23	27610
817.371	27545
817.512	27443
817.653	27507
817.793	27561
817.934	27431
818.075	27454
818.216	27637
818.356	27401
818.497	27466
818.638	27199
818.778	27131
818.919	27226
819.06	27447
819.2	27344
819.341	27458
819.481	27332
819.622	27618
819.762	27789
819.903	27705
820.043	27694
820.184	27583
820.324	27469
820.465	27595
820.605	27477
820.746	27641
820.886	27519
821.026	27538
821.167	27694
821.307	27690
821.447	27515
821.588	27359
821.728	27313
821.868	27211
822.008	26956
822.149	26944
822.289	27146
822.429	26659
822.569	26625
822.709	26724
822.849	26469
822.99	26423
823.13	26465
823.27	26412
823.41	26400
823.55	26336
823.69	26336
823.83	26324
823.97	26183
824.11	26157
824.25	26035
824.389	26157
824.529	26153
824.669	26172
824.809	26195
824.949	26252
825.089	26252
825.228	26103
825.368	25913
825.508	26046
825.648	25989
825.787	26039
825.927	26142
826.067	25890
826.206	25849
826.346	25959
826.485	26058
826.625	25814
826.765	26031
826.904	26119
827.044	25826
827.183	25772
827.323	25655
827.462	25757
827.601	25769
827.741	25814
827.88	25799
828.02	25582
828.159	25597
828.298	25632
828.437	25704
828.577	25628
828.716	25841
828.855	25499
828.994	25403
829.134	25449
829.273	25320
829.412	25263
829.551	25327
829.69	25369
829.829	25384
829.968	25407
830.107	25518
830.246	25312
830.385	25491
830.524	25259
830.663	25240
830.802	25099
830.941	25050
831.08	25027
831.219	25046
831.357	25000
831.496	25274
831.635	25012
831.774	24985
831.913	24848
832.051	24760
832.19	24715
832.329	24635
832.467	24726
832.606	24639
832.744	24715
832.883	24791
833.022	24745
833.16	24760
833.299	24593
833.437	24707
833.576	24802
833.714	24837
833.852	24825
833.991	24749
834.129	24867
834.267	24791
834.406	24715
834.544	24882
834.682	24730
834.821	24692
834.959	24795
835.097	24566
835.235	24715
835.373	24764
835.511	24707
835.65	24551
835.788	24627
835.926	24505
836.064	24483
836.202	24361
836.34	24623
836.478	24650
836.615	24627
836.753	24555
836.891	24715
837.029	24544
837.167	24608
837.305	24525
837.443	24433
837.58	24521
837.718	24403
837.856	24372
837.993	24388
838.131	24498
838.269	24251
838.406	24258
838.544	24235
838.681	24068
838.819	23992
838.956	23889
839.094	23836
839.231	23904
839.369	24057
839.506	24201
839.643	24224
839.781	23923
839.918	23745
840.055	23901
840.193	23863
840.33	23851
840.467	23710
840.604	23961
840.742	24144
840.879	23646
841.016	23680
841.153	23638
841.29	23878
841.427	23802
841.564	23786
841.701	23840
841.838	23722
841.975	23729
842.112	23699
842.249	23619
842.385	23531
842.522	23672
842.659	23619
842.796	23383
842.933	23615
843.069	23573
843.206	23520
843.343	23611
843.479	23463
843.616	23528
843.752	23322
843.889	23353
844.025	23425
844.162	23223
844.298	23368
844.435	23345
844.571	23250
844.708	23326
844.844	23341
844.98	23379
845.117	23322
845.253	23261
845.389	23143
845.525	23261
845.661	23193
845.798	23079
845.934	23162
846.07	23140
846.206	23185
846.342	23185
846.478	23075
846.614	22881
846.75	22740
846.886	22710
847.022	22812
847.158	22889
847.294	22782
847.429	22668
847.565	22660
847.701	23022
847.837	22596
847.972	22470
848.108	22634
848.244	22603
848.379	22390
848.515	22287
848.65	22257
848.786	22455
848.921	22192
849.057	22356
849.192	22546
849.328	22390
849.463	22265
849.598	22371
849.734	22375
849.869	22337
850.004	22010
850.14	22177
850.275	22093
850.41	21956
850.545	22017
850.68	22002
850.815	22078
850.95	22188
851.085	22276
851.22	22276
851.355	22097
851.49	22120
851.625	22078
851.76	22055
851.895	22048
852.03	22032
852.165	22097
852.299	22128
852.434	22238
852.569	22192
852.703	22128
852.838	22223
852.973	22188
853.107	22188
853.242	22116
853.376	22067
853.511	21930
853.645	21949
853.78	22128
853.914	21903
854.048	21960
854.183	22025
854.317	21930
854.451	22070
854.585	21846
854.72	21994
854.854	22055
854.988	21888
855.122	21998
855.256	21880
855.39	21915
855.524	21960
855.658	22135
855.792	21934
855.926	22128
856.06	22013
856.194	22078
856.327	21876
856.461	21880
856.595	21941
856.729	21892
856.862	22017
856.996	21983
857.13	22090
857.263	21979
857.397	22044
857.53	22013
857.664	22029
857.797	22021
857.931	22040
858.064	22086
858.197	22021
858.331	21884
858.464	21987
858.597	21774
858.731	22006
858.864	21895
858.997	21873
859.13	22002
859.263	22101
859.396	22082
859.529	21979
859.662	22006
859.795	21975
859.928	22017
860.061	22116
860.194	22246
860.327	22006
860.46	21899
860.592	22109
860.725	22246
860.858	22181
860.99	21888
861.123	21934
861.256	22013
861.388	21994
861.521	22797
861.653	21907
861.786	21751
861.918	21865
862.05	21892
862.183	21922
862.315	21819
862.447	21998
862.58	21842
862.712	21751
862.844	21644
862.976	21804
863.108	21713
863.24	22059
863.372	21610
863.504	21747
863.636	21713
863.768	21603
863.9	21720
864.032	21663
864.164	21572
864.296	21686
864.428	21648
864.559	21819
864.691	21732
864.823	21637
864.954	21774
865.086	21603
865.217	21504
865.349	21466
865.48	21576
865.612	21591
865.743	21637
865.875	21701
866.006	21485
866.137	21526
866.269	21374
866.4	21622
866.531	21568
866.662	21439
866.793	21507
866.924	21473
867.055	21462
867.186	21526
867.317	21374
867.448	21302
867.579	21530
867.71	21363
867.841	21408
867.972	21549
868.103	21549
868.233	21378
868.364	21462
868.495	21633
868.625	21690
868.756	21774
868.886	21667
869.017	21778
869.147	21705
869.278	21888
869.408	21686
869.539	21644
869.669	21831
869.799	21827
869.929	21743
870.06	21838
870.19	22078
870.32	21869
870.45	22059
870.58	22219
870.71	22272
870.84	22204
870.97	22344
871.1	22150
871.23	22299
871.36	22280
871.489	22230
871.619	22280
871.749	22265
871.879	22504
872.008	22497
872.138	22390
872.267	22375
872.397	22276
872.526	22158
872.656	22173
872.785	22131
872.915	22436
873.044	22474
873.173	22230
873.303	22344
873.432	22402
873.561	22546
873.69	22402
873.819	22413
873.948	22421
874.077	22303
874.206	22360
874.335	22409
874.464	22322
874.593	22527
874.722	22531
874.851	22485
874.979	22493
875.108	22626
875.237	22523
875.365	22470
875.494	22512
875.623	22733
875.751	22630
875.88	22611
876.008	22618
876.136	22763
876.265	22972
876.393	23056
876.521	22972
876.65	23136
876.778	23022
876.906	22839
877.034	22934
877.162	22828
877.29	22801
877.418	22911
877.546	22847
877.674	22866
877.802	23006
877.93	22866
878.058	22915
878.185	22809
878.313	22809
878.441	22809
878.568	22831
878.696	22793
878.824	23029
878.951	23033
879.079	23151
879.206	23246
879.333	23128
879.461	22968
879.588	23071
879.715	23136
879.842	23246
879.97	23010
880.097	22782
880.224	22717
880.351	22744
880.478	22733
880.605	22672
880.732	22710
880.859	22927
880.986	22824
881.112	22843
881.239	22565
881.366	22474
881.493	22474
881.619	22306
881.746	22375
881.872	22360
881.999	22257
882.125	22299
882.252	22303
882.378	22295
882.505	22249
882.631	22059
882.757	22013
882.883	22101
883.01	21975
883.136	21937
883.262	21812
883.388	21869
883.514	21964
883.64	22002
883.766	21888
883.892	21797
884.018	21903
884.143	21972
884.269	22021
884.395	21770
884.52	21610
884.646	21667
884.772	21572
884.897	21492
885.023	21652
885.148	21846
885.274	21762
885.399	21701
885.524	21599
885.65	21652
885.775	21728
885.9	21542
886.025	21762
886.15	21591
886.275	21507
886.4	21599
886.525	21561
886.65	21507
886.775	21507
886.9	21671
887.025	21816
887.149	21526
887.274	21549
887.399	21469
887.523	21412
887.648	21344
887.773	21165
887.897	21378
888.021	21496
888.146	21351
888.27	21454
888.395	21599
888.519	21435
888.643	21386
888.767	21439
888.891	21313
889.015	21214
889.139	21272
889.263	21245
889.387	21268
889.511	21469
889.635	21291
889.759	21180
889.883	21214
890.006	21211
890.13	21313
890.254	21112
890.377	21108
890.501	20986
890.624	20956
890.748	20982
890.871	20777
890.995	20727
891.118	20678
891.241	20739
891.364	20792
891.488	20743
891.611	20796
891.734	20743
891.857	20815
891.98	20689
892.103	20807
892.226	20773
892.349	20663
892.471	20450
892.594	20560
892.717	20621
892.839	20686
892.962	20765
893.085	20629
893.207	20686
893.33	20583
893.452	20583
893.575	20739
893.697	20556
893.819	20777
893.941	20845
894.064	20781
894.186	20579
894.308	20568
894.43	20796
894.552	20800
894.674	20686
894.796	20507
894.918	20625
895.04	20609
895.161	20697
895.283	20648
895.405	20549
895.526	20750
895.648	20602
895.769	20556
895.891	20537
896.012	20682
896.134	20712
896.255	20625
896.376	20693
896.498	20739
896.619	20571
896.74	20651
896.861	20724
896.982	20929
897.103	21123
897.224	20948
897.345	20929
897.466	20769
897.587	20861
897.708	20986
897.828	20880
897.949	20712
898.07	20746
898.19	20800
898.311	20929
898.431	20724
898.552	20689
898.672	20834
898.792	20948
898.913	20887
899.033	20712
899.153	20556
899.273	20465
899.393	20640
899.513	20636
899.633	20617
899.753	20602
899.873	20400
899.993	20853
900.113	20575
900.232	20560
900.352	20499
900.472	20396
900.591	20313
900.711	20336
900.83	20313
900.95	20450
901.069	20415
901.189	20218
901.308	19970
901.427	19970
901.546	19974
901.665	19936
901.784	19784
901.904	19822
902.023	19734
902.141	19491
902.26	19521
902.379	19559
902.498	19506
902.617	19426
902.735	19419
902.854	19392
902.973	19388
903.091	19244
903.21	19091
903.328	19072
903.446	19053
903.565	18958
903.683	19012
903.801	18833
903.919	18863
904.038	18909
904.156	18783
904.274	18768
904.392	18715
904.51	18696
904.627	18593
904.745	18654
904.863	18654
904.981	18540
905.098	18365
905.216	18350
905.334	18388
905.451	18372
905.569	18353
905.686	18281
905.803	18353
905.921	18186
906.038	18117
906.155	18121
906.272	18076
906.389	18026
906.506	17870
906.623	17923
906.74	17855
906.857	17752
906.974	17786
907.091	17851
907.208	17977
907.324	17885
907.441	17752
907.557	17657
907.674	17551
907.79	17535
907.907	17539
908.023	17577
908.139	17573
908.256	17455
908.372	17520
908.488	17406
908.604	17307
908.72	17197
908.836	17315
908.952	17288
909.068	17326
909.184	17345
909.3	17258
909.415	17311
909.531	17250
909.647	17064
909.762	16991
909.878	16980
909.993	17003
910.108	16930
910.224	16889
910.339	16934
910.454	16957
910.57	16828
910.685	16668
910.8	17052
910.915	16889
911.03	16771
911.145	16691
911.259	16630
911.374	16542
911.489	16424
911.604	16440
911.718	16375
911.833	16329
911.947	16253
912.062	16200
912.176	16261
912.291	16329
912.405	16341
912.519	16599
912.633	16561
912.748	16341
912.862	16287
912.976	16109
913.09	16105
913.204	16082
913.318	16192
913.431	16200
913.545	16230
913.659	16276
913.772	16090
913.886	15956
914	15907
914.113	15975
914.226	16082
914.34	15975
914.453	15846
914.566	15907
914.68	15751
914.793	15736
914.906	15564
915.019	15496
915.132	15496
915.245	15591
915.358	15568
915.47	15584
915.583	15450
915.696	15538
915.809	15603
915.921	15606
916.034	15424
916.146	15374
916.259	15458
916.371	15485
916.483	15374
916.595	15389
916.708	15317
916.82	15374
916.932	15378
917.044	15306
917.156	15306
917.268	15188
917.38	15214
917.491	15188
917.603	15157
917.715	15252
917.826	15203
917.938	15116
918.049	15051
918.161	15089
918.272	15233
918.384	15233
918.495	15077
918.606	14971
918.717	14891
918.828	14914
918.939	14864
919.05	14834
919.161	14925
919.272	14686
919.383	14670
919.494	14906
919.604	15062
919.715	15017
919.826	14765
919.936	14838
920.047	14948
920.157	14906
920.267	14998
920.378	14948
920.488	14792
920.598	15043
920.708	15264
920.818	15070
920.928	14948
921.038	15112
921.148	15081
921.258	14842
921.368	14769
921.477	14693
921.587	14625
921.697	14419
921.806	14667
921.916	14412
922.025	14328
922.134	14237
922.244	14210
922.353	14240
922.462	14126
922.571	14069
922.68	13928
922.789	13921
922.898	13936
923.007	13849
923.116	14001
923.224	13879
923.333	13959
923.442	13753
923.55	13738
923.659	13791
923.767	13818
923.876	13693
923.984	13742
924.092	13597
924.201	13681
924.309	13582
924.417	13700
924.525	13559
924.633	13559
924.741	14518
924.849	13403
924.956	13502
925.064	13373
925.172	13247
925.279	13362
925.387	13339
925.494	13289
925.602	13480
925.709	13270
925.816	13171
925.924	13244
926.031	13304
926.138	13316
926.245	13304
926.352	13091
926.459	13247
926.566	13316
926.673	13133
926.779	13080
926.886	13042
926.993	12943
927.099	12890
927.206	12913
927.312	12764
927.419	12905
927.525	12924
927.631	12954
927.737	12798
927.843	12703
927.95	12601
928.056	12688
928.162	12684
928.267	12707
928.373	13316
928.479	12726
928.585	12532
928.69	12726
928.796	12677
928.901	12479
929.007	12467
929.112	12483
929.218	12460
929.323	12471
929.428	12429
929.533	12486
929.638	12273
929.743	12376
929.848	12384
929.953	12285
930.058	12262
930.163	12083
930.267	12076
930.372	12239
930.477	12072
930.581	12281
930.685	12175
930.79	11931
930.894	12011
930.998	11931
931.103	12064
931.207	11672
931.311	11657
931.415	11596
931.519	11288
931.623	11288
