Data from test_V78500241_484.txt Node
Date: Fri Mar 25 15:45:09 CST 2022
User: usil
Spectrometer: V785-0024
Trigger mode: 0
Integration Time (sec): 4.000000E-1
Scans to average: 1
Nonlinearity correction enabled: false
Boxcar width: 0
Storing dark spectrum: false
XAxis mode: Wavelengths
Number of Pixels in Spectrum: 1024
>>>>>Begin Spectral Data<<<<<
801.071	27583
801.214	27557
801.356	27298
801.499	27199
801.641	27184
801.783	27142
801.926	27272
802.068	27169
802.211	27150
802.353	27051
802.496	26746
802.638	26674
802.78	26743
802.923	26727
803.065	26617
803.208	26750
803.35	26796
803.492	26876
803.635	27062
803.777	26788
803.919	26807
804.061	27104
804.204	26861
804.346	26853
804.488	26724
804.63	26796
804.773	26800
804.915	26929
805.057	26967
805.199	26914
805.341	26933
805.483	26910
805.626	26940
805.768	26937
805.91	26940
806.052	26853
806.194	27070
806.336	27226
806.478	27020
806.62	27009
806.762	27188
806.904	27237
807.046	27671
807.188	27427
807.33	27359
807.472	27606
807.614	27386
807.756	27268
807.898	27340
808.04	27138
808.182	27214
808.324	27211
808.465	27241
808.607	27545
808.749	27633
808.891	27686
809.033	27808
809.174	27618
809.316	27686
809.458	27603
809.6	27660
809.741	27770
809.883	27831
810.025	27850
810.166	27861
810.308	27861
810.45	27953
810.591	27838
810.733	27785
810.875	27561
811.016	27591
811.158	27511
811.299	27793
811.441	27766
811.582	27705
811.724	27599
811.865	27568
812.007	27530
812.148	27686
812.29	27781
812.431	27964
812.573	27975
812.714	28002
812.855	28086
812.997	28284
813.138	28306
813.279	28329
813.421	28188
813.562	28032
813.703	28109
813.845	27937
813.986	27557
814.127	27363
814.268	27359
814.41	27272
814.551	27142
814.692	27310
814.833	27154
814.974	27195
815.115	27332
815.256	27279
815.397	27222
815.539	27077
815.68	27116
815.821	27036
815.962	27070
816.103	27100
816.244	26971
816.385	26948
816.526	26845
816.666	26663
816.807	26511
816.948	26769
817.089	26648
817.23	26739
817.371	26560
817.512	26602
817.653	26594
817.793	26507
817.934	26575
818.075	26556
818.216	26609
818.356	26560
818.497	26317
818.638	26298
818.778	26259
818.919	26351
819.06	26336
819.2	26484
819.341	26453
819.481	26606
819.622	26727
819.762	26735
819.903	26826
820.043	26686
820.184	26716
820.324	26625
820.465	26754
820.605	26625
820.746	26564
820.886	26423
821.026	26560
821.167	26659
821.307	26655
821.447	26507
821.588	26480
821.728	26309
821.868	26145
822.008	26027
822.149	26005
822.289	25974
822.429	25841
822.569	25719
822.709	25723
822.849	25563
822.99	25499
823.13	25544
823.27	25445
823.41	25354
823.55	25137
823.69	25449
823.83	25339
823.97	25206
824.11	25061
824.25	25099
824.389	25206
824.529	25221
824.669	25160
824.809	25236
824.949	25316
825.089	25362
825.228	25301
825.368	24981
825.508	25065
825.648	25042
825.787	24913
825.927	25084
826.067	24947
826.206	25027
826.346	25042
826.485	25118
826.625	24962
826.765	25156
826.904	25084
827.044	24810
827.183	24776
827.323	24616
827.462	24715
827.601	24658
827.741	24703
827.88	24658
828.02	24540
828.159	24623
828.298	24593
828.437	24757
828.577	24688
828.716	24798
828.855	24635
828.994	24315
829.134	24437
829.273	24395
829.412	24277
829.551	24319
829.69	24437
829.829	24460
829.968	24650
830.107	24517
830.246	24452
830.385	24251
830.524	24391
830.663	24251
830.802	24121
830.941	24057
831.08	24011
831.219	24163
831.357	24041
831.496	24144
831.635	23897
831.774	23901
831.913	23901
832.051	23859
832.19	23634
832.329	23817
832.467	23668
832.606	23661
832.744	23570
832.883	23695
833.022	23638
833.16	23684
833.299	23630
833.437	23840
833.576	23710
833.714	23722
833.852	23775
833.991	23737
834.129	23889
834.267	23878
834.406	23760
834.544	23714
834.682	23775
834.821	23684
834.959	23767
835.097	23619
835.235	23885
835.373	23695
835.511	23783
835.65	23512
835.788	23619
835.926	23547
836.064	23516
836.202	23414
836.34	23649
836.478	23623
836.615	23505
836.753	23463
836.891	23581
837.029	23687
837.167	23539
837.305	23406
837.443	23570
837.58	23337
837.718	23493
837.856	23512
837.993	23379
838.131	23387
838.269	23341
838.406	23200
838.544	23227
838.681	23170
838.819	23041
838.956	22866
839.094	22831
839.231	22923
839.369	23113
839.506	23200
839.643	22991
839.781	22885
839.918	22805
840.055	22839
840.193	22782
840.33	22805
840.467	22767
840.604	22965
840.742	23071
840.879	22672
841.016	22843
841.153	22797
841.29	22915
841.427	22793
841.564	22820
841.701	22816
841.838	22759
841.975	22725
842.112	22596
842.249	22672
842.385	22512
842.522	22801
842.659	22573
842.796	22634
842.933	22611
843.069	22459
843.206	22409
843.343	22508
843.479	22618
843.616	22478
843.752	22318
843.889	22341
844.025	22599
844.162	22394
844.298	22360
844.435	22284
844.571	22158
844.708	22333
844.844	22485
844.98	22436
845.117	22440
845.253	22322
845.389	22029
845.525	22242
845.661	22268
845.798	22139
845.934	22192
846.07	21945
846.206	22196
846.342	22177
846.478	22090
846.614	21808
846.75	21686
846.886	21865
847.022	21846
847.158	21880
847.294	21660
847.429	21861
847.565	21800
847.701	22051
847.837	21561
847.972	21534
848.108	21580
848.244	21557
848.379	21389
848.515	21477
848.65	21336
848.786	21473
848.921	21401
849.057	21458
849.192	21568
849.328	21450
849.463	21454
849.598	21264
849.734	21180
849.869	21180
850.004	21173
850.14	21237
850.275	21047
850.41	21146
850.545	21020
850.68	21138
850.815	21005
850.95	21108
851.085	21435
851.22	21237
851.355	21169
851.49	21036
851.625	21127
851.76	21093
851.895	21112
852.03	21039
852.165	21214
852.299	21161
852.434	21222
852.569	21138
852.703	21138
852.838	21119
852.973	21256
853.107	21218
853.242	21070
853.376	21047
853.511	20849
853.645	20906
853.78	21157
853.914	21028
854.048	20929
854.183	21001
854.317	21066
854.451	21184
854.585	20952
854.72	20929
854.854	21024
854.988	20819
855.122	20967
855.256	20857
855.39	21058
855.524	21024
855.658	21085
855.792	21039
855.926	20910
856.06	21047
856.194	21096
856.327	21013
856.461	20876
856.595	20906
856.729	21024
856.862	21100
856.996	20986
857.13	21020
857.263	21096
857.397	21081
857.53	20960
857.664	20986
857.797	21058
857.931	21017
858.064	20933
858.197	21066
858.331	20960
858.464	20823
858.597	20777
858.731	20838
858.864	20952
858.997	20975
859.13	20876
859.263	21009
859.396	21135
859.529	20990
859.662	20956
859.795	20887
859.928	20979
860.061	21138
860.194	21081
860.327	20990
860.46	20895
860.592	21096
860.725	21176
860.858	21077
860.99	20899
861.123	20823
861.256	20883
861.388	21058
861.521	21652
861.653	20941
861.786	20819
861.918	20800
862.05	20807
862.183	20796
862.315	20868
862.447	20853
862.58	20830
862.712	20735
862.844	20743
862.976	20781
863.108	20697
863.24	21089
863.372	20583
863.504	20712
863.636	20670
863.768	20701
863.9	20750
864.032	20549
864.164	20731
864.296	20682
864.428	20731
864.559	20746
864.691	20731
864.823	20716
864.954	20663
865.086	20648
865.217	20598
865.349	20552
865.48	20499
865.612	20587
865.743	20606
865.875	20625
866.006	20545
866.137	20492
866.269	20457
866.4	20613
866.531	20484
866.662	20457
866.793	20514
866.924	20518
867.055	20476
867.186	20503
867.317	20537
867.448	20362
867.579	20465
867.71	20343
867.841	20465
867.972	20408
868.103	20457
868.233	20469
868.364	20568
868.495	20507
868.625	20804
868.756	20746
868.886	20693
869.017	20785
869.147	20948
869.278	20880
869.408	20682
869.539	20644
869.669	20826
869.799	20807
869.929	20948
870.06	20864
870.19	21116
870.32	21074
870.45	21119
870.58	21214
870.71	21294
870.84	21226
870.97	21104
871.1	21131
871.23	21264
871.36	21348
871.489	21222
871.619	21389
871.749	21416
871.879	21351
872.008	21492
872.138	21435
872.267	21355
872.397	21237
872.526	21188
872.656	21275
872.785	21173
872.915	21386
873.044	21473
873.173	21420
873.303	21492
873.432	21408
873.561	21466
873.69	21370
873.819	21363
873.948	21454
874.077	21485
874.206	21393
874.335	21340
874.464	21485
874.593	21690
874.722	21622
874.851	21717
874.979	21549
875.108	21595
875.237	21576
875.365	21580
875.494	21538
875.623	21614
875.751	21564
875.88	21564
876.008	21720
876.136	21907
876.265	22025
876.393	22086
876.521	21994
876.65	22070
876.778	22029
876.906	22090
877.034	21983
877.162	21979
877.29	22036
877.418	21998
877.546	21998
877.674	21949
877.802	21991
877.93	21987
878.058	21861
878.185	21888
878.313	22051
878.441	21991
878.568	21850
878.696	21975
878.824	21972
878.951	22116
879.079	22109
879.206	22166
879.333	22242
879.461	22051
879.588	22150
879.715	22166
879.842	22234
879.97	22040
880.097	21880
880.224	21728
880.351	21846
880.478	21835
880.605	21785
880.732	21728
880.859	21972
880.986	21827
881.112	21915
881.239	21656
881.366	21572
881.493	21477
881.619	21393
881.746	21317
881.872	21302
881.999	21325
882.125	21283
882.252	21428
882.378	21302
882.505	21386
882.631	21321
882.757	20998
882.883	21169
883.01	21066
883.136	21005
883.262	20944
883.388	20861
883.514	21028
883.64	21017
883.766	21036
883.892	20838
884.018	20857
884.143	21036
884.269	20979
884.395	20868
884.52	20807
884.646	20781
884.772	20648
884.897	20602
885.023	20769
885.148	20925
885.274	20864
885.399	20804
885.524	20746
885.65	20807
885.775	20739
885.9	20754
886.025	20796
886.15	20785
886.275	20739
886.4	20716
886.525	20682
886.65	20712
886.775	20667
886.9	20883
887.025	21047
887.149	20746
887.274	20522
887.399	20457
887.523	20522
887.648	20271
887.773	20259
887.897	20583
888.021	20556
888.146	20408
888.27	20552
888.395	20621
888.519	20530
888.643	20655
888.767	20526
888.891	20404
889.015	20412
889.139	20374
889.263	20286
889.387	20339
889.511	20575
889.635	20351
889.759	20256
889.883	20248
890.006	20313
890.13	20454
890.254	20229
890.377	20267
890.501	19997
890.624	19940
890.748	20027
890.871	19917
890.995	19864
891.118	19742
891.241	19845
891.364	19852
891.488	19890
891.611	19902
891.734	19890
891.857	19936
891.98	19708
892.103	19890
892.226	19837
892.349	19913
892.471	19620
892.594	19833
892.717	19864
892.839	19689
892.962	19769
893.085	19871
893.207	19833
893.33	19723
893.452	19727
893.575	19765
893.697	19807
893.819	19947
893.941	19970
894.064	19936
894.186	19704
894.308	19670
894.43	19811
894.552	19826
894.674	19822
894.796	19651
894.918	19742
895.04	19734
895.161	19761
895.283	19830
895.405	19780
895.526	19803
895.648	19685
895.769	19830
895.891	19731
896.012	19902
896.134	19894
896.255	19811
896.376	19742
896.498	19753
896.619	19746
896.74	19715
896.861	19837
896.982	20210
897.103	20328
897.224	20012
897.345	19967
897.466	20001
897.587	20024
897.708	20107
897.828	20142
897.949	20024
898.07	19791
898.19	19974
898.311	20100
898.431	19955
898.552	20100
898.672	20073
898.792	19989
898.913	20054
899.033	19936
899.153	19765
899.273	19696
899.393	19807
899.513	19803
899.633	19696
899.753	19833
899.873	19681
899.993	19757
900.113	19719
900.232	19772
900.352	19750
900.472	19597
900.591	19578
900.711	19643
900.83	19453
900.95	19769
901.069	19757
901.189	19449
901.308	19304
901.427	19088
901.546	19183
901.665	19126
901.784	19099
901.904	19175
902.023	18894
902.141	18753
902.26	18650
902.379	18894
902.498	18658
902.617	18479
902.735	18726
902.854	18646
902.973	18654
903.091	18292
903.21	18350
903.328	18422
903.446	18330
903.565	18197
903.683	18110
903.801	18041
903.919	18064
904.038	18117
904.156	17904
904.274	17980
904.392	17855
904.51	17775
904.627	17821
904.745	18068
904.863	17847
904.981	17756
905.098	17581
905.216	17547
905.334	17687
905.451	17619
905.569	17646
905.686	17604
905.803	17627
905.921	17414
906.038	17581
906.155	17429
906.272	17242
906.389	17280
906.506	17121
906.623	17151
906.74	17162
906.857	17022
906.974	16980
907.091	17166
907.208	17284
907.324	17121
907.441	16984
907.557	16889
907.674	16801
907.79	16786
907.907	16721
908.023	16790
908.139	16805
908.256	16755
908.372	16740
908.488	16759
908.604	16565
908.72	16523
908.836	16580
908.952	16470
909.068	16546
909.184	16626
909.3	16523
909.415	16721
909.531	16489
909.647	16367
909.762	16333
909.878	16230
909.993	16306
910.108	16253
910.224	16234
910.339	16299
910.454	16120
910.57	16071
910.685	15987
910.8	16226
910.915	16291
911.03	16067
911.145	15918
911.259	15766
911.374	15895
911.489	15789
911.604	15717
911.718	15648
911.833	15530
911.947	15511
912.062	15496
912.176	15675
912.291	15561
912.405	15671
912.519	15888
912.633	15850
912.748	15584
912.862	15473
912.976	15393
913.09	15317
913.204	15340
913.318	15443
913.431	15492
913.545	15580
913.659	15485
913.772	15363
913.886	15233
914	15294
914.113	15291
914.226	15367
914.34	15302
914.453	15131
914.566	15287
914.68	15173
914.793	15024
914.906	14925
915.019	14826
915.132	14804
915.245	14804
915.358	14914
915.47	14746
915.583	14796
915.696	14899
915.809	14982
915.921	14952
916.034	14773
916.146	14815
916.259	14792
916.371	14921
916.483	14765
916.595	14765
916.708	14625
916.82	14705
916.932	14606
917.044	14613
917.156	14689
917.268	14503
917.38	14545
917.491	14575
917.603	14545
917.715	14564
917.826	14613
917.938	14404
918.049	14366
918.161	14480
918.272	14678
918.384	14598
918.495	14419
918.606	14275
918.717	14111
918.828	14278
918.939	14377
919.05	14290
919.161	14301
919.272	14126
919.383	14115
919.494	14347
919.604	14469
919.715	14187
919.826	14191
919.936	14263
920.047	14358
920.157	14320
920.267	14351
920.378	14244
920.488	14294
920.598	14480
920.708	14594
920.818	14320
920.928	14301
921.038	14549
921.148	14549
921.258	14294
921.368	14096
921.477	14001
921.587	13951
921.697	13738
921.806	14043
921.916	13860
922.025	13689
922.134	13636
922.244	13609
922.353	13727
922.462	13529
922.571	13411
922.68	13293
922.789	13297
922.898	13304
923.007	13228
923.116	13293
923.224	13278
923.333	13156
923.442	13213
923.55	13145
923.659	13145
923.767	13137
923.876	13107
923.984	13145
924.092	12947
924.201	13076
924.309	13000
924.417	13057
924.525	12989
924.633	12977
924.741	13803
924.849	12730
924.956	12951
925.064	12722
925.172	12616
925.279	12734
925.387	12760
925.494	12783
925.602	12924
925.709	12719
925.816	12597
925.924	12658
926.031	12764
926.138	12631
926.245	12696
926.352	12551
926.459	12662
926.566	12738
926.673	12608
926.779	12532
926.886	12483
926.993	12334
927.099	12289
927.206	12292
927.312	12228
927.419	12357
927.525	12296
927.631	12281
927.737	12270
927.843	12133
927.95	11965
928.056	12079
928.162	12098
928.267	12167
928.373	12856
928.479	12152
928.585	11992
928.69	12144
928.796	12155
928.901	12038
929.007	11798
929.112	11980
929.218	12007
929.323	11920
929.428	11874
929.533	11973
929.638	11813
929.743	11786
929.848	11885
929.953	11798
930.058	11707
930.163	11505
930.267	11516
930.372	11642
930.477	11509
930.581	11710
930.685	11524
930.79	11452
930.894	11505
930.998	11322
931.103	11619
931.207	11223
931.311	11090
931.415	11041
931.519	10885
931.623	10805
