Data from test_V78500241_2196.txt Node
Date: Fri Mar 25 15:57:00 CST 2022
User: usil
Spectrometer: V785-0024
Trigger mode: 0
Integration Time (sec): 4.000000E-1
Scans to average: 1
Nonlinearity correction enabled: false
Boxcar width: 0
Storing dark spectrum: false
XAxis mode: Wavelengths
Number of Pixels in Spectrum: 1024
>>>>>Begin Spectral Data<<<<<
801.071	28390
801.214	28337
801.356	28234
801.499	28074
801.641	28006
801.783	27979
801.926	28051
802.068	27762
802.211	28059
802.353	27956
802.496	27622
802.638	27743
802.78	27652
802.923	27618
803.065	27580
803.208	27728
803.35	27732
803.492	27808
803.635	27972
803.777	27732
803.919	27972
804.061	28204
804.204	28048
804.346	27941
804.488	27812
804.63	27823
804.773	27797
804.915	27876
805.057	28036
805.199	27766
805.341	28105
805.483	28097
805.626	28006
805.768	28082
805.91	28010
806.052	28101
806.194	27960
806.336	28226
806.478	28086
806.62	27998
806.762	28249
806.904	28295
807.046	28603
807.188	28588
807.33	28443
807.472	28615
807.614	28390
807.756	28573
807.898	28413
808.04	28295
808.182	28272
808.324	28455
808.465	28508
808.607	28668
808.749	28744
808.891	28858
809.033	28752
809.174	28793
809.316	28672
809.458	28786
809.6	28683
809.741	28847
809.883	28755
810.025	29083
810.166	28995
810.308	29086
810.45	29022
810.591	28987
810.733	28801
810.875	28740
811.016	28774
811.158	28710
811.299	28812
811.441	28774
811.582	28809
811.724	28790
811.865	28691
812.007	28744
812.148	28717
812.29	28801
812.431	28835
812.573	29151
812.714	29288
812.855	29284
812.997	29398
813.138	29539
813.279	29414
813.421	29273
813.562	29090
813.703	29181
813.845	28854
813.986	28588
814.127	28599
814.268	28386
814.41	28519
814.551	28306
814.692	28409
814.833	28344
814.974	28428
815.115	28447
815.256	28333
815.397	28432
815.539	28356
815.68	28196
815.821	28166
815.962	28219
816.103	28303
816.244	27994
816.385	28086
816.526	28032
816.666	27781
816.807	27747
816.948	27739
817.089	27812
817.23	27587
817.371	27728
817.512	27679
817.653	27812
817.793	27728
817.934	27671
818.075	27816
818.216	27736
818.356	27690
818.497	27629
818.638	27538
818.778	27511
818.919	27663
819.06	27568
819.2	27713
819.341	27751
819.481	27671
819.622	27991
819.762	28067
819.903	28070
820.043	27983
820.184	27949
820.324	27759
820.465	27953
820.605	27911
820.746	27808
820.886	27743
821.026	27736
821.167	27755
821.307	27873
821.447	27785
821.588	27732
821.728	27675
821.868	27321
822.008	27256
822.149	27275
822.289	27199
822.429	27001
822.569	26845
822.709	26796
822.849	26716
822.99	26773
823.13	26735
823.27	26758
823.41	26556
823.55	26427
823.69	26609
823.83	26632
823.97	26613
824.11	26282
824.25	26431
824.389	26282
824.529	26438
824.669	26423
824.809	26541
824.949	26507
825.089	26438
825.228	26412
825.368	26122
825.508	26164
825.648	26412
825.787	26244
825.927	26229
826.067	26240
826.206	26172
826.346	26347
826.485	26347
826.625	26199
826.765	26484
826.904	26210
827.044	26012
827.183	26069
827.323	25978
827.462	25993
827.601	25944
827.741	25925
827.88	26016
828.02	25951
828.159	25879
828.298	26012
828.437	25989
828.577	25757
828.716	26069
828.855	25879
828.994	25742
829.134	25685
829.273	25784
829.412	25521
829.551	25499
829.69	25571
829.829	25696
829.968	25830
830.107	25578
830.246	25639
830.385	25533
830.524	25639
830.663	25407
830.802	25362
830.941	25346
831.08	25274
831.219	25327
831.357	25304
831.496	25449
831.635	25282
831.774	25388
831.913	25148
832.051	25027
832.19	25031
832.329	24981
832.467	25023
832.606	24894
832.744	24837
832.883	24977
833.022	24939
833.16	24928
833.299	25000
833.437	24856
833.576	25004
833.714	24924
833.852	25050
833.991	25012
834.129	25137
834.267	24996
834.406	25031
834.544	25099
834.682	25015
834.821	24954
834.959	25129
835.097	24802
835.235	24939
835.373	24951
835.511	25027
835.65	24802
835.788	24783
835.926	24776
836.064	24612
836.202	24703
836.34	24837
836.478	24833
836.615	24817
836.753	24829
836.891	24825
837.029	24821
837.167	24620
837.305	24684
837.443	24639
837.58	24635
837.718	24760
837.856	24623
837.993	24505
838.131	24593
838.269	24460
838.406	24513
838.544	24467
838.681	24197
838.819	24304
838.956	24072
839.094	24076
839.231	24125
839.369	24266
839.506	24486
839.643	24300
839.781	24072
839.918	24049
840.055	24079
840.193	24015
840.33	23988
840.467	24057
840.604	24083
840.742	24372
840.879	23882
841.016	23885
841.153	23973
841.29	24045
841.427	24011
841.564	24026
841.701	24060
841.838	23897
841.975	23923
842.112	23939
842.249	23840
842.385	23748
842.522	23843
842.659	23821
842.796	23821
842.933	23794
843.069	23710
843.206	23672
843.343	23771
843.479	23741
843.616	23737
843.752	23634
843.889	23554
844.025	23729
844.162	23570
844.298	23615
844.435	23627
844.571	23505
844.708	23585
844.844	23623
844.98	23684
845.117	23539
845.253	23482
845.389	23368
845.525	23429
845.661	23299
845.798	23235
845.934	23288
846.07	23178
846.206	23178
846.342	23391
846.478	23227
846.614	23033
846.75	22999
846.886	23010
847.022	23113
847.158	23018
847.294	22987
847.429	22972
847.565	22999
847.701	23117
847.837	22786
847.972	22748
848.108	22850
848.244	22824
848.379	22618
848.515	22531
848.65	22561
848.786	22546
848.921	22603
849.057	22698
849.192	22615
849.328	22577
849.463	22516
849.598	22466
849.734	22405
849.869	22481
850.004	22379
850.14	22322
850.275	22272
850.41	22238
850.545	22226
850.68	22268
850.815	22394
850.95	22402
851.085	22504
851.22	22363
851.355	22303
851.49	22249
851.625	22249
851.76	22382
851.895	22287
852.03	22280
852.165	22219
852.299	22306
852.434	22341
852.569	22485
852.703	22382
852.838	22413
852.973	22417
853.107	22398
853.242	22314
853.376	22344
853.511	22036
853.645	22109
853.78	22234
853.914	22276
854.048	22063
854.183	22185
854.317	22185
854.451	22409
854.585	22097
854.72	22131
854.854	22135
854.988	22082
855.122	22177
855.256	22013
855.39	22082
855.524	22291
855.658	22192
855.792	22086
855.926	22204
856.06	22162
856.194	22257
856.327	22192
856.461	22154
856.595	22135
856.729	22070
856.862	22291
856.996	22246
857.13	22337
857.263	22291
857.397	22093
857.53	22162
857.664	22272
857.797	22246
857.931	22268
858.064	22196
858.197	22158
858.331	22181
858.464	22109
858.597	22181
858.731	22116
858.864	22124
858.997	22070
859.13	22154
859.263	22234
859.396	22291
859.529	22097
859.662	22150
859.795	22230
859.928	22162
860.061	22253
860.194	22375
860.327	22314
860.46	22204
860.592	22280
860.725	22432
860.858	22219
860.99	22120
861.123	22124
861.256	21979
861.388	22200
861.521	22828
861.653	22086
861.786	21865
861.918	22059
862.05	21975
862.183	21983
862.315	22002
862.447	22105
862.58	22029
862.712	21956
862.844	21915
862.976	21953
863.108	22029
863.24	22424
863.372	21808
863.504	21911
863.636	21884
863.768	21998
863.9	21895
864.032	21762
864.164	21800
864.296	21831
864.428	21922
864.559	22002
864.691	21895
864.823	21736
864.954	21835
865.086	21804
865.217	21671
865.349	21591
865.48	21747
865.612	21739
865.743	21884
865.875	21736
866.006	21785
866.137	21808
866.269	21679
866.4	21587
866.531	21713
866.662	21564
866.793	21698
866.924	21549
867.055	21637
867.186	21648
867.317	21622
867.448	21603
867.579	21686
867.71	21572
867.841	21599
867.972	21625
868.103	21648
868.233	21641
868.364	21610
868.495	21819
868.625	21907
868.756	22124
868.886	21850
869.017	21804
869.147	21998
869.278	21956
869.408	21918
869.539	21831
869.669	21991
869.799	22017
869.929	22029
870.06	22090
870.19	22261
870.32	22299
870.45	22154
870.58	22382
870.71	22470
870.84	22409
870.97	22226
871.1	22352
871.23	22398
871.36	22599
871.489	22466
871.619	22531
871.749	22603
871.879	22531
872.008	22599
872.138	22592
872.267	22584
872.397	22337
872.526	22493
872.656	22257
872.785	22398
872.915	22424
873.044	22596
873.173	22508
873.303	22615
873.432	22519
873.561	22641
873.69	22516
873.819	22592
873.948	22626
874.077	22569
874.206	22455
874.335	22611
874.464	22717
874.593	22710
874.722	22877
874.851	22763
874.979	22736
875.108	22759
875.237	22717
875.365	22630
875.494	22736
875.623	22767
875.751	22847
875.88	22778
876.008	22923
876.136	22934
876.265	23204
876.393	23223
876.521	23143
876.65	23322
876.778	23124
876.906	23124
877.034	23086
877.162	23094
877.29	23113
877.418	23029
877.546	23037
877.674	22991
877.802	23029
877.93	23128
878.058	23022
878.185	22858
878.313	23079
878.441	23014
878.568	22892
878.696	23025
878.824	23105
878.951	23155
879.079	23299
879.206	23345
879.333	23311
879.461	23147
879.588	23200
879.715	23284
879.842	23383
879.97	23189
880.097	22839
880.224	22946
880.351	22866
880.478	22987
880.605	22733
880.732	22904
880.859	23220
880.986	22831
881.112	22930
881.239	22790
881.366	22702
881.493	22569
881.619	22455
881.746	22588
881.872	22402
881.999	22390
882.125	22379
882.252	22409
882.378	22478
882.505	22569
882.631	22246
882.757	22265
882.883	22306
883.01	22105
883.136	21991
883.262	21934
883.388	21876
883.514	22196
883.64	22158
883.766	22010
883.892	21857
884.018	21979
884.143	22013
884.269	22185
884.395	21797
884.52	21816
884.646	21766
884.772	21717
884.897	21713
885.023	21850
885.148	21762
885.274	21937
885.399	21850
885.524	21679
885.65	21778
885.775	21915
885.9	21819
886.025	21994
886.15	21819
886.275	21789
886.4	21652
886.525	21739
886.65	21800
886.775	21694
886.9	21892
887.025	22021
887.149	21713
887.274	21572
887.399	21606
887.523	21564
887.648	21549
887.773	21515
887.897	21610
888.021	21568
888.146	21504
888.27	21705
888.395	21599
888.519	21526
888.643	21496
888.767	21663
888.891	21633
889.015	21298
889.139	21466
889.263	21294
889.387	21348
889.511	21603
889.635	21466
889.759	21348
889.883	21310
890.006	21332
890.13	21397
890.254	21230
890.377	21218
890.501	21093
890.624	21207
890.748	21138
890.871	21062
890.995	20918
891.118	20686
891.241	20921
891.364	20941
891.488	21024
891.611	20971
891.734	20921
891.857	20975
891.98	20941
892.103	20967
892.226	20895
892.349	20834
892.471	20689
892.594	20864
892.717	20788
892.839	20800
892.962	20788
893.085	20849
893.207	20800
893.33	20765
893.452	20697
893.575	20823
893.697	20845
893.819	20944
893.941	20902
894.064	20918
894.186	20731
894.308	20724
894.43	20963
894.552	20819
894.674	20838
894.796	20720
894.918	20785
895.04	20701
895.161	20864
895.283	20788
895.405	20621
895.526	20807
895.648	20826
895.769	20876
895.891	20750
896.012	20838
896.134	20739
896.255	20746
896.376	20743
896.498	20720
896.619	20857
896.74	20838
896.861	20868
896.982	21161
897.103	21226
897.224	21039
897.345	20998
897.466	20906
897.587	21005
897.708	21055
897.828	21176
897.949	20975
898.07	20880
898.19	20895
898.311	21116
898.431	20929
898.552	21066
898.672	21104
898.792	20963
898.913	21020
899.033	21009
899.153	20727
899.273	20769
899.393	20834
899.513	20853
899.633	20743
899.753	20838
899.873	20701
899.993	20686
900.113	20686
900.232	20686
900.352	20571
900.472	20541
900.591	20454
900.711	20617
900.83	20454
900.95	20575
901.069	20564
901.189	20362
901.308	20183
901.427	20043
901.546	20035
901.665	20134
901.784	20069
901.904	20035
902.023	19845
902.141	19677
902.26	19628
902.379	19757
902.498	19613
902.617	19578
902.735	19597
902.854	19521
902.973	19491
903.091	19266
903.21	19247
903.328	19118
903.446	19247
903.565	19088
903.683	19118
903.801	18795
903.919	18981
904.038	19019
904.156	18848
904.274	18909
904.392	18814
904.51	18798
904.627	18814
904.745	18795
904.863	18795
904.981	18528
905.098	18536
905.216	18452
905.334	18506
905.451	18494
905.569	18467
905.686	18547
905.803	18544
905.921	18235
906.038	18388
906.155	18209
906.272	18171
906.389	18213
906.506	18072
906.623	18015
906.74	18015
906.857	17893
906.974	17874
907.091	18053
907.208	18079
907.324	18060
907.441	18026
907.557	17703
907.674	17760
907.79	17703
907.907	17680
908.023	17707
908.139	17668
908.256	17661
908.372	17646
908.488	17638
908.604	17463
908.72	17398
908.836	17417
908.952	17532
909.068	17493
909.184	17482
909.3	17379
909.415	17585
909.531	17318
909.647	17174
909.762	17147
909.878	17151
909.993	17162
910.108	17006
910.224	16984
910.339	16976
910.454	16987
910.57	16908
910.685	16892
910.8	17033
910.915	17048
911.03	16889
911.145	16755
911.259	16710
911.374	16660
911.489	16535
911.604	16577
911.718	16485
911.833	16451
911.947	16337
912.062	16333
912.176	16402
912.291	16421
912.405	16535
912.519	16668
912.633	16706
912.748	16577
912.862	16375
912.976	16268
913.09	16086
913.204	16162
913.318	16268
913.431	16249
913.545	16280
913.659	16337
913.772	16135
913.886	16051
914	16055
914.113	16097
914.226	16181
914.34	16154
914.453	15926
914.566	16021
914.68	15926
914.793	15903
914.906	15854
915.019	15652
915.132	15690
915.245	15584
915.358	15675
915.47	15690
915.583	15644
915.696	15694
915.809	15766
915.921	15705
916.034	15595
916.146	15526
916.259	15481
916.371	15572
916.483	15519
916.595	15443
916.708	15572
916.82	15393
916.932	15382
917.044	15488
917.156	15408
917.268	15260
917.38	15329
917.491	15211
917.603	15317
917.715	15256
917.826	15344
917.938	15222
918.049	15081
918.161	15119
918.272	15386
918.384	15439
918.495	15097
918.606	15104
918.717	14944
918.828	15089
918.939	15062
919.05	14967
919.161	15017
919.272	14918
919.383	14960
919.494	15024
919.604	15192
919.715	15089
919.826	14948
919.936	14963
920.047	15036
920.157	14925
920.267	15188
920.378	15051
920.488	14979
920.598	15226
920.708	15233
920.818	15047
920.928	15154
921.038	15195
921.148	15199
921.258	14876
921.368	14842
921.477	14773
921.587	14674
921.697	14686
921.806	14727
921.916	14571
922.025	14362
922.134	14362
922.244	14328
922.353	14320
922.462	14195
922.571	14172
922.68	13955
922.789	13967
922.898	13978
923.007	13890
923.116	13921
923.224	13986
923.333	14005
923.442	13799
923.55	13765
923.659	13871
923.767	13837
923.876	13696
923.984	13837
924.092	13655
924.201	13753
924.309	13780
924.417	13712
924.525	13693
924.633	13594
924.741	14389
924.849	13468
924.956	13540
925.064	13373
925.172	13362
925.279	13373
925.387	13419
925.494	13358
925.602	13407
925.709	13434
925.816	13327
925.924	13255
926.031	13377
926.138	13373
926.245	13358
926.352	13202
926.459	13320
926.566	13430
926.673	13259
926.779	13114
926.886	13046
926.993	12977
927.099	12920
927.206	12856
927.312	12897
927.419	12954
927.525	12829
927.631	12958
927.737	12878
927.843	12837
927.95	12635
928.056	12768
928.162	12753
928.267	12772
928.373	13445
928.479	12795
928.585	12601
928.69	12703
928.796	12681
928.901	12566
929.007	12452
929.112	12483
929.218	12509
929.323	12486
929.428	12422
929.533	12536
929.638	12437
929.743	12433
929.848	12471
929.953	12357
930.058	12258
930.163	12186
930.267	12125
930.372	12243
930.477	12057
930.581	12277
930.685	12144
930.79	12034
930.894	12106
930.998	11935
931.103	12121
931.207	11714
931.311	11672
931.415	11577
931.519	11387
931.623	11280
