Data from test_V78500241_2828.txt Node
Date: Fri Mar 25 16:01:23 CST 2022
User: usil
Spectrometer: V785-0024
Trigger mode: 0
Integration Time (sec): 4.000000E-1
Scans to average: 1
Nonlinearity correction enabled: false
Boxcar width: 0
Storing dark spectrum: false
XAxis mode: Wavelengths
Number of Pixels in Spectrum: 1024
>>>>>Begin Spectral Data<<<<<
801.071	29128
801.214	29147
801.356	28767
801.499	28786
801.641	28679
801.783	28713
801.926	28752
802.068	28736
802.211	28573
802.353	28740
802.496	28577
802.638	28417
802.78	28390
802.923	28360
803.065	28375
803.208	28497
803.35	28440
803.492	28550
803.635	28786
803.777	28702
803.919	28767
804.061	29060
804.204	28721
804.346	28519
804.488	28519
804.63	28725
804.773	28683
804.915	28858
805.057	28896
805.199	28790
805.341	28919
805.483	28816
805.626	28915
805.768	28843
805.91	28790
806.052	28774
806.194	28748
806.336	29037
806.478	28976
806.62	28911
806.762	29029
806.904	29239
807.046	29284
807.188	29436
807.33	29307
807.472	29509
807.614	29402
807.756	29322
807.898	29109
808.04	29109
808.182	28972
808.324	29052
808.465	29216
808.607	29322
808.749	29680
808.891	29775
809.033	29775
809.174	29581
809.316	29474
809.458	29729
809.6	29493
809.741	29653
809.883	29676
810.025	29859
810.166	29889
810.308	29923
810.45	29862
810.591	29790
810.733	29573
810.875	29566
811.016	29490
811.158	29558
811.299	29722
811.441	29847
811.582	29771
811.724	29642
811.865	29608
812.007	29657
812.148	29596
812.29	29718
812.431	29851
812.573	29889
812.714	29988
812.855	30022
812.997	30102
813.138	30483
813.279	30270
813.421	30068
813.562	30129
813.703	30041
813.845	29862
813.986	29634
814.127	29414
814.268	29284
814.41	29273
814.551	29315
814.692	29284
814.833	29322
814.974	29223
815.115	29311
815.256	29124
815.397	29337
815.539	29181
815.68	29212
815.821	29197
815.962	29220
816.103	29102
816.244	29018
816.385	29010
816.526	29022
816.666	28858
816.807	28649
816.948	28820
817.089	28691
817.23	28774
817.371	28710
817.512	28626
817.653	28664
817.793	28546
817.934	28653
818.075	28557
818.216	28615
818.356	28702
818.497	28668
818.638	28398
818.778	28516
818.919	28417
819.06	28519
819.2	28615
819.341	28733
819.481	28748
819.622	28820
819.762	28995
819.903	29044
820.043	28843
820.184	28694
820.324	28748
820.465	28816
820.605	28831
820.746	28816
820.886	28592
821.026	28622
821.167	28744
821.307	28858
821.447	28698
821.588	28626
821.728	28584
821.868	28242
822.008	28265
822.149	28055
822.289	28150
822.429	27880
822.569	27964
822.709	27854
822.849	27576
822.99	27694
823.13	27462
823.27	27690
823.41	27500
823.55	27272
823.69	27443
823.83	27405
823.97	27450
824.11	27367
824.25	27123
824.389	27325
824.529	27393
824.669	27329
824.809	27317
824.949	27294
825.089	27458
825.228	27401
825.368	27260
825.508	27176
825.648	27256
825.787	27287
825.927	27275
826.067	27146
826.206	27169
826.346	27310
826.485	27363
826.625	27138
826.765	27427
826.904	27272
827.044	27100
827.183	26948
827.323	26986
827.462	26967
827.601	26956
827.741	27062
827.88	27028
828.02	26883
828.159	26899
828.298	26944
828.437	27108
828.577	26887
828.716	26929
828.855	26925
828.994	26663
829.134	26640
829.273	26621
829.412	26568
829.551	26469
829.69	26598
829.829	26598
829.968	26670
830.107	26621
830.246	26583
830.385	26644
830.524	26480
830.663	26301
830.802	26412
830.941	26317
831.08	26183
831.219	26412
831.357	26248
831.496	26469
831.635	26157
831.774	26164
831.913	26046
832.051	26122
832.19	25997
832.329	26054
832.467	25970
832.606	25940
832.744	25978
832.883	25822
833.022	25868
833.16	25811
833.299	25890
833.437	25822
833.576	25913
833.714	25898
833.852	26043
833.991	26096
834.129	26065
834.267	26008
834.406	26111
834.544	25963
834.682	26088
834.821	25837
834.959	26218
835.097	25982
835.235	25989
835.373	25936
835.511	25940
835.65	25868
835.788	25944
835.926	25681
836.064	25666
836.202	25715
836.34	25700
836.478	25871
836.615	25712
836.753	25761
836.891	25932
837.029	25803
837.167	25719
837.305	25693
837.443	25624
837.58	25666
837.718	25677
837.856	25605
837.993	25582
838.131	25510
838.269	25335
838.406	25525
838.544	25384
838.681	25316
838.819	25255
838.956	25008
839.094	25107
839.231	25168
839.369	25232
839.506	25529
839.643	25285
839.781	25141
839.918	25095
840.055	25034
840.193	25091
840.33	24943
840.467	25004
840.604	25027
840.742	25301
840.879	24688
841.016	24840
841.153	24886
841.29	25000
841.427	24897
841.564	24859
841.701	25012
841.838	24798
841.975	24939
842.112	24848
842.249	24787
842.385	24787
842.522	24958
842.659	24715
842.796	24715
842.933	24791
843.069	24563
843.206	24650
843.343	24726
843.479	24738
843.616	24582
843.752	24547
843.889	24513
844.025	24566
844.162	24399
844.298	24589
844.435	24479
844.571	24456
844.708	24441
844.844	24582
844.98	24604
845.117	24665
845.253	24448
845.389	24369
845.525	24384
845.661	24296
845.798	24106
845.934	24247
846.07	24091
846.206	24182
846.342	24281
846.478	24068
846.614	23992
846.75	23889
846.886	23927
847.022	23931
847.158	24026
847.294	23999
847.429	23965
847.565	23969
847.701	23992
847.837	23611
847.972	23520
848.108	23809
848.244	23741
848.379	23589
848.515	23554
848.65	23577
848.786	23592
848.921	23467
849.057	23364
849.192	23684
849.328	23490
849.463	23505
849.598	23535
849.734	23486
849.869	23387
850.004	23288
850.14	23334
850.275	23307
850.41	23189
850.545	23246
850.68	23155
850.815	23292
850.95	23273
851.085	23391
851.22	23406
851.355	23292
851.49	23322
851.625	23288
851.76	23296
851.895	23200
852.03	23178
852.165	23220
852.299	23235
852.434	23296
852.569	23273
852.703	23258
852.838	23318
852.973	23531
853.107	23448
853.242	23288
853.376	23216
853.511	23025
853.645	23105
853.78	23170
853.914	23083
854.048	23060
854.183	23083
854.317	23155
854.451	23326
854.585	23216
854.72	23250
854.854	23143
854.988	23064
855.122	23124
855.256	22942
855.39	23079
855.524	23136
855.658	23216
855.792	23037
855.926	23048
856.06	23105
856.194	23162
856.327	23128
856.461	23033
856.595	22999
856.729	22923
856.862	23284
856.996	23109
857.13	23189
857.263	23185
857.397	23242
857.53	23098
857.664	23181
857.797	23083
857.931	23193
858.064	23315
858.197	23029
858.331	23048
858.464	23064
858.597	22995
858.731	23166
858.864	23117
858.997	22987
859.13	23022
859.263	23136
859.396	23124
859.529	23014
859.662	22991
859.795	22942
859.928	23079
860.061	23322
860.194	23353
860.327	23113
860.46	23227
860.592	23231
860.725	23337
860.858	23136
860.99	23033
861.123	23086
861.256	22957
861.388	23071
861.521	23691
861.653	22930
861.786	22843
861.918	22984
862.05	23033
862.183	23025
862.315	23105
862.447	23124
862.58	22911
862.712	22763
862.844	22748
862.976	22843
863.108	22881
863.24	23242
863.372	22824
863.504	22900
863.636	22755
863.768	22869
863.9	22904
864.032	22778
864.164	22797
864.296	22877
864.428	22805
864.559	22824
864.691	22797
864.823	22820
864.954	22828
865.086	22630
865.217	22656
865.349	22675
865.48	22653
865.612	22713
865.743	22805
865.875	22618
866.006	22626
866.137	22630
866.269	22569
866.4	22767
866.531	22740
866.662	22584
866.793	22641
866.924	22546
867.055	22607
867.186	22622
867.317	22546
867.448	22500
867.579	22523
867.71	22462
867.841	22603
867.972	22577
868.103	22512
868.233	22618
868.364	22607
868.495	22702
868.625	22873
868.756	22858
868.886	22801
869.017	22885
869.147	22892
869.278	22923
869.408	22809
869.539	22923
869.669	22991
869.799	22793
869.929	22896
870.06	22968
870.19	23113
870.32	23105
870.45	23132
870.58	23242
870.71	23307
870.84	23288
870.97	23254
871.1	23299
871.23	23364
871.36	23482
871.489	23284
871.619	23387
871.749	23501
871.879	23455
872.008	23554
872.138	23391
872.267	23490
872.397	23330
872.526	23299
872.656	23246
872.785	23269
872.915	23429
873.044	23543
873.173	23421
873.303	23535
873.432	23421
873.561	23570
873.69	23482
873.819	23433
873.948	23531
874.077	23520
874.206	23307
874.335	23497
874.464	23524
874.593	23642
874.722	23627
874.851	23752
874.979	23684
875.108	23623
875.237	23634
875.365	23490
875.494	23562
875.623	23729
875.751	23619
875.88	23775
876.008	23817
876.136	23760
876.265	24030
876.393	24232
876.521	23988
876.65	24209
876.778	24041
876.906	23946
877.034	24049
877.162	23954
877.29	23912
877.418	24003
877.546	24034
877.674	24015
877.802	23882
877.93	23992
878.058	24003
878.185	23961
878.313	23863
878.441	23961
878.568	23741
878.696	23935
878.824	24026
878.951	23980
879.079	24194
879.206	24296
879.333	24148
879.461	23923
879.588	23984
879.715	24228
879.842	24178
879.97	24076
880.097	23745
880.224	23748
880.351	23760
880.478	23832
880.605	23672
880.732	23748
880.859	23969
880.986	23817
881.112	23729
881.239	23581
881.366	23585
881.493	23478
881.619	23360
881.746	23482
881.872	23322
881.999	23353
882.125	23364
882.252	23505
882.378	23261
882.505	23383
882.631	23204
882.757	23117
882.883	23041
883.01	23022
883.136	22991
883.262	22938
883.388	22782
883.514	22949
883.64	23064
883.766	22896
883.892	22725
884.018	22725
884.143	22881
884.269	22987
884.395	22797
884.52	22755
884.646	22679
884.772	22550
884.897	22500
885.023	22641
885.148	22873
885.274	22793
885.399	22774
885.524	22569
885.65	22660
885.775	22645
885.9	22618
886.025	22820
886.15	22603
886.275	22596
886.4	22424
886.525	22542
886.65	22637
886.775	22485
886.9	22748
887.025	22763
887.149	22459
887.274	22337
887.399	22523
887.523	22379
887.648	22398
887.773	22303
887.897	22462
888.021	22390
888.146	22337
888.27	22390
888.395	22573
888.519	22557
888.643	22417
888.767	22394
888.891	22352
889.015	22360
889.139	22417
889.263	22242
889.387	22265
889.511	22379
889.635	22325
889.759	22181
889.883	22166
890.006	22272
890.13	22185
890.254	22086
890.377	22021
890.501	22063
890.624	21945
890.748	21987
890.871	21701
890.995	21644
891.118	21682
891.241	21599
891.364	21705
891.488	21865
891.611	21755
891.734	21667
891.857	21797
891.98	21755
892.103	21880
892.226	21838
892.349	21732
892.471	21443
892.594	21663
892.717	21603
892.839	21462
892.962	21599
893.085	21679
893.207	21644
893.33	21660
893.452	21530
893.575	21701
893.697	21561
893.819	21637
893.941	21766
894.064	21644
894.186	21428
894.308	21469
894.43	21766
894.552	21732
894.674	21717
894.796	21564
894.918	21663
895.04	21466
895.161	21652
895.283	21633
895.405	21534
895.526	21583
895.648	21462
895.769	21523
895.891	21595
896.012	21629
896.134	21553
896.255	21500
896.376	21523
896.498	21507
896.619	21500
896.74	21553
896.861	21618
896.982	21797
897.103	21998
897.224	21816
897.345	21766
897.466	21766
897.587	21785
897.708	21831
897.828	21819
897.949	21720
898.07	21698
898.19	21793
898.311	21854
898.431	21747
898.552	21618
898.672	21819
898.792	21899
898.913	21812
899.033	21663
899.153	21534
899.273	21344
899.393	21389
899.513	21500
899.633	21431
899.753	21488
899.873	21408
899.993	21568
900.113	21393
900.232	21447
900.352	21351
900.472	21378
900.591	21207
900.711	21230
900.83	21230
900.95	21260
901.069	21359
901.189	21116
901.308	20880
901.427	20826
901.546	20872
901.665	20868
901.784	20853
901.904	20648
902.023	20621
902.141	20355
902.26	20389
902.379	20377
902.498	20309
902.617	20210
902.735	20404
902.854	20206
902.973	20252
903.091	20005
903.21	19997
903.328	19864
903.446	19788
903.565	19761
903.683	19719
903.801	19609
903.919	19681
904.038	19628
904.156	19597
904.274	19533
904.392	19502
904.51	19571
904.627	19480
904.745	19559
904.863	19499
904.981	19278
905.098	19194
905.216	19122
905.334	19190
905.451	19259
905.569	19091
905.686	19221
905.803	19129
905.921	18962
906.038	19080
906.155	19008
906.272	18859
906.389	18958
906.506	18722
906.623	18677
906.74	18779
906.857	18566
906.974	18536
907.091	18806
907.208	18916
907.324	18593
907.441	18593
907.557	18540
907.674	18429
907.79	18304
907.907	18300
908.023	18437
908.139	18372
908.256	18399
908.372	18228
908.488	18327
908.604	18174
908.72	18060
908.836	18091
908.952	18022
909.068	18136
909.184	18182
909.3	18041
909.415	18163
909.531	18030
909.647	17805
909.762	17783
909.878	17870
909.993	17779
910.108	17764
910.224	17809
910.339	17783
910.454	17596
910.57	17566
910.685	17581
910.8	17840
910.915	17722
911.03	17604
911.145	17440
911.259	17337
911.374	17414
911.489	17318
911.604	17208
911.718	17037
911.833	17208
911.947	17094
912.062	16896
912.176	17121
912.291	17090
912.405	17117
912.519	17330
912.633	17227
912.748	17170
912.862	17003
912.976	16908
913.09	16854
913.204	16968
913.318	16828
913.431	17003
913.545	16999
913.659	17006
913.772	16881
913.886	16759
914	16672
914.113	16713
914.226	16691
914.34	16786
914.453	16489
914.566	16721
914.68	16626
914.793	16481
914.906	16348
915.019	16310
915.132	16295
915.245	16265
915.358	16284
915.47	16268
915.583	16314
915.696	16310
915.809	16360
915.921	16367
916.034	16048
916.146	16124
916.259	16166
916.371	16249
916.483	16139
916.595	16032
916.708	16063
916.82	16048
916.932	16067
917.044	15941
917.156	15991
917.268	15846
917.38	15934
917.491	15789
917.603	15876
917.715	15876
917.826	15960
917.938	15854
918.049	15637
918.161	15850
918.272	15937
918.384	15846
918.495	15778
918.606	15614
918.717	15523
918.828	15587
918.939	15576
919.05	15519
919.161	15614
919.272	15359
919.383	15363
919.494	15656
919.604	15793
919.715	15477
919.826	15420
919.936	15557
920.047	15580
920.157	15584
920.267	15800
920.378	15561
920.488	15439
920.598	15755
920.708	15827
920.818	15701
920.928	15694
921.038	15793
921.148	15812
921.258	15500
921.368	15363
921.477	15279
921.587	15188
921.697	15131
921.806	15241
921.916	15062
922.025	14990
922.134	14868
922.244	14815
922.353	14948
922.462	14701
922.571	14712
922.68	14579
922.789	14495
922.898	14625
923.007	14457
923.116	14465
923.224	14514
923.333	14492
923.442	14358
923.55	14339
923.659	14290
923.767	14317
923.876	14358
923.984	14309
924.092	14221
924.201	14328
924.309	14263
924.417	14256
924.525	14191
924.633	14191
924.741	15123
924.849	14005
924.956	14046
925.064	13951
925.172	13807
925.279	13909
925.387	13883
925.494	13849
925.602	13906
925.709	13913
925.816	13727
925.924	13875
926.031	13974
926.138	13826
926.245	13833
926.352	13772
926.459	13879
926.566	13921
926.673	13700
926.779	13643
926.886	13609
926.993	13483
927.099	13441
927.206	13384
927.312	13415
927.419	13415
927.525	13384
927.631	13422
927.737	13244
927.843	13304
927.95	13050
928.056	13194
928.162	13259
928.267	13244
928.373	13917
928.479	13232
928.585	13171
928.69	13194
928.796	13126
928.901	13019
929.007	12989
929.112	13084
929.218	12985
929.323	12977
929.428	12943
929.533	12985
929.638	12810
929.743	12886
929.848	12844
929.953	12878
930.058	12730
930.163	12509
930.267	12635
930.372	12764
930.477	12646
930.581	12776
930.685	12608
930.79	12517
930.894	12403
930.998	12433
931.103	12528
931.207	12232
931.311	12148
931.415	11988
931.519	11767
931.623	11779
