Data from test_V78500241_183.txt Node
Date: Fri Mar 25 15:43:04 CST 2022
User: usil
Spectrometer: V785-0024
Trigger mode: 0
Integration Time (sec): 4.000000E-1
Scans to average: 1
Nonlinearity correction enabled: false
Boxcar width: 0
Storing dark spectrum: false
XAxis mode: Wavelengths
Number of Pixels in Spectrum: 1024
>>>>>Begin Spectral Data<<<<<
801.071	29767
801.214	29718
801.356	29444
801.499	29452
801.641	29280
801.783	29296
801.926	29261
802.068	29258
802.211	29136
802.353	29174
802.496	28999
802.638	28911
802.78	28900
802.923	28881
803.065	28767
803.208	28835
803.35	28797
803.492	29022
803.635	28938
803.777	28900
803.919	29155
804.061	29383
804.204	29140
804.346	29014
804.488	28888
804.63	29056
804.773	28968
804.915	29128
805.057	29178
805.199	29022
805.341	29067
805.483	29170
805.626	29147
805.768	29071
805.91	29147
806.052	29200
806.194	29018
806.336	29288
806.478	29151
806.62	29109
806.762	29311
806.904	29284
807.046	29600
807.188	29520
807.33	29482
807.472	29649
807.614	29395
807.756	29623
807.898	29341
808.04	29402
808.182	29223
808.324	29322
808.465	29395
808.607	29570
808.749	29604
808.891	29851
809.033	29843
809.174	29783
809.316	29657
809.458	29726
809.6	29653
809.741	29783
809.883	29866
810.025	30018
810.166	29927
810.308	30110
810.45	29969
810.591	29893
810.733	29851
810.875	29676
811.016	29699
811.158	29634
811.299	29764
811.441	29950
811.582	29958
811.724	29714
811.865	29756
812.007	29741
812.148	29627
812.29	29676
812.431	29904
812.573	29973
812.714	30205
812.855	30121
812.997	30315
813.138	30505
813.279	30330
813.421	30197
813.562	30102
813.703	29999
813.845	29935
813.986	29539
814.127	29372
814.268	29455
814.41	29166
814.551	29410
814.692	29372
814.833	29231
814.974	29235
815.115	29334
815.256	29037
815.397	29136
815.539	29170
815.68	29337
815.821	29197
815.962	29113
816.103	29025
816.244	29010
816.385	28801
816.526	28877
816.666	28588
816.807	28432
816.948	28592
817.089	28637
817.23	28557
817.371	28565
817.512	28516
817.653	28432
817.793	28500
817.934	28527
818.075	28421
818.216	28379
818.356	28394
818.497	28352
818.638	28215
818.778	28322
818.919	28280
819.06	28230
819.2	28234
819.341	28322
819.481	28417
819.622	28489
819.762	28733
819.903	28668
820.043	28569
820.184	28470
820.324	28596
820.465	28675
820.605	28535
820.746	28584
820.886	28200
821.026	28485
821.167	28424
821.307	28557
821.447	28466
821.588	28356
821.728	28169
821.868	27945
822.008	27690
822.149	27907
822.289	27892
822.429	27507
822.569	27405
822.709	27519
822.849	27363
822.99	27260
823.13	27283
823.27	27313
823.41	27176
823.55	26918
823.69	27070
823.83	27161
823.97	27001
824.11	26815
824.25	27024
824.389	26921
824.529	27032
824.669	26967
824.809	27055
824.949	27112
825.089	27005
825.228	26872
825.368	26861
825.508	26777
825.648	26697
825.787	26765
825.927	26720
826.067	26541
826.206	26823
826.346	26800
826.485	26777
826.625	26663
826.765	26781
826.904	26697
827.044	26522
827.183	26446
827.323	26290
827.462	26377
827.601	26461
827.741	26355
827.88	26438
828.02	26389
828.159	26282
828.298	26313
828.437	26370
828.577	26423
828.716	26419
828.855	26240
828.994	25978
829.134	26202
829.273	26050
829.412	26088
829.551	26001
829.69	25951
829.829	26077
829.968	26024
830.107	26153
830.246	26199
830.385	25986
830.524	25898
830.663	25753
830.802	25795
830.941	25628
831.08	25677
831.219	25658
831.357	25609
831.496	25849
831.635	25586
831.774	25518
831.913	25529
832.051	25476
832.19	25320
832.329	25426
832.467	25171
832.606	25118
832.744	25346
832.883	25225
833.022	25198
833.16	25335
833.299	25198
833.437	25285
833.576	25331
833.714	25247
833.852	25213
833.991	25377
834.129	25324
834.267	25183
834.406	25350
834.544	25266
834.682	25285
834.821	25164
834.959	25422
835.097	25061
835.235	25263
835.373	25259
835.511	25225
835.65	25171
835.788	25038
835.926	24833
836.064	24867
836.202	24848
836.34	25293
836.478	25244
836.615	24992
836.753	24916
836.891	25129
837.029	25091
837.167	25053
837.305	25015
837.443	24833
837.58	24958
837.718	24939
837.856	24871
837.993	24719
838.131	24817
838.269	24658
838.406	24665
838.544	24688
838.681	24399
838.819	24460
838.956	24292
839.094	24296
839.231	24159
839.369	24330
839.506	24525
839.643	24517
839.781	24174
839.918	24144
840.055	24159
840.193	24178
840.33	24159
840.467	24266
840.604	24167
840.742	24445
840.879	24030
841.016	24102
841.153	24030
841.29	24247
841.427	24125
841.564	24197
841.701	24110
841.838	24129
841.975	23999
842.112	24190
842.249	24026
842.385	23828
842.522	24049
842.659	24011
842.796	23821
842.933	23828
843.069	23718
843.206	23676
843.343	23824
843.479	23866
843.616	23794
843.752	23615
843.889	23592
844.025	23809
844.162	23589
844.298	23558
844.435	23539
844.571	23531
844.708	23604
844.844	23649
844.98	23714
845.117	23752
845.253	23543
845.389	23520
845.525	23478
845.661	23364
845.798	23341
845.934	23254
846.07	23155
846.206	23315
846.342	23395
846.478	23269
846.614	23025
846.75	23071
846.886	22908
847.022	23166
847.158	22934
847.294	22908
847.429	23109
847.565	22908
847.701	23128
847.837	22778
847.972	22641
848.108	22793
848.244	22824
848.379	22592
848.515	22538
848.65	22569
848.786	22538
848.921	22466
849.057	22687
849.192	22637
849.328	22554
849.463	22596
849.598	22436
849.734	22348
849.869	22318
850.004	22314
850.14	22402
850.275	22181
850.41	22063
850.545	22147
850.68	22166
850.815	22318
850.95	22166
851.085	22447
851.22	22394
851.355	22329
851.49	22223
851.625	22329
851.76	22299
851.895	22185
852.03	22093
852.165	22219
852.299	22352
852.434	22382
852.569	22348
852.703	22204
852.838	22246
852.973	22333
853.107	22356
853.242	22173
853.376	21956
853.511	21998
853.645	22128
853.78	22169
853.914	22040
854.048	21987
854.183	21960
854.317	22017
854.451	22352
854.585	22051
854.72	22090
854.854	22063
854.988	22025
855.122	21926
855.256	21991
855.39	21979
855.524	22147
855.658	22090
855.792	22154
855.926	22143
856.06	22048
856.194	22177
856.327	21937
856.461	21903
856.595	21964
856.729	22059
856.862	22219
856.996	22036
857.13	22204
857.263	22082
857.397	22158
857.53	22036
857.664	22063
857.797	22002
857.931	22211
858.064	21903
858.197	22097
858.331	22021
858.464	22040
858.597	21861
858.731	22040
858.864	21949
858.997	22017
859.13	22040
859.263	21987
859.396	22010
859.529	21953
859.662	22017
859.795	22010
859.928	21979
860.061	22147
860.194	22234
860.327	22067
860.46	21949
860.592	22051
860.725	22223
860.858	22169
860.99	21930
861.123	21895
861.256	21983
861.388	22074
861.521	22569
861.653	21827
861.786	21812
861.918	21895
862.05	21930
862.183	22006
862.315	22078
862.447	22070
862.58	21861
862.712	21728
862.844	21827
862.976	21812
863.108	21835
863.24	22055
863.372	21656
863.504	21694
863.636	21713
863.768	21690
863.9	21606
864.032	21580
864.164	21595
864.296	21774
864.428	21701
864.559	21701
864.691	21789
864.823	21709
864.954	21618
865.086	21747
865.217	21587
865.349	21549
865.48	21557
865.612	21572
865.743	21583
865.875	21622
866.006	21564
866.137	21610
866.269	21507
866.4	21435
866.531	21515
866.662	21534
866.793	21397
866.924	21526
867.055	21469
867.186	21564
867.317	21538
867.448	21412
867.579	21488
867.71	21298
867.841	21412
867.972	21389
868.103	21458
868.233	21416
868.364	21542
868.495	21553
868.625	21694
868.756	21797
868.886	21728
869.017	21671
869.147	21907
869.278	21808
869.408	21804
869.539	21698
869.669	21850
869.799	21720
869.929	21915
870.06	21743
870.19	22013
870.32	22059
870.45	22067
870.58	22139
870.71	22207
870.84	22185
870.97	22139
871.1	22120
871.23	22234
871.36	22337
871.489	22207
871.619	22360
871.749	22249
871.879	22352
872.008	22405
872.138	22337
872.267	22344
872.397	22112
872.526	22055
872.656	22112
872.785	22078
872.915	22280
873.044	22257
873.173	22276
873.303	22329
873.432	22363
873.561	22436
873.69	22436
873.819	22390
873.948	22405
874.077	22474
874.206	22192
874.335	22421
874.464	22341
874.593	22607
874.722	22535
874.851	22607
874.979	22645
875.108	22573
875.237	22596
875.365	22508
875.494	22519
875.623	22542
875.751	22588
875.88	22641
876.008	22717
876.136	22752
876.265	22999
876.393	23006
876.521	23022
876.65	22991
876.778	22957
876.906	22957
877.034	22915
877.162	22774
877.29	22713
877.418	22782
877.546	22835
877.674	22889
877.802	22930
877.93	22896
878.058	22778
878.185	22694
878.313	22847
878.441	22908
878.568	22771
878.696	22892
878.824	22862
878.951	22934
879.079	22908
879.206	23102
879.333	23018
879.461	22877
879.588	22976
879.715	23060
879.842	23212
879.97	22961
880.097	22702
880.224	22698
880.351	22702
880.478	22752
880.605	22664
880.732	22626
880.859	22900
880.986	22809
881.112	22809
881.239	22512
881.366	22455
881.493	22398
881.619	22447
881.746	22276
881.872	22223
881.999	22306
882.125	22158
882.252	22333
882.378	22207
882.505	22394
882.631	22120
882.757	22055
882.883	22097
883.01	22162
883.136	22002
883.262	21793
883.388	21865
883.514	21991
883.64	22048
883.766	21926
883.892	21838
884.018	21766
884.143	21899
884.269	22128
884.395	21732
884.52	21656
884.646	21595
884.772	21542
884.897	21504
885.023	21656
885.148	21671
885.274	21812
885.399	21747
885.524	21488
885.65	21705
885.775	21641
885.9	21595
886.025	21701
886.15	21648
886.275	21515
886.4	21450
886.525	21443
886.65	21450
886.775	21530
886.9	21660
887.025	21895
887.149	21766
887.274	21428
887.399	21302
887.523	21348
887.648	21256
887.773	21275
887.897	21401
888.021	21450
888.146	21329
888.27	21485
888.395	21519
888.519	21462
888.643	21287
888.767	21412
888.891	21233
889.015	21116
889.139	21142
889.263	21123
889.387	21245
889.511	21344
889.635	21245
889.759	21154
889.883	21127
890.006	21123
890.13	21222
890.254	21100
890.377	20990
890.501	20929
890.624	20857
890.748	20948
890.871	20781
890.995	20682
891.118	20655
891.241	20746
891.364	20720
891.488	20746
891.611	20682
891.734	20663
891.857	20697
891.98	20785
892.103	20819
892.226	20735
892.349	20648
892.471	20457
892.594	20579
892.717	20731
892.839	20625
892.962	20682
893.085	20716
893.207	20571
893.33	20484
893.452	20560
893.575	20503
893.697	20659
893.819	20739
893.941	20762
894.064	20678
894.186	20499
894.308	20457
894.43	20716
894.552	20792
894.674	20583
894.796	20549
894.918	20613
895.04	20541
895.161	20629
895.283	20632
895.405	20503
895.526	20640
895.648	20533
895.769	20651
895.891	20598
896.012	20724
896.134	20598
896.255	20526
896.376	20667
896.498	20549
896.619	20583
896.74	20598
896.861	20735
896.982	20998
897.103	21119
897.224	20861
897.345	20963
897.466	20667
897.587	20857
897.708	21051
897.828	20933
897.949	20731
898.07	20545
898.19	20693
898.311	20781
898.431	20834
898.552	20781
898.672	20727
898.792	20937
898.913	20830
899.033	20587
899.153	20655
899.273	20400
899.393	20526
899.513	20594
899.633	20431
899.753	20503
899.873	20343
899.993	20503
900.113	20370
900.232	20385
900.352	20393
900.472	20233
900.591	20317
900.711	20290
900.83	20157
900.95	20415
901.069	20298
901.189	20096
901.308	19989
901.427	19841
901.546	19822
901.665	19947
901.784	19795
901.904	19655
902.023	19628
902.141	19415
902.26	19282
902.379	19411
902.498	19343
902.617	19339
902.735	19377
902.854	19358
902.973	19236
903.091	18958
903.21	18913
903.328	19015
903.446	18890
903.565	18825
903.683	18768
903.801	18734
903.919	18760
904.038	18730
904.156	18722
904.274	18673
904.392	18650
904.51	18616
904.627	18509
904.745	18540
904.863	18658
904.981	18338
905.098	18174
905.216	18285
905.334	18205
905.451	18262
905.569	18220
905.686	18342
905.803	18186
905.921	18049
906.038	18140
906.155	18019
906.272	17866
906.389	17927
906.506	17741
906.623	17737
906.74	17790
906.857	17726
906.974	17562
907.091	17714
907.208	17935
907.324	17779
907.441	17611
907.557	17471
907.674	17467
907.79	17318
907.907	17486
908.023	17497
908.139	17406
908.256	17334
908.372	17284
908.488	17326
908.604	17212
908.72	17052
908.836	17151
908.952	17010
909.068	17094
909.184	17200
909.3	17090
909.415	17143
909.531	17147
909.647	16763
909.762	16930
909.878	16801
909.993	16809
910.108	16771
910.224	16683
910.339	16744
910.454	16607
910.57	16508
910.685	16519
910.8	16793
910.915	16687
911.03	16558
911.145	16413
911.259	16249
911.374	16333
911.489	16261
911.604	16242
911.718	16063
911.833	16090
911.947	16101
912.062	16029
912.176	16112
912.291	16135
912.405	16154
912.519	16363
912.633	16265
912.748	16048
912.862	16051
912.976	15861
913.09	15800
913.204	15819
913.318	15979
913.431	15975
913.545	15911
913.659	15964
913.772	15827
913.886	15682
914	15732
914.113	15690
914.226	15759
914.34	15770
914.453	15538
914.566	15641
914.68	15572
914.793	15492
914.906	15272
915.019	15283
915.132	15279
915.245	15325
915.358	15386
915.47	15325
915.583	15287
915.696	15329
915.809	15435
915.921	15367
916.034	15245
916.146	15249
916.259	15157
916.371	15393
916.483	15249
916.595	15161
916.708	15097
916.82	15142
916.932	15013
917.044	15108
917.156	15066
917.268	14967
917.38	14914
917.491	14948
917.603	14971
917.715	15062
917.826	15142
917.938	14952
918.049	14853
918.161	14781
918.272	15062
918.384	15070
918.495	14807
918.606	14727
918.717	14705
918.828	14830
918.939	14739
919.05	14716
919.161	14689
919.272	14533
919.383	14625
919.494	14746
919.604	14861
919.715	14590
919.826	14590
919.936	14556
920.047	14762
920.157	14689
920.267	14838
920.378	14682
920.488	14625
920.598	14929
920.708	15001
920.818	14796
920.928	14838
921.038	14876
921.148	14830
921.258	14598
921.368	14556
921.477	14355
921.587	14438
921.697	14305
921.806	14400
921.916	14282
922.025	14073
922.134	14100
922.244	13883
922.353	14024
922.462	13894
922.571	13864
922.68	13662
922.789	13696
922.898	13651
923.007	13674
923.116	13658
923.224	13571
923.333	13571
923.442	13502
923.55	13381
923.659	13419
923.767	13468
923.876	13445
923.984	13514
924.092	13316
924.201	13438
924.309	13384
924.417	13502
924.525	13255
924.633	13381
924.741	14043
924.849	13179
924.956	13206
925.064	13110
925.172	13061
925.279	13088
925.387	13190
925.494	13084
925.602	13187
925.709	13099
925.816	12947
925.924	12939
926.031	13069
926.138	12966
926.245	13065
926.352	12916
926.459	13069
926.566	13050
926.673	12840
926.779	12787
926.886	12840
926.993	12696
927.099	12593
927.206	12566
927.312	12509
927.419	12650
927.525	12521
927.631	12521
927.737	12471
927.843	12350
927.95	12445
928.056	12388
928.162	12486
928.267	12506
928.373	13050
928.479	12521
928.585	12311
928.69	12292
928.796	12433
928.901	12281
929.007	12171
929.112	12205
929.218	12216
929.323	12152
929.428	12178
929.533	12216
929.638	12106
929.743	12106
929.848	12243
929.953	12087
930.058	11939
930.163	11870
930.267	11923
930.372	11961
930.477	11756
930.581	12072
930.685	11832
930.79	11718
930.894	11657
930.998	11745
931.103	11817
931.207	11467
931.311	11345
931.415	11288
931.519	11109
931.623	11060
