Data from test_V78500241_3642.txt Node
Date: Fri Mar 25 16:07:01 CST 2022
User: usil
Spectrometer: V785-0024
Trigger mode: 0
Integration Time (sec): 4.000000E-1
Scans to average: 1
Nonlinearity correction enabled: false
Boxcar width: 0
Storing dark spectrum: false
XAxis mode: Wavelengths
Number of Pixels in Spectrum: 1024
>>>>>Begin Spectral Data<<<<<
801.071	28025
801.214	28093
801.356	27804
801.499	27713
801.641	27701
801.783	27663
801.926	27785
802.068	27622
802.211	27538
802.353	27580
802.496	27458
802.638	27207
802.78	27272
802.923	27275
803.065	27348
803.208	27405
803.35	27393
803.492	27401
803.635	27439
803.777	27462
803.919	27450
804.061	27842
804.204	27648
804.346	27466
804.488	27405
804.63	27576
804.773	27477
804.915	27580
805.057	27641
805.199	27507
805.341	27572
805.483	27736
805.626	27709
805.768	27663
805.91	27622
806.052	27724
806.194	27610
806.336	27827
806.478	27641
806.62	27633
806.762	27675
806.904	28055
807.046	28112
807.188	28032
807.33	27975
807.472	28120
807.614	27960
807.756	28032
807.898	27922
808.04	27880
808.182	27838
808.324	27956
808.465	28013
808.607	28048
808.749	28226
808.891	28500
809.033	28440
809.174	28401
809.316	28181
809.458	28348
809.6	28211
809.741	28459
809.883	28527
810.025	28580
810.166	28588
810.308	28573
810.45	28588
810.591	28481
810.733	28322
810.875	28360
811.016	28310
811.158	28303
811.299	28341
811.441	28394
811.582	28577
811.724	28253
811.865	28219
812.007	28287
812.148	28314
812.29	28291
812.431	28580
812.573	28664
812.714	28805
812.855	28900
812.997	28866
813.138	29155
813.279	29006
813.421	28892
813.562	28801
813.703	28516
813.845	28516
813.986	28375
814.127	28150
814.268	28032
814.41	28147
814.551	27979
814.692	28116
814.833	27930
814.974	27979
815.115	27998
815.256	27937
815.397	27983
815.539	27892
815.68	27884
815.821	27823
815.962	27835
816.103	27831
816.244	27671
816.385	27557
816.526	27641
816.666	27420
816.807	27226
816.948	27351
817.089	27435
817.23	27332
817.371	27283
817.512	27252
817.653	27214
817.793	27249
817.934	27203
818.075	27492
818.216	27359
818.356	27306
818.497	27203
818.638	27005
818.778	27104
818.919	27074
819.06	27108
819.2	27188
819.341	27241
819.481	27306
819.622	27492
819.762	27652
819.903	27663
820.043	27485
820.184	27405
820.324	27500
820.465	27492
820.605	27526
820.746	27504
820.886	27386
821.026	27329
821.167	27401
821.307	27370
821.447	27351
821.588	27233
821.728	27230
821.868	26883
822.008	26765
822.149	27024
822.289	26849
822.429	26602
822.569	26556
822.709	26484
822.849	26336
822.99	26431
823.13	26240
823.27	26225
823.41	26100
823.55	26054
823.69	26069
823.83	26126
823.97	26054
824.11	25902
824.25	25799
824.389	25902
824.529	26024
824.669	25898
824.809	26103
824.949	26035
825.089	25966
825.228	25997
825.368	25734
825.508	25921
825.648	25890
825.787	25826
825.927	25780
826.067	25875
826.206	25799
826.346	25879
826.485	25833
826.625	25826
826.765	25963
826.904	25731
827.044	25628
827.183	25635
827.323	25525
827.462	25643
827.601	25518
827.741	25567
827.88	25544
828.02	25464
828.159	25487
828.298	25533
828.437	25616
828.577	25449
828.716	25624
828.855	25521
828.994	25152
829.134	25034
829.273	25236
829.412	25118
829.551	25129
829.69	25183
829.829	25289
829.968	25362
830.107	25358
830.246	25339
830.385	25129
830.524	25160
830.663	24958
830.802	25061
830.941	24871
831.08	24848
831.219	25004
831.357	24973
831.496	25057
831.635	24707
831.774	24749
831.913	24715
832.051	24688
832.19	24570
832.329	24559
832.467	24513
832.606	24289
832.744	24323
832.883	24570
833.022	24585
833.16	24445
833.299	24566
833.437	24490
833.576	24658
833.714	24532
833.852	24639
833.991	24513
834.129	24719
834.267	24608
834.406	24597
834.544	24700
834.682	24593
834.821	24612
834.959	24738
835.097	24452
835.235	24616
835.373	24566
835.511	24505
835.65	24445
835.788	24513
835.926	24194
836.064	24251
836.202	24159
836.34	24388
836.478	24376
836.615	24292
836.753	24308
836.891	24532
837.029	24365
837.167	24292
837.305	24433
837.443	24148
837.58	24174
837.718	24220
837.856	24235
837.993	24182
838.131	24254
838.269	24083
838.406	24114
838.544	24068
838.681	23836
838.819	23756
838.956	23733
839.094	23668
839.231	23790
839.369	23733
839.506	24068
839.643	23866
839.781	23577
839.918	23672
840.055	23649
840.193	23646
840.33	23570
840.467	23543
840.604	23687
840.742	23847
840.879	23474
841.016	23604
841.153	23478
841.29	23707
841.427	23596
841.564	23672
841.701	23482
841.838	23554
841.975	23547
842.112	23531
842.249	23524
842.385	23303
842.522	23615
842.659	23539
842.796	23398
842.933	23368
843.069	23341
843.206	23341
843.343	23425
843.479	23387
843.616	23379
843.752	23166
843.889	23216
844.025	23231
844.162	23113
844.298	23147
844.435	23102
844.571	23128
844.708	23178
844.844	23178
844.98	23273
845.117	23330
845.253	23155
845.389	22942
845.525	23022
845.661	22957
845.798	22953
845.934	23102
846.07	22847
846.206	22934
846.342	23010
846.478	22965
846.614	22675
846.75	22599
846.886	22573
847.022	22668
847.158	22736
847.294	22580
847.429	22713
847.565	22615
847.701	22828
847.837	22291
847.972	22318
848.108	22413
848.244	22306
848.379	22306
848.515	22181
848.65	22215
848.786	22261
848.921	22329
849.057	22322
849.192	22299
849.328	22287
849.463	22185
849.598	22242
849.734	22215
849.869	22093
850.004	21991
850.14	21983
850.275	21915
850.41	21861
850.545	21888
850.68	21865
850.815	22078
850.95	21991
851.085	22051
851.22	22044
851.355	21968
851.49	21884
851.625	21911
851.76	21907
851.895	21846
852.03	21934
852.165	21926
852.299	21918
852.434	22017
852.569	21972
852.703	21873
852.838	22048
852.973	22051
853.107	22059
853.242	21911
853.376	21819
853.511	21705
853.645	21823
853.78	21934
853.914	21781
854.048	21736
854.183	21804
854.317	21899
854.451	22006
854.585	21876
854.72	21880
854.854	21895
854.988	21778
855.122	21747
855.256	21682
855.39	21743
855.524	21842
855.658	21873
855.792	21850
855.926	21797
856.06	21918
856.194	21926
856.327	21736
856.461	21850
856.595	21774
856.729	21785
856.862	21922
856.996	21880
857.13	21968
857.263	21918
857.397	21861
857.53	21789
857.664	21941
857.797	21903
857.931	21956
858.064	21808
858.197	22032
858.331	21751
858.464	21736
858.597	21660
858.731	21793
858.864	21660
858.997	21854
859.13	21751
859.263	21873
859.396	21819
859.529	21736
859.662	21698
859.795	21838
859.928	21827
860.061	21937
860.194	21854
860.327	21915
860.46	21846
860.592	21876
860.725	21926
860.858	21804
860.99	21892
861.123	21835
861.256	21793
861.388	21827
861.521	22599
861.653	21652
861.786	21599
861.918	21675
862.05	21793
862.183	21701
862.315	21724
862.447	21709
862.58	21694
862.712	21504
862.844	21538
862.976	21580
863.108	21660
863.24	21956
863.372	21629
863.504	21492
863.636	21549
863.768	21564
863.9	21496
864.032	21374
864.164	21488
864.296	21675
864.428	21713
864.559	21652
864.691	21587
864.823	21488
864.954	21500
865.086	21447
865.217	21405
865.349	21359
865.48	21397
865.612	21515
865.743	21526
865.875	21393
866.006	21336
866.137	21420
866.269	21252
866.4	21439
866.531	21466
866.662	21321
866.793	21348
866.924	21317
867.055	21374
867.186	21412
867.317	21207
867.448	21188
867.579	21264
867.71	21230
867.841	21367
867.972	21367
868.103	21351
868.233	21370
868.364	21306
868.495	21439
868.625	21534
868.756	21599
868.886	21454
869.017	21656
869.147	21671
869.278	21511
869.408	21591
869.539	21580
869.669	21713
869.799	21523
869.929	21682
870.06	21781
870.19	21857
870.32	21854
870.45	21972
870.58	21968
870.71	22006
870.84	22093
870.97	21895
871.1	21998
871.23	22158
871.36	22219
871.489	22105
871.619	22139
871.749	22219
871.879	22207
872.008	22325
872.138	22192
872.267	22143
872.397	22017
872.526	21975
872.656	21994
872.785	21953
872.915	22166
873.044	22337
873.173	22352
873.303	22253
873.432	22272
873.561	22352
873.69	22135
873.819	22257
873.948	22375
874.077	22131
874.206	22059
874.335	22265
874.464	22299
874.593	22512
874.722	22417
874.851	22538
874.979	22436
875.108	22466
875.237	22459
875.365	22405
875.494	22447
875.623	22561
875.751	22459
875.88	22470
876.008	22660
876.136	22630
876.265	22892
876.393	23014
876.521	22839
876.65	22923
876.778	22896
876.906	22717
877.034	22710
877.162	22755
877.29	22812
877.418	22706
877.546	22828
877.674	22774
877.802	22687
877.93	22744
878.058	22805
878.185	22736
878.313	22569
878.441	22683
878.568	22603
878.696	22698
878.824	22748
878.951	22850
879.079	22972
879.206	22999
879.333	22999
879.461	22904
879.588	22923
879.715	22980
879.842	23003
879.97	22793
880.097	22634
880.224	22637
880.351	22721
880.478	22584
880.605	22596
880.732	22569
880.859	22873
880.986	22557
881.112	22691
881.239	22466
881.366	22306
881.493	22249
881.619	22135
881.746	22371
881.872	22177
881.999	22044
882.125	22143
882.252	22188
882.378	22101
882.505	22234
882.631	22010
882.757	21922
882.883	21934
883.01	21857
883.136	21766
883.262	21762
883.388	21713
883.514	21854
883.64	21941
883.766	21797
883.892	21618
884.018	21625
884.143	21770
884.269	21793
884.395	21599
884.52	21549
884.646	21450
884.772	21439
884.897	21397
885.023	21576
885.148	21542
885.274	21667
885.399	21622
885.524	21580
885.65	21549
885.775	21580
885.9	21454
886.025	21526
886.15	21580
886.275	21378
886.4	21428
886.525	21500
886.65	21416
886.775	21408
886.9	21538
887.025	21618
887.149	21363
887.274	21310
887.399	21165
887.523	21256
887.648	21249
887.773	21138
887.897	21363
888.021	21218
888.146	21211
888.27	21424
888.395	21348
888.519	21310
888.643	21249
888.767	21195
888.891	21135
889.015	21085
889.139	21195
889.263	20895
889.387	21138
889.511	21214
889.635	21222
889.759	21116
889.883	21024
890.006	21055
890.13	21176
890.254	20944
890.377	20948
890.501	20701
890.624	20777
890.748	20826
890.871	20678
890.995	20629
891.118	20537
891.241	20613
891.364	20537
891.488	20785
891.611	20568
891.734	20598
891.857	20667
891.98	20583
892.103	20575
892.226	20659
892.349	20594
892.471	20427
892.594	20488
892.717	20746
892.839	20583
892.962	20488
893.085	20465
893.207	20629
893.33	20366
893.452	20442
893.575	20606
893.697	20423
893.819	20788
893.941	20629
894.064	20621
894.186	20385
894.308	20533
894.43	20533
894.552	20670
894.674	20598
894.796	20362
894.918	20530
895.04	20400
895.161	20583
895.283	20564
895.405	20526
895.526	20469
895.648	20396
895.769	20492
895.891	20526
896.012	20590
896.134	20590
896.255	20446
896.376	20381
896.498	20518
896.619	20552
896.74	20530
896.861	20560
896.982	20811
897.103	21055
897.224	20724
897.345	20678
897.466	20579
897.587	20655
897.708	20815
897.828	20712
897.949	20594
898.07	20556
898.19	20674
898.311	20731
898.431	20697
898.552	20632
898.672	20739
898.792	20777
898.913	20746
899.033	20590
899.153	20480
899.273	20381
899.393	20389
899.513	20560
899.633	20488
899.753	20476
899.873	20336
899.993	20370
900.113	20431
900.232	20400
900.352	20423
900.472	20282
900.591	20240
900.711	20248
900.83	20107
900.95	20450
901.069	20317
901.189	20073
901.308	19860
901.427	19753
901.546	19833
901.665	19803
901.784	19837
901.904	19700
902.023	19556
902.141	19518
902.26	19331
902.379	19388
902.498	19350
902.617	19320
902.735	19407
902.854	19282
902.973	19183
903.091	19103
903.21	19038
903.328	19015
903.446	18939
903.565	18837
903.683	18901
903.801	18627
903.919	18700
904.038	18642
904.156	18563
904.274	18631
904.392	18410
904.51	18509
904.627	18502
904.745	18578
904.863	18551
904.981	18353
905.098	18148
905.216	18197
905.334	18277
905.451	18285
905.569	18095
905.686	18281
905.803	18228
905.921	18011
906.038	18117
906.155	18015
906.272	17882
906.389	17992
906.506	17805
906.623	17760
906.74	17783
906.857	17608
906.974	17589
907.091	17832
907.208	17790
907.324	17813
907.441	17649
907.557	17417
907.674	17509
907.79	17337
907.907	17417
908.023	17528
908.139	17497
908.256	17421
908.372	17440
908.488	17330
908.604	17136
908.72	17117
908.836	17181
908.952	17242
909.068	17216
909.184	17337
909.3	17151
909.415	17242
909.531	17185
909.647	16831
909.762	16965
909.878	16835
909.993	16927
910.108	16919
910.224	16839
910.339	16839
910.454	16645
910.57	16683
910.685	16664
910.8	16866
910.915	16763
911.03	16611
911.145	16500
911.259	16481
911.374	16440
911.489	16398
911.604	16253
911.718	16169
911.833	16284
911.947	16105
912.062	15975
912.176	16181
912.291	16196
912.405	16154
912.519	16402
912.633	16417
912.748	16287
912.862	16177
912.976	16124
913.09	15949
913.204	16017
913.318	15956
913.431	16196
913.545	16097
913.659	16101
913.772	16032
913.886	15918
914	15842
914.113	15960
914.226	15972
914.34	15915
914.453	15686
914.566	15857
914.68	15778
914.793	15720
914.906	15511
915.019	15447
915.132	15401
915.245	15397
915.358	15435
915.47	15450
915.583	15382
915.696	15435
915.809	15587
915.921	15641
916.034	15340
916.146	15310
916.259	15268
916.371	15431
916.483	15412
916.595	15389
916.708	15287
916.82	15272
916.932	15287
917.044	15214
917.156	15241
917.268	15055
917.38	15097
917.491	15085
917.603	15100
917.715	15275
917.826	15127
917.938	15066
918.049	14941
918.161	15074
918.272	15199
918.384	15207
918.495	15051
918.606	14941
918.717	14872
918.828	14895
918.939	14838
919.05	14823
919.161	14823
919.272	14697
919.383	14682
919.494	14895
919.604	15112
919.715	14811
919.826	14773
919.936	14724
920.047	14941
920.157	14857
920.267	15024
920.378	14853
920.488	14769
920.598	15005
920.708	15131
920.818	14933
920.928	14887
921.038	15074
921.148	15013
921.258	14720
921.368	14686
921.477	14537
921.587	14476
921.697	14400
921.806	14560
921.916	14503
922.025	14275
922.134	14111
922.244	14214
922.353	14225
922.462	14058
922.571	14073
922.68	13898
922.789	13864
922.898	13841
923.007	13803
923.116	13906
923.224	13765
923.333	13731
923.442	13731
923.55	13594
923.659	13731
923.767	13723
923.876	13616
923.984	13666
924.092	13445
924.201	13662
924.309	13575
924.417	13586
924.525	13396
924.633	13567
924.741	14461
924.849	13285
924.956	13438
925.064	13255
925.172	13137
925.279	13209
925.387	13320
925.494	13293
925.602	13358
925.709	13263
925.816	13183
925.924	13160
926.031	13236
926.138	13149
926.245	13168
926.352	13019
926.459	13259
926.566	13198
926.673	13122
926.779	12981
926.886	12867
926.993	12814
927.099	12711
927.206	12825
927.312	12681
927.419	12840
927.525	12753
927.631	12776
927.737	12703
927.843	12650
927.95	12623
928.056	12582
928.162	12726
928.267	12650
928.373	13179
928.479	12654
928.585	12445
928.69	12494
928.796	12551
928.901	12327
929.007	12327
929.112	12585
929.218	12388
929.323	12342
929.428	12289
929.533	12395
929.638	12224
929.743	12270
929.848	12342
929.953	12308
930.058	12201
930.163	11946
930.267	12019
930.372	12140
930.477	11988
930.581	12129
930.685	12072
930.79	11935
930.894	11840
930.998	11824
931.103	12038
931.207	11627
931.311	11486
931.415	11395
931.519	11318
931.623	11204
