Data from test_V78500241_2467.txt Node
Date: Fri Mar 25 15:58:53 CST 2022
User: usil
Spectrometer: V785-0024
Trigger mode: 0
Integration Time (sec): 4.000000E-1
Scans to average: 1
Nonlinearity correction enabled: false
Boxcar width: 0
Storing dark spectrum: false
XAxis mode: Wavelengths
Number of Pixels in Spectrum: 1024
>>>>>Begin Spectral Data<<<<<
801.071	28276
801.214	28051
801.356	27994
801.499	27998
801.641	27663
801.783	27850
801.926	27793
802.068	27819
802.211	27679
802.353	27542
802.496	27420
802.638	27420
802.78	27405
802.923	27321
803.065	27378
803.208	27207
803.35	27397
803.492	27500
803.635	27625
803.777	27542
803.919	27660
804.061	27842
804.204	27755
804.346	27663
804.488	27553
804.63	27564
804.773	27542
804.915	27675
805.057	27679
805.199	27507
805.341	27526
805.483	27633
805.626	27736
805.768	27614
805.91	27816
806.052	27770
806.194	27747
806.336	27903
806.478	27838
806.62	27831
806.762	27888
806.904	28147
807.046	28325
807.188	28211
807.33	28234
807.472	28325
807.614	28120
807.756	28211
807.898	28135
808.04	27941
808.182	27994
808.324	28139
808.465	28181
808.607	28318
808.749	28417
808.891	28409
809.033	28618
809.174	28421
809.316	28398
809.458	28512
809.6	28398
809.741	28519
809.883	28573
810.025	28698
810.166	28721
810.308	28740
810.45	28679
810.591	28580
810.733	28512
810.875	28489
811.016	28352
811.158	28363
811.299	28459
811.441	28630
811.582	28561
811.724	28382
811.865	28478
812.007	28470
812.148	28443
812.29	28481
812.431	28573
812.573	28793
812.714	28668
812.855	28888
812.997	28995
813.138	29242
813.279	29143
813.421	28976
813.562	28866
813.703	28812
813.845	28664
813.986	28432
814.127	28181
814.268	28131
814.41	28185
814.551	28067
814.692	28131
814.833	28063
814.974	28078
815.115	28082
815.256	28010
815.397	27861
815.539	27960
815.68	27941
815.821	27903
815.962	27964
816.103	27873
816.244	27781
816.385	27736
816.526	27614
816.666	27427
816.807	27306
816.948	27351
817.089	27538
817.23	27313
817.371	27355
817.512	27462
817.653	27332
817.793	27439
817.934	27329
818.075	27462
818.216	27344
818.356	27336
818.497	27336
818.638	27081
818.778	27074
818.919	27260
819.06	27203
819.2	27321
819.341	27351
819.481	27313
819.622	27496
819.762	27705
819.903	27641
820.043	27682
820.184	27500
820.324	27481
820.465	27660
820.605	27660
820.746	27420
820.886	27431
821.026	27466
821.167	27424
821.307	27641
821.447	27405
821.588	27226
821.728	27161
821.868	27058
822.008	26937
822.149	26883
822.289	26853
822.429	26549
822.569	26503
822.709	26526
822.849	26431
822.99	26476
823.13	26328
823.27	26385
823.41	26008
823.55	26050
823.69	26187
823.83	26320
823.97	26176
824.11	25925
824.25	26031
824.389	25986
824.529	26119
824.669	26031
824.809	26172
824.949	26088
825.089	26016
825.228	26126
825.368	25902
825.508	25921
825.648	25841
825.787	25875
825.927	26039
826.067	25932
826.206	25944
826.346	25902
826.485	25871
826.625	25902
826.765	25959
826.904	25887
827.044	25670
827.183	25460
827.323	25552
827.462	25738
827.601	25674
827.741	25438
827.88	25643
828.02	25438
828.159	25597
828.298	25616
828.437	25597
828.577	25491
828.716	25677
828.855	25464
828.994	25304
829.134	25194
829.273	25362
829.412	25354
829.551	25236
829.69	25152
829.829	25441
829.968	25358
830.107	25240
830.246	25251
830.385	25225
830.524	25110
830.663	25190
830.802	25080
830.941	24989
831.08	24951
831.219	25053
831.357	25110
831.496	25141
831.635	24897
831.774	24894
831.913	24802
832.051	24627
832.19	24582
832.329	24738
832.467	24532
832.606	24585
832.744	24426
832.883	24505
833.022	24521
833.16	24570
833.299	24544
833.437	24760
833.576	24620
833.714	24616
833.852	24757
833.991	24616
834.129	24642
834.267	24635
834.406	24673
834.544	24658
834.682	24623
834.821	24597
834.959	24734
835.097	24669
835.235	24627
835.373	24566
835.511	24532
835.65	24513
835.788	24460
835.926	24407
836.064	24239
836.202	24300
836.34	24475
836.478	24559
836.615	24551
836.753	24445
836.891	24570
837.029	24483
837.167	24494
837.305	24346
837.443	24346
837.58	24350
837.718	24304
837.856	24319
837.993	24285
838.131	24228
838.269	24057
838.406	24376
838.544	24121
838.681	24045
838.819	23866
838.956	23745
839.094	23851
839.231	23882
839.369	23996
839.506	24049
839.643	24064
839.781	23665
839.918	23684
840.055	23843
840.193	23691
840.33	23619
840.467	23703
840.604	23859
840.742	23920
840.879	23501
841.016	23608
841.153	23535
841.29	23828
841.427	23665
841.564	23649
841.701	23596
841.838	23634
841.975	23684
842.112	23623
842.249	23592
842.385	23433
842.522	23699
842.659	23554
842.796	23452
842.933	23410
843.069	23356
843.206	23501
843.343	23387
843.479	23497
843.616	23398
843.752	23242
843.889	23208
844.025	23296
844.162	23151
844.298	23417
844.435	23151
844.571	23128
844.708	23303
844.844	23258
844.98	23273
845.117	23261
845.253	23216
845.389	23037
845.525	23033
845.661	22965
845.798	22797
845.934	22809
846.07	22900
846.206	22965
846.342	22987
846.478	22972
846.614	22656
846.75	22634
846.886	22618
847.022	22679
847.158	22519
847.294	22668
847.429	22774
847.565	22752
847.701	22900
847.837	22409
847.972	22287
848.108	22436
848.244	22367
848.379	22276
848.515	22238
848.65	22200
848.786	22196
848.921	22276
849.057	22386
849.192	22382
849.328	22207
849.463	22257
849.598	22211
849.734	22093
849.869	22021
850.004	21987
850.14	22013
850.275	22097
850.41	21884
850.545	21903
850.68	22070
850.815	22025
850.95	22067
851.085	22131
851.22	22093
851.355	22021
851.49	22006
851.625	21998
851.76	22040
851.895	21960
852.03	21953
852.165	21956
852.299	22070
852.434	21987
852.569	22082
852.703	22044
852.838	22128
852.973	22097
853.107	22169
853.242	21831
853.376	21873
853.511	21770
853.645	21736
853.78	21892
853.914	21983
854.048	21857
854.183	21755
854.317	21816
854.451	22032
854.585	21804
854.72	21895
854.854	21907
854.988	21770
855.122	21861
855.256	21701
855.39	21717
855.524	21850
855.658	21793
855.792	21899
855.926	21838
856.06	21915
856.194	21994
856.327	21823
856.461	21732
856.595	21842
856.729	21785
856.862	22021
856.996	22013
857.13	21964
857.263	21926
857.397	21903
857.53	21823
857.664	21842
857.797	21930
857.931	21949
858.064	21823
858.197	21869
858.331	21869
858.464	21838
858.597	21591
858.731	21842
858.864	21846
858.997	21869
859.13	21854
859.263	21797
859.396	21960
859.529	21888
859.662	21812
859.795	21751
859.928	21827
860.061	21979
860.194	21945
860.327	21854
860.46	21865
860.592	21994
860.725	22040
860.858	21903
860.99	21884
861.123	21652
861.256	21816
861.388	21785
861.521	22607
861.653	21625
861.786	21682
861.918	21610
862.05	21732
862.183	21793
862.315	21808
862.447	21781
862.58	21785
862.712	21496
862.844	21412
862.976	21637
863.108	21724
863.24	21964
863.372	21443
863.504	21492
863.636	21454
863.768	21614
863.9	21488
864.032	21500
864.164	21431
864.296	21610
864.428	21682
864.559	21656
864.691	21656
864.823	21614
864.954	21500
865.086	21519
865.217	21454
865.349	21431
865.48	21485
865.612	21462
865.743	21435
865.875	21450
866.006	21412
866.137	21408
866.269	21294
866.4	21420
866.531	21473
866.662	21264
866.793	21355
866.924	21325
867.055	21386
867.186	21401
867.317	21351
867.448	21344
867.579	21348
867.71	21355
867.841	21245
867.972	21454
868.103	21317
868.233	21317
868.364	21355
868.495	21488
868.625	21561
868.756	21690
868.886	21542
869.017	21633
869.147	21739
869.278	21686
869.408	21568
869.539	21538
869.669	21656
869.799	21511
869.929	21861
870.06	21682
870.19	21876
870.32	22006
870.45	21842
870.58	22006
870.71	22097
870.84	22082
870.97	22032
871.1	21926
871.23	22177
871.36	22291
871.489	22013
871.619	22116
871.749	22139
871.879	22150
872.008	22188
872.138	22223
872.267	22158
872.397	22124
872.526	21968
872.656	22093
872.785	22078
872.915	22291
873.044	22375
873.173	22173
873.303	22188
873.432	22318
873.561	22299
873.69	22276
873.819	22261
873.948	22291
874.077	22398
874.206	22204
874.335	22124
874.464	22295
874.593	22588
874.722	22371
874.851	22523
874.979	22478
875.108	22440
875.237	22447
875.365	22413
875.494	22356
875.623	22535
875.751	22470
875.88	22382
876.008	22634
876.136	22752
876.265	22839
876.393	22877
876.521	22866
876.65	22881
876.778	22869
876.906	22911
877.034	22801
877.162	22862
877.29	22801
877.418	22790
877.546	22911
877.674	22687
877.802	22778
877.93	22786
878.058	22805
878.185	22641
878.313	22809
878.441	22725
878.568	22668
878.696	22733
878.824	22801
878.951	22965
879.079	22927
879.206	23044
879.333	23006
879.461	22805
879.588	22869
879.715	23018
879.842	23121
879.97	22900
880.097	22596
880.224	22656
880.351	22577
880.478	22603
880.605	22577
880.732	22622
880.859	22816
880.986	22527
881.112	22641
881.239	22531
881.366	22333
881.493	22246
881.619	22135
881.746	22207
881.872	22223
881.999	22128
882.125	22109
882.252	22242
882.378	22188
882.505	22238
882.631	22124
882.757	21888
882.883	21968
883.01	21987
883.136	21709
883.262	21774
883.388	21747
883.514	21827
883.64	21911
883.766	21759
883.892	21580
884.018	21610
884.143	21816
884.269	21831
884.395	21690
884.52	21424
884.646	21557
884.772	21454
884.897	21397
885.023	21492
885.148	21549
885.274	21656
885.399	21690
885.524	21545
885.65	21530
885.775	21477
885.9	21469
886.025	21580
886.15	21538
886.275	21507
886.4	21287
886.525	21477
886.65	21386
886.775	21374
886.9	21526
887.025	21774
887.149	21401
887.274	21348
887.399	21317
887.523	21332
887.648	21351
887.773	21180
887.897	21378
888.021	21310
888.146	21237
888.27	21302
888.395	21344
888.519	21302
888.643	21310
888.767	21252
888.891	21233
889.015	21077
889.139	21123
889.263	20918
889.387	21275
889.511	21294
889.635	21207
889.759	21100
889.883	20975
890.006	21039
890.13	21165
890.254	21020
890.377	20986
890.501	20720
890.624	20861
890.748	20876
890.871	20655
890.995	20701
891.118	20632
891.241	20606
891.364	20514
891.488	20655
891.611	20724
891.734	20701
891.857	20613
891.98	20670
892.103	20720
892.226	20670
892.349	20526
892.471	20355
892.594	20507
892.717	20526
892.839	20549
892.962	20492
893.085	20541
893.207	20396
893.33	20400
893.452	20495
893.575	20492
893.697	20587
893.819	20476
893.941	20701
894.064	20526
894.186	20522
894.308	20575
894.43	20746
894.552	20632
894.674	20598
894.796	20503
894.918	20533
895.04	20438
895.161	20537
895.283	20552
895.405	20526
895.526	20541
895.648	20530
895.769	20602
895.891	20583
896.012	20549
896.134	20587
896.255	20602
896.376	20526
896.498	20564
896.619	20575
896.74	20465
896.861	20568
896.982	20838
897.103	20929
897.224	20857
897.345	20800
897.466	20602
897.587	20819
897.708	20785
897.828	20785
897.949	20625
898.07	20564
898.19	20621
898.311	20678
898.431	20716
898.552	20602
898.672	20834
898.792	20758
898.913	20739
899.033	20667
899.153	20571
899.273	20328
899.393	20488
899.513	20541
899.633	20613
899.753	20598
899.873	20415
899.993	20488
900.113	20374
900.232	20396
900.352	20366
900.472	20317
900.591	20290
900.711	20278
900.83	20164
900.95	20259
901.069	20347
901.189	20096
901.308	20084
901.427	19826
901.546	19788
901.665	19833
901.784	19788
901.904	19765
902.023	19670
902.141	19381
902.26	19373
902.379	19430
902.498	19343
902.617	19297
902.735	19373
902.854	19274
902.973	19244
903.091	18916
903.21	19080
903.328	19004
903.446	18951
903.565	18669
903.683	18882
903.801	18703
903.919	18833
904.038	18646
904.156	18460
904.274	18642
904.392	18692
904.51	18521
904.627	18521
904.745	18658
904.863	18661
904.981	18300
905.098	18178
905.216	18254
905.334	18247
905.451	18330
905.569	18232
905.686	18247
905.803	18289
905.921	18034
906.038	18224
906.155	18079
906.272	17961
906.389	17882
906.506	17874
906.623	17707
906.74	17676
906.857	17642
906.974	17733
907.091	17775
907.208	17870
907.324	17775
907.441	17581
907.557	17467
907.674	17433
907.79	17417
907.907	17474
908.023	17482
908.139	17490
908.256	17421
908.372	17455
908.488	17406
908.604	17250
908.72	17132
908.836	17174
908.952	17075
909.068	17345
909.184	17269
909.3	17261
909.415	17200
909.531	17185
909.647	17010
909.762	16839
909.878	16927
909.993	17014
910.108	17003
910.224	16736
910.339	16839
910.454	16790
910.57	16733
910.685	16603
910.8	16854
910.915	16748
911.03	16558
911.145	16474
911.259	16470
911.374	16428
911.489	16478
911.604	16325
911.718	16207
911.833	16303
911.947	16154
912.062	16135
912.176	16185
912.291	16226
912.405	16196
912.519	16375
912.633	16402
912.748	16204
912.862	16204
912.976	16135
913.09	15941
913.204	15975
913.318	15964
913.431	16196
913.545	16105
913.659	16128
913.772	16029
913.886	15861
914	15800
914.113	15880
914.226	15949
914.34	15941
914.453	15694
914.566	15808
914.68	15747
914.793	15679
914.906	15526
915.019	15382
915.132	15450
915.245	15359
915.358	15329
915.47	15332
915.583	15359
915.696	15389
915.809	15519
915.921	15568
916.034	15340
916.146	15264
916.259	15294
916.371	15329
916.483	15405
916.595	15222
916.708	15211
916.82	15340
916.932	15241
917.044	15195
917.156	15161
917.268	15100
917.38	15058
917.491	15028
917.603	15081
917.715	15112
917.826	15264
917.938	14960
918.049	14944
918.161	14986
918.272	15176
918.384	15154
918.495	15024
918.606	14956
918.717	14792
918.828	14861
918.939	14868
919.05	14712
919.161	14796
919.272	14674
919.383	14705
919.494	14849
919.604	14914
919.715	14819
919.826	14701
919.936	14819
920.047	14921
920.157	14785
920.267	15009
920.378	14838
920.488	14693
920.598	15009
920.708	14944
920.818	14899
920.928	14963
921.038	15036
921.148	14971
921.258	14701
921.368	14678
921.477	14488
921.587	14480
921.697	14332
921.806	14545
921.916	14358
922.025	14206
922.134	14123
922.244	14107
922.353	14069
922.462	14092
922.571	13967
922.68	13811
922.789	13738
922.898	13757
923.007	13757
923.116	13849
923.224	13811
923.333	13723
923.442	13597
923.55	13491
923.659	13674
923.767	13727
923.876	13514
923.984	13571
924.092	13419
924.201	13575
924.309	13419
924.417	13537
924.525	13365
924.633	13384
924.741	14237
924.849	13240
924.956	13430
925.064	13270
925.172	13168
925.279	13084
925.387	13209
925.494	13179
925.602	13335
925.709	13312
925.816	13152
925.924	13156
926.031	13145
926.138	13061
926.245	13187
926.352	12985
926.459	13217
926.566	13259
926.673	13072
926.779	12993
926.886	12886
926.993	12665
927.099	12768
927.206	12642
927.312	12772
927.419	12798
927.525	12776
927.631	12700
927.737	12578
927.843	12612
927.95	12464
928.056	12570
928.162	12555
928.267	12631
928.373	13255
928.479	12715
928.585	12384
928.69	12486
928.796	12642
928.901	12426
929.007	12235
929.112	12391
929.218	12357
929.323	12391
929.428	12254
929.533	12475
929.638	12182
929.743	12289
929.848	12186
929.953	12327
930.058	12148
930.163	11950
930.267	11996
930.372	12076
930.477	11942
930.581	12095
930.685	11988
930.79	11840
930.894	11916
930.998	11878
931.103	11950
931.207	11615
931.311	11581
931.415	11444
931.519	11296
931.623	11296
