Data from test_V78500241_3383.txt Node
Date: Fri Mar 25 16:05:14 CST 2022
User: usil
Spectrometer: V785-0024
Trigger mode: 0
Integration Time (sec): 4.000000E-1
Scans to average: 1
Nonlinearity correction enabled: false
Boxcar width: 0
Storing dark spectrum: false
XAxis mode: Wavelengths
Number of Pixels in Spectrum: 1024
>>>>>Begin Spectral Data<<<<<
801.071	28519
801.214	28375
801.356	28261
801.499	28143
801.641	28040
801.783	28116
801.926	28116
802.068	28013
802.211	27937
802.353	27873
802.496	27766
802.638	27797
802.78	27713
802.923	27701
803.065	27500
803.208	27622
803.35	27747
803.492	27838
803.635	27876
803.777	27804
803.919	28006
804.061	28188
804.204	27949
804.346	27873
804.488	27762
804.63	27922
804.773	27819
804.915	27945
805.057	28097
805.199	27892
805.341	27907
805.483	28177
805.626	28078
805.768	27968
805.91	27895
806.052	28162
806.194	28013
806.336	28230
806.478	28109
806.62	28120
806.762	28322
806.904	28398
807.046	28698
807.188	28573
807.33	28565
807.472	28649
807.614	28489
807.756	28611
807.898	28421
808.04	28295
808.182	28344
808.324	28508
808.465	28497
808.607	28668
808.749	28831
808.891	28946
809.033	28938
809.174	28847
809.316	28725
809.458	28763
809.6	28862
809.741	28923
809.883	28911
810.025	28961
810.166	29098
810.308	29079
810.45	29105
810.591	28904
810.733	28816
810.875	28934
811.016	28702
811.158	28622
811.299	28881
811.441	28919
811.582	29064
811.724	28904
811.865	28927
812.007	28809
812.148	28729
812.29	28873
812.431	29052
812.573	29258
812.714	29124
812.855	29402
812.997	29387
813.138	29551
813.279	29433
813.421	29501
813.562	29307
813.703	29181
813.845	28862
813.986	28675
814.127	28664
814.268	28550
814.41	28588
814.551	28421
814.692	28489
814.833	28512
814.974	28538
815.115	28474
815.256	28390
815.397	28352
815.539	28371
815.68	28379
815.821	28188
815.962	28314
816.103	28200
816.244	28257
816.385	28120
816.526	28082
816.666	27812
816.807	27709
816.948	27937
817.089	27934
817.23	27884
817.371	27808
817.512	27972
817.653	27717
817.793	27770
817.934	27743
818.075	27884
818.216	27911
818.356	27785
818.497	27762
818.638	27591
818.778	27534
818.919	27492
819.06	27633
819.2	27819
819.341	27812
819.481	27785
819.622	28101
819.762	28188
819.903	28090
820.043	28051
820.184	27930
820.324	27907
820.465	27964
820.605	27869
820.746	28025
820.886	27827
821.026	27869
821.167	27861
821.307	27914
821.447	27876
821.588	27690
821.728	27755
821.868	27587
822.008	27401
822.149	27252
822.289	27351
822.429	27005
822.569	26876
822.709	26899
822.849	26967
822.99	26906
823.13	26743
823.27	26807
823.41	26689
823.55	26461
823.69	26552
823.83	26609
823.97	26682
824.11	26431
824.25	26389
824.389	26590
824.529	26484
824.669	26537
824.809	26644
824.949	26541
825.089	26492
825.228	26598
825.368	26282
825.508	26294
825.648	26305
825.787	26301
825.927	26393
826.067	26355
826.206	26328
826.346	26446
826.485	26427
826.625	26305
826.765	26564
826.904	26366
827.044	26119
827.183	26107
827.323	26012
827.462	26115
827.601	26062
827.741	26043
827.88	26202
828.02	26024
828.159	25982
828.298	26043
828.437	26172
828.577	26031
828.716	26149
828.855	25925
828.994	25814
829.134	25708
829.273	25769
829.412	25533
829.551	25590
829.69	25799
829.829	25670
829.968	25761
830.107	25791
830.246	25556
830.385	25670
830.524	25727
830.663	25597
830.802	25426
830.941	25396
831.08	25373
831.219	25373
831.357	25422
831.496	25457
831.635	25259
831.774	25316
831.913	25255
832.051	25065
832.19	25080
832.329	25129
832.467	24989
832.606	25031
832.744	24951
832.883	24947
833.022	24935
833.16	24882
833.299	25012
833.437	24977
833.576	25118
833.714	25061
833.852	25053
833.991	25103
834.129	25042
834.267	25156
834.406	25072
834.544	25042
834.682	25103
834.821	25053
834.959	25240
835.097	25076
835.235	25061
835.373	25118
835.511	25110
835.65	25000
835.788	24821
835.926	24779
836.064	24631
836.202	24814
836.34	24848
836.478	25038
836.615	24772
836.753	24825
836.891	24943
837.029	24916
837.167	24871
837.305	24833
837.443	24878
837.58	24711
837.718	24867
837.856	24772
837.993	24806
838.131	24627
838.269	24547
838.406	24555
838.544	24601
838.681	24384
838.819	24289
838.956	24201
839.094	24117
839.231	24186
839.369	24376
839.506	24574
839.643	24456
839.781	24110
839.918	24087
840.055	24197
840.193	24209
840.33	24117
840.467	24232
840.604	24015
840.742	24448
840.879	23874
841.016	24060
841.153	23923
841.29	24163
841.427	24060
841.564	24106
841.701	24041
841.838	24034
841.975	24007
842.112	24083
842.249	24011
842.385	23901
842.522	24136
842.659	23950
842.796	23817
842.933	23912
843.069	23726
843.206	23798
843.343	23901
843.479	23733
843.616	23863
843.752	23547
843.889	23581
844.025	23729
844.162	23611
844.298	23680
844.435	23627
844.571	23585
844.708	23665
844.844	23661
844.98	23790
845.117	23802
845.253	23714
845.389	23615
845.525	23646
845.661	23581
845.798	23383
845.934	23619
846.07	23376
846.206	23345
846.342	23539
846.478	23376
846.614	23143
846.75	22972
846.886	23109
847.022	23132
847.158	23136
847.294	23170
847.429	23128
847.565	23060
847.701	23227
847.837	22835
847.972	22736
848.108	22938
848.244	22900
848.379	22812
848.515	22611
848.65	22607
848.786	22683
848.921	22736
849.057	22847
849.192	22805
849.328	22755
849.463	22622
849.598	22637
849.734	22630
849.869	22561
850.004	22421
850.14	22470
850.275	22459
850.41	22219
850.545	22348
850.68	22542
850.815	22443
850.95	22424
851.085	22679
851.22	22634
851.355	22462
851.49	22466
851.625	22405
851.76	22402
851.895	22493
852.03	22455
852.165	22367
852.299	22538
852.434	22516
852.569	22386
852.703	22474
852.838	22557
852.973	22432
853.107	22577
853.242	22371
853.376	22295
853.511	22196
853.645	22219
853.78	22280
853.914	22284
854.048	22268
854.183	22261
854.317	22291
854.451	22508
854.585	22253
854.72	22166
854.854	22481
854.988	22169
855.122	22173
855.256	22112
855.39	22246
855.524	22306
855.658	22265
855.792	22177
855.926	22268
856.06	22265
856.194	22409
856.327	22166
856.461	22097
856.595	22219
856.729	22246
856.862	22272
856.996	22291
857.13	22238
857.263	22386
857.397	22424
857.53	22257
857.664	22398
857.797	22371
857.931	22405
858.064	22360
858.197	22314
858.331	22238
858.464	22287
858.597	22230
858.731	22200
858.864	22265
858.997	22219
859.13	22257
859.263	22261
859.396	22360
859.529	22219
859.662	22356
859.795	22131
859.928	22348
860.061	22443
860.194	22519
860.327	22344
860.46	22318
860.592	22417
860.725	22360
860.858	22303
860.99	22367
861.123	22154
861.256	22204
861.388	22261
861.521	22991
861.653	22150
861.786	22040
861.918	22093
862.05	22234
862.183	22169
862.315	22188
862.447	22219
862.58	22238
862.712	22063
862.844	21941
862.976	22029
863.108	21998
863.24	22508
863.372	21960
863.504	22082
863.636	22059
863.768	21911
863.9	21838
864.032	21911
864.164	21922
864.296	22059
864.428	21983
864.559	22017
864.691	21945
864.823	21987
864.954	21911
865.086	21975
865.217	21804
865.349	21724
865.48	21892
865.612	21956
865.743	21915
865.875	21907
866.006	21842
866.137	21892
866.269	21899
866.4	21778
866.531	21648
866.662	21770
866.793	21785
866.924	21812
867.055	21956
867.186	21804
867.317	21709
867.448	21606
867.579	21846
867.71	21549
867.841	21762
867.972	21663
868.103	21728
868.233	21759
868.364	21842
868.495	21880
868.625	21941
868.756	22192
868.886	22048
869.017	21873
869.147	22044
869.278	22112
869.408	21983
869.539	22067
869.669	22169
869.799	22044
869.929	22131
870.06	22067
870.19	22196
870.32	22306
870.45	22295
870.58	22356
870.71	22569
870.84	22607
870.97	22344
871.1	22424
871.23	22611
871.36	22634
871.489	22508
871.619	22634
871.749	22660
871.879	22573
872.008	22717
872.138	22630
872.267	22584
872.397	22489
872.526	22440
872.656	22493
872.785	22508
872.915	22717
873.044	22755
873.173	22660
873.303	22786
873.432	22713
873.561	22660
873.69	22771
873.819	22584
873.948	22672
874.077	22622
874.206	22618
874.335	22535
874.464	22698
874.593	22911
874.722	22721
874.851	22930
874.979	22869
875.108	22946
875.237	22740
875.365	22744
875.494	22877
875.623	22816
875.751	22702
875.88	22953
876.008	22930
876.136	23079
876.265	23410
876.393	23455
876.521	23318
876.65	23239
876.778	23246
876.906	23178
877.034	23200
877.162	23341
877.29	23261
877.418	23353
877.546	23288
877.674	23193
877.802	23136
877.93	23216
878.058	23292
878.185	23071
878.313	23044
878.441	23121
878.568	23018
878.696	23136
878.824	23231
878.951	23288
879.079	23254
879.206	23368
879.333	23398
879.461	23216
879.588	23387
879.715	23402
879.842	23543
879.97	23250
880.097	23113
880.224	23109
880.351	23124
880.478	23170
880.605	23006
880.732	22995
880.859	23299
880.986	23109
881.112	23105
881.239	22984
881.366	22862
881.493	22607
881.619	22557
881.746	22561
881.872	22622
881.999	22645
882.125	22577
882.252	22691
882.378	22664
882.505	22713
882.631	22455
882.757	22276
882.883	22428
883.01	22219
883.136	22200
883.262	22059
883.388	22112
883.514	22318
883.64	22371
883.766	22188
883.892	21960
884.018	22029
884.143	22287
884.269	22291
884.395	21903
884.52	21941
884.646	21964
884.772	21930
884.897	21888
885.023	21998
885.148	22059
885.274	22128
885.399	21937
885.524	21975
885.65	21899
885.775	21895
885.9	21972
886.025	21994
886.15	22040
886.275	21915
886.4	21713
886.525	21816
886.65	21789
886.775	21903
886.9	22070
887.025	22032
887.149	21934
887.274	21770
887.399	21652
887.523	21660
887.648	21595
887.773	21618
887.897	21876
888.021	21781
888.146	21458
888.27	21804
888.395	21713
888.519	21629
888.643	21652
888.767	21724
888.891	21656
889.015	21542
889.139	21511
889.263	21496
889.387	21614
889.511	21610
889.635	21705
889.759	21447
889.883	21530
890.006	21572
890.13	21583
890.254	21424
890.377	21473
890.501	21192
890.624	21180
890.748	21195
890.871	21100
890.995	21089
891.118	21001
891.241	21055
891.364	20982
891.488	21089
891.611	21138
891.734	20979
891.857	21028
891.98	20960
892.103	21138
892.226	21093
892.349	20948
892.471	20785
892.594	20929
892.717	20899
892.839	20868
892.962	21024
893.085	20963
893.207	20804
893.33	20861
893.452	20785
893.575	21001
893.697	20883
893.819	21165
893.941	21089
894.064	21070
894.186	20876
894.308	20826
894.43	21089
894.552	21001
894.674	21020
894.796	20853
894.918	20868
895.04	20979
895.161	20979
895.283	20986
895.405	20777
895.526	20963
895.648	20804
895.769	20899
895.891	20895
896.012	21005
896.134	20914
896.255	20857
896.376	20895
896.498	20975
896.619	20910
896.74	20819
896.861	20998
896.982	21260
897.103	21408
897.224	21176
897.345	21001
897.466	21024
897.587	21096
897.708	21180
897.828	21188
897.949	21123
898.07	20933
898.19	21093
898.311	21180
898.431	21036
898.552	21066
898.672	21047
898.792	21051
898.913	21237
899.033	20952
899.153	20948
899.273	20804
899.393	20796
899.513	20804
899.633	20925
899.753	20819
899.873	20807
899.993	20823
900.113	20826
900.232	20815
900.352	20701
900.472	20746
900.591	20499
900.711	20712
900.83	20541
900.95	20568
901.069	20648
901.189	20442
901.308	20237
901.427	20240
901.546	20103
901.665	20233
901.784	20172
901.904	20088
902.023	19837
902.141	19791
902.26	19738
902.379	19837
902.498	19655
902.617	19544
902.735	19715
902.854	19651
902.973	19556
903.091	19422
903.21	19335
903.328	19278
903.446	19320
903.565	19145
903.683	19099
903.801	18981
903.919	19145
904.038	19084
904.156	18939
904.274	19084
904.392	18909
904.51	18848
904.627	18821
904.745	18901
904.863	18905
904.981	18681
905.098	18627
905.216	18509
905.334	18570
905.451	18658
905.569	18620
905.686	18684
905.803	18627
905.921	18365
906.038	18506
906.155	18308
906.272	18289
906.389	18258
906.506	18140
906.623	18076
906.74	18049
906.857	17961
906.974	18030
907.091	18178
907.208	18296
907.324	18072
907.441	17977
907.557	17870
907.674	17809
907.79	17737
907.907	17707
908.023	17783
908.139	17779
908.256	17779
908.372	17691
908.488	17634
908.604	17524
908.72	17543
908.836	17501
908.952	17490
909.068	17490
909.184	17589
909.3	17592
909.415	17524
909.531	17490
909.647	17250
909.762	17322
909.878	17284
909.993	17235
910.108	17170
910.224	17277
910.339	17288
910.454	17136
910.57	16984
910.685	16942
910.8	17254
910.915	17159
911.03	16965
911.145	16873
911.259	16774
911.374	16782
911.489	16698
911.604	16656
911.718	16569
911.833	16603
911.947	16451
912.062	16447
912.176	16519
912.291	16580
912.405	16531
912.519	16797
912.633	16759
912.748	16634
912.862	16656
912.976	16314
913.09	16306
913.204	16382
913.318	16310
913.431	16413
913.545	16356
913.659	16436
913.772	16382
913.886	16204
914	16139
914.113	16211
914.226	16306
914.34	16230
914.453	16067
914.566	16128
914.68	16093
914.793	15987
914.906	15808
915.019	15827
915.132	15633
915.245	15686
915.358	15781
915.47	15728
915.583	15755
915.696	15759
915.809	15831
915.921	15888
916.034	15614
916.146	15564
916.259	15610
916.371	15618
916.483	15629
916.595	15420
916.708	15675
916.82	15595
916.932	15500
917.044	15568
917.156	15367
917.268	15424
917.38	15389
917.491	15355
917.603	15378
917.715	15439
917.826	15462
917.938	15279
918.049	15317
918.161	15344
918.272	15454
918.384	15397
918.495	15340
918.606	15291
918.717	15062
918.828	15074
918.939	15146
919.05	15055
919.161	14944
919.272	14906
919.383	14994
919.494	15024
919.604	15275
919.715	15062
919.826	14979
919.936	15116
920.047	15150
920.157	15089
920.267	15188
920.378	15020
920.488	14944
920.598	15279
920.708	15401
920.818	15161
920.928	15112
921.038	15298
921.148	15351
921.258	14937
921.368	14937
921.477	14853
921.587	14648
921.697	14610
921.806	14807
921.916	14594
922.025	14450
922.134	14484
922.244	14389
922.353	14438
922.462	14320
922.571	14278
922.68	14069
922.789	14062
922.898	14176
923.007	13974
923.116	14107
923.224	14084
923.333	14058
923.442	13845
923.55	13845
923.659	13856
923.767	13849
923.876	13875
923.984	13967
924.092	13708
924.201	13791
924.309	13830
924.417	13791
924.525	13807
924.633	13780
924.741	14632
924.849	13548
924.956	13609
925.064	13521
925.172	13445
925.279	13392
925.387	13377
925.494	13430
925.602	13571
925.709	13563
925.816	13415
925.924	13362
926.031	13362
926.138	13392
926.245	13411
926.352	13282
926.459	13419
926.566	13449
926.673	13282
926.779	13187
926.886	13152
926.993	13019
927.099	13027
927.206	12894
927.312	12905
927.419	13042
927.525	13053
927.631	13008
927.737	12909
927.843	12791
927.95	12719
928.056	12772
928.162	12867
928.267	12882
928.373	13419
928.479	12943
928.585	12715
928.69	12814
928.796	12825
928.901	12673
929.007	12555
929.112	12601
929.218	12570
929.323	12570
929.428	12464
929.533	12639
929.638	12464
929.743	12452
929.848	12433
929.953	12502
930.058	12429
930.163	12159
930.267	12159
930.372	12254
930.477	12251
930.581	12433
930.685	12213
930.79	12087
930.894	12110
930.998	11999
931.103	12190
931.207	11901
931.311	11726
931.415	11608
931.519	11440
931.623	11505
