Data from test_V78500241_2085.txt Node
Date: Fri Mar 25 15:56:14 CST 2022
User: usil
Spectrometer: V785-0024
Trigger mode: 0
Integration Time (sec): 4.000000E-1
Scans to average: 1
Nonlinearity correction enabled: false
Boxcar width: 0
Storing dark spectrum: false
XAxis mode: Wavelengths
Number of Pixels in Spectrum: 1024
>>>>>Begin Spectral Data<<<<<
801.071	29246
801.214	29174
801.356	29094
801.499	29102
801.641	28824
801.783	28812
801.926	28900
802.068	28866
802.211	28919
802.353	28835
802.496	28603
802.638	28519
802.78	28577
802.923	28504
803.065	28504
803.208	28481
803.35	28622
803.492	28675
803.635	28862
803.777	28740
803.919	28824
804.061	29231
804.204	28820
804.346	28763
804.488	28771
804.63	28953
804.773	28858
804.915	29022
805.057	29037
805.199	28759
805.341	28911
805.483	29117
805.626	29113
805.768	28991
805.91	29010
806.052	29200
806.194	28923
806.336	29239
806.478	29048
806.62	29022
806.762	29181
806.904	29452
807.046	29596
807.188	29448
807.33	29505
807.472	29547
807.614	29566
807.756	29345
807.898	29406
808.04	29231
808.182	29315
808.324	29231
808.465	29391
808.607	29642
808.749	29790
808.891	29901
809.033	29889
809.174	29805
809.316	29824
809.458	29691
809.6	29608
809.741	29779
809.883	29961
810.025	29988
810.166	30114
810.308	30098
810.45	29977
810.591	29916
810.733	29779
810.875	29809
811.016	29630
811.158	29805
811.299	29824
811.441	29954
811.582	29984
811.724	29828
811.865	29859
812.007	29893
812.148	29802
812.29	29878
812.431	29984
812.573	30049
812.714	30197
812.855	30334
812.997	30467
813.138	30490
813.279	30475
813.421	30296
813.562	30205
813.703	30121
813.845	29931
813.986	29634
814.127	29497
814.268	29421
814.41	29570
814.551	29414
814.692	29596
814.833	29387
814.974	29406
815.115	29463
815.256	29242
815.397	29208
815.539	29318
815.68	29410
815.821	29280
815.962	29353
816.103	29261
816.244	29220
816.385	29147
816.526	29086
816.666	28900
816.807	28892
816.948	28755
817.089	29033
817.23	28850
817.371	28858
817.512	28942
817.653	28809
817.793	28816
817.934	28854
818.075	28965
818.216	28797
818.356	28736
818.497	28588
818.638	28550
818.778	28508
818.919	28542
819.06	28668
819.2	28774
819.341	28752
819.481	28873
819.622	28824
819.762	29136
819.903	29083
820.043	29159
820.184	28938
820.324	28888
820.465	29033
820.605	28991
820.746	28949
820.886	28866
821.026	28930
821.167	28976
821.307	28942
821.447	28820
821.588	28877
821.728	28759
821.868	28565
822.008	28474
822.149	28158
822.289	28360
822.429	27975
822.569	27941
822.709	28124
822.849	27914
822.99	27899
823.13	27785
823.27	27652
823.41	27614
823.55	27610
823.69	27622
823.83	27717
823.97	27751
824.11	27454
824.25	27435
824.389	27466
824.529	27553
824.669	27580
824.809	27530
824.949	27614
825.089	27637
825.228	27488
825.368	27405
825.508	27389
825.648	27317
825.787	27427
825.927	27515
826.067	27370
826.206	27359
826.346	27431
826.485	27351
826.625	27340
826.765	27336
826.904	27447
827.044	27161
827.183	27047
827.323	26982
827.462	27074
827.601	27104
827.741	27039
827.88	27211
828.02	27085
828.159	27077
828.298	27192
828.437	27169
828.577	27032
828.716	27154
828.855	26914
828.994	26804
829.134	26834
829.273	26724
829.412	26830
829.551	26716
829.69	26754
829.829	26724
829.968	26815
830.107	26925
830.246	26864
830.385	26564
830.524	26560
830.663	26564
830.802	26484
830.941	26339
831.08	26404
831.219	26396
831.357	26476
831.496	26701
831.635	26556
831.774	26240
831.913	26385
832.051	26370
832.19	26248
832.329	26195
832.467	25982
832.606	26073
832.744	25925
832.883	26065
833.022	26115
833.16	26183
833.299	26012
833.437	26111
833.576	26168
833.714	26149
833.852	26256
833.991	26282
834.129	26199
834.267	26237
834.406	26164
834.544	26221
834.682	26229
834.821	26069
834.959	26210
835.097	26031
835.235	26248
835.373	25997
835.511	26126
835.65	25982
835.788	25978
835.926	25879
836.064	25776
836.202	25658
836.34	25909
836.478	26016
836.615	25970
836.753	26005
836.891	26046
837.029	25966
837.167	25826
837.305	25822
837.443	25791
837.58	25742
837.718	25784
837.856	25868
837.993	25677
838.131	25734
838.269	25613
838.406	25677
838.544	25609
838.681	25502
838.819	25324
838.956	25285
839.094	25232
839.231	25244
839.369	25369
839.506	25575
839.643	25464
839.781	25304
839.918	25297
840.055	25335
840.193	25244
840.33	25259
840.467	25251
840.604	25110
840.742	25316
840.879	24966
841.016	25000
841.153	25004
841.29	25251
841.427	25168
841.564	25152
841.701	25122
841.838	25023
841.975	24958
842.112	24954
842.249	25034
842.385	24840
842.522	25004
842.659	24856
842.796	24935
842.933	24768
843.069	24783
843.206	24848
843.343	24886
843.479	24951
843.616	24757
843.752	24623
843.889	24582
844.025	24620
844.162	24677
844.298	24738
844.435	24650
844.571	24559
844.708	24585
844.844	24806
844.98	24806
845.117	24639
845.253	24585
845.389	24589
845.525	24479
845.661	24452
845.798	24346
845.934	24384
846.07	24327
846.206	24448
846.342	24604
846.478	24467
846.614	24079
846.75	24125
846.886	24026
847.022	24186
847.158	24102
847.294	24018
847.429	24106
847.565	24007
847.701	24213
847.837	23920
847.972	23813
848.108	23840
848.244	23882
848.379	23741
848.515	23760
848.65	23619
848.786	23714
848.921	23745
849.057	23783
849.192	23695
849.328	23707
849.463	23661
849.598	23551
849.734	23551
849.869	23589
850.004	23391
850.14	23448
850.275	23452
850.41	23391
850.545	23444
850.68	23337
850.815	23421
850.95	23474
851.085	23516
851.22	23497
851.355	23539
851.49	23463
851.625	23402
851.76	23467
851.895	23318
852.03	23402
852.165	23493
852.299	23455
852.434	23402
852.569	23440
852.703	23417
852.838	23463
852.973	23535
853.107	23459
853.242	23345
853.376	23235
853.511	23162
853.645	23220
853.78	23280
853.914	23356
854.048	23288
854.183	23326
854.317	23261
854.451	23463
854.585	23273
854.72	23220
854.854	23421
854.988	23197
855.122	23246
855.256	23162
855.39	23292
855.524	23322
855.658	23204
855.792	23197
855.926	23208
856.06	23216
856.194	23246
856.327	23261
856.461	23204
856.595	23258
856.729	23231
856.862	23277
856.996	23341
857.13	23345
857.263	23364
857.397	23341
857.53	23220
857.664	23235
857.797	23360
857.931	23391
858.064	23379
858.197	23349
858.331	23220
858.464	23140
858.597	23174
858.731	23193
858.864	23235
858.997	23151
859.13	23242
859.263	23261
859.396	23440
859.529	23284
859.662	23212
859.795	23299
859.928	23235
860.061	23406
860.194	23307
860.327	23387
860.46	23318
860.592	23284
860.725	23368
860.858	23299
860.99	23292
861.123	23227
861.256	23159
861.388	23220
861.521	23923
861.653	23292
861.786	23014
861.918	23056
862.05	23162
862.183	23200
862.315	23181
862.447	23269
862.58	23181
862.712	22991
862.844	22873
862.976	23056
863.108	23067
863.24	23531
863.372	22957
863.504	22927
863.636	23033
863.768	23006
863.9	22927
864.032	22904
864.164	22866
864.296	23014
864.428	23075
864.559	23010
864.691	22968
864.823	22976
864.954	22824
865.086	22930
865.217	22835
865.349	22847
865.48	22759
865.612	22694
865.743	22873
865.875	22877
866.006	22713
866.137	22790
866.269	22744
866.4	22805
866.531	22702
866.662	22759
866.793	22759
866.924	22653
867.055	22733
867.186	22691
867.317	22698
867.448	22538
867.579	22759
867.71	22596
867.841	22679
867.972	22653
868.103	22626
868.233	22675
868.364	22786
868.495	22911
868.625	22930
868.756	23094
868.886	22965
869.017	22976
869.147	23010
869.278	23090
869.408	22934
869.539	23025
869.669	22980
869.799	23140
869.929	23048
870.06	23193
870.19	23326
870.32	23242
870.45	23402
870.58	23235
870.71	23364
870.84	23429
870.97	23417
871.1	23288
871.23	23452
871.36	23524
871.489	23543
871.619	23676
871.749	23551
871.879	23486
872.008	23771
872.138	23630
872.267	23490
872.397	23368
872.526	23356
872.656	23345
872.785	23383
872.915	23619
873.044	23684
873.173	23649
873.303	23661
873.432	23551
873.561	23722
873.69	23600
873.819	23642
873.948	23726
874.077	23585
874.206	23573
874.335	23531
874.464	23707
874.593	23775
874.722	23676
874.851	23901
874.979	23893
875.108	23851
875.237	23668
875.365	23577
875.494	23767
875.623	23897
875.751	23863
875.88	23851
876.008	23904
876.136	23950
876.265	24133
876.393	24197
876.521	24315
876.65	24327
876.778	24091
876.906	24220
877.034	24049
877.162	24106
877.29	24152
877.418	24125
877.546	24144
877.674	24038
877.802	24167
877.93	24190
878.058	24072
878.185	24003
878.313	24098
878.441	24152
878.568	23980
878.696	23999
878.824	24045
878.951	24148
879.079	24228
879.206	24292
879.333	24273
879.461	24133
879.588	24213
879.715	24357
879.842	24429
879.97	24197
880.097	23912
880.224	23958
880.351	23878
880.478	23984
880.605	23935
880.732	23889
880.859	24015
880.986	23939
881.112	24034
881.239	23745
881.366	23707
881.493	23619
881.619	23585
881.746	23535
881.872	23615
881.999	23436
882.125	23493
882.252	23505
882.378	23463
882.505	23528
882.631	23383
882.757	23166
882.883	23189
883.01	23277
883.136	23086
883.262	23056
883.388	22972
883.514	23117
883.64	23151
883.766	22930
883.892	22862
884.018	22984
884.143	23143
884.269	23128
884.395	22927
884.52	22759
884.646	22733
884.772	22793
884.897	22645
885.023	22721
885.148	22930
885.274	22881
885.399	22831
885.524	22793
885.65	22972
885.775	22782
885.9	22630
886.025	22904
886.15	22854
886.275	22786
886.4	22660
886.525	22668
886.65	22656
886.775	22748
886.9	22915
887.025	22866
887.149	22721
887.274	22603
887.399	22569
887.523	22474
887.648	22447
887.773	22405
887.897	22717
888.021	22630
888.146	22451
888.27	22523
888.395	22474
888.519	22508
888.643	22508
888.767	22580
888.891	22504
889.015	22322
889.139	22382
889.263	22219
889.387	22398
889.511	22577
889.635	22291
889.759	22272
889.883	22234
890.006	22352
890.13	22382
890.254	22257
890.377	22196
890.501	21998
890.624	22124
890.748	22112
890.871	22010
890.995	21888
891.118	21755
891.241	21797
891.364	21739
891.488	21983
891.611	21876
891.734	21937
891.857	21922
891.98	21850
892.103	21869
892.226	21873
892.349	21751
892.471	21515
892.594	21831
892.717	21728
892.839	21774
892.962	21667
893.085	21675
893.207	21797
893.33	21568
893.452	21652
893.575	21739
893.697	21720
893.819	21789
893.941	21911
894.064	21774
894.186	21648
894.308	21591
894.43	21762
894.552	21823
894.674	21694
894.796	21686
894.918	21690
895.04	21641
895.161	21778
895.283	21774
895.405	21667
895.526	21755
895.648	21637
895.769	21728
895.891	21694
896.012	21838
896.134	21732
896.255	21728
896.376	21663
896.498	21743
896.619	21656
896.74	21568
896.861	21812
896.982	22006
897.103	22150
897.224	22002
897.345	21937
897.466	21926
897.587	21903
897.708	22017
897.828	21915
897.949	21816
898.07	21709
898.19	21713
898.311	21880
898.431	21800
898.552	21892
898.672	21968
898.792	21876
898.913	21812
899.033	21739
899.153	21603
899.273	21587
899.393	21572
899.513	21591
899.633	21599
899.753	21545
899.873	21496
899.993	21507
900.113	21496
900.232	21530
900.352	21458
900.472	21424
900.591	21386
900.711	21313
900.83	21367
900.95	21378
901.069	21435
901.189	21272
901.308	20979
901.427	20830
901.546	20960
901.665	20941
901.784	20933
901.904	20739
902.023	20663
902.141	20537
902.26	20568
902.379	20507
902.498	20366
902.617	20324
902.735	20457
902.854	20267
902.973	20336
903.091	20214
903.21	19978
903.328	19936
903.446	19940
903.565	19814
903.683	19864
903.801	19696
903.919	19852
904.038	19750
904.156	19624
904.274	19651
904.392	19563
904.51	19563
904.627	19567
904.745	19658
904.863	19651
904.981	19434
905.098	19217
905.216	19141
905.334	19301
905.451	19232
905.569	19175
905.686	19312
905.803	19126
905.921	19031
906.038	19202
906.155	19027
906.272	18970
906.389	18897
906.506	18852
906.623	18779
906.74	18711
906.857	18654
906.974	18669
907.091	18871
907.208	18848
907.324	18757
907.441	18658
907.557	18532
907.674	18612
907.79	18551
907.907	18422
908.023	18513
908.139	18521
908.256	18475
908.372	18441
908.488	18403
908.604	18285
908.72	18091
908.836	18152
908.952	18247
909.068	18102
909.184	18315
909.3	18224
909.415	18174
909.531	18155
909.647	17832
909.762	17912
909.878	17859
909.993	17866
910.108	17832
910.224	17756
910.339	17805
910.454	17729
910.57	17589
910.685	17558
910.8	17847
910.915	17687
911.03	17764
911.145	17497
911.259	17463
911.374	17608
911.489	17311
911.604	17364
911.718	17242
911.833	17212
911.947	17166
912.062	17045
912.176	17151
912.291	17231
912.405	17288
912.519	17349
912.633	17376
912.748	17265
912.862	17109
912.976	16957
913.09	16881
913.204	16961
913.318	16980
913.431	17136
913.545	17025
913.659	17140
913.772	16991
913.886	16812
914	16801
914.113	16835
914.226	16980
914.34	16816
914.453	16611
914.566	16725
914.68	16649
914.793	16675
914.906	16390
915.019	16363
915.132	16413
915.245	16348
915.358	16325
915.47	16386
915.583	16284
915.696	16310
915.809	16348
915.921	16569
916.034	16329
916.146	16196
916.259	16261
916.371	16363
916.483	16246
916.595	16120
916.708	16196
916.82	16177
916.932	16040
917.044	16101
917.156	16006
917.268	15926
917.38	16036
917.491	15956
917.603	15873
917.715	15945
917.826	15994
917.938	15842
918.049	15816
918.161	15926
918.272	16044
918.384	15941
918.495	15838
918.606	15755
918.717	15576
918.828	15675
918.939	15755
919.05	15603
919.161	15679
919.272	15408
919.383	15428
919.494	15736
919.604	15876
919.715	15561
919.826	15481
919.936	15591
920.047	15656
920.157	15568
920.267	15812
920.378	15637
920.488	15568
920.598	15751
920.708	15968
920.818	15705
920.928	15789
921.038	15953
921.148	15850
921.258	15469
921.368	15511
921.477	15287
921.587	15241
921.697	15245
921.806	15393
921.916	15131
922.025	14952
922.134	14998
922.244	14883
922.353	15055
922.462	14781
922.571	14800
922.68	14594
922.789	14655
922.898	14644
923.007	14587
923.116	14678
923.224	14530
923.333	14594
923.442	14339
923.55	14480
923.659	14393
923.767	14454
923.876	14412
923.984	14370
924.092	14396
924.201	14271
924.309	14381
924.417	14343
924.525	14218
924.633	14202
924.741	15116
924.849	14069
924.956	14187
925.064	14012
925.172	13936
925.279	14069
925.387	14058
925.494	13970
925.602	14058
925.709	14008
925.816	13803
925.924	13906
926.031	13917
926.138	13868
926.245	13879
926.352	13795
926.459	13841
926.566	13989
926.673	13784
926.779	13567
926.886	13643
926.993	13643
927.099	13510
927.206	13438
927.312	13514
927.419	13521
927.525	13521
927.631	13510
927.737	13373
927.843	13415
927.95	13141
928.056	13293
928.162	13293
928.267	13316
928.373	13913
928.479	13365
928.585	13069
928.69	13194
928.796	13240
928.901	13057
929.007	12989
929.112	13126
929.218	13061
929.323	13061
929.428	12954
929.533	13084
929.638	12928
929.743	12935
929.848	12989
929.953	12970
930.058	12802
930.163	12654
930.267	12673
930.372	12821
930.477	12654
930.581	12760
930.685	12639
930.79	12410
930.894	12502
930.998	12429
931.103	12631
931.207	12315
931.311	12213
931.415	12136
931.519	11927
931.623	11897
