Data from test_V78500241_1231.txt Node
Date: Fri Mar 25 15:50:19 CST 2022
User: usil
Spectrometer: V785-0024
Trigger mode: 0
Integration Time (sec): 4.000000E-1
Scans to average: 1
Nonlinearity correction enabled: false
Boxcar width: 0
Storing dark spectrum: false
XAxis mode: Wavelengths
Number of Pixels in Spectrum: 1024
>>>>>Begin Spectral Data<<<<<
801.071	28660
801.214	28744
801.356	28538
801.499	28554
801.641	28375
801.783	28128
801.926	28382
802.068	28310
802.211	28215
802.353	28314
802.496	28059
802.638	28021
802.78	27941
802.923	27888
803.065	27876
803.208	27835
803.35	27892
803.492	28067
803.635	28147
803.777	28101
803.919	28211
804.061	28569
804.204	28257
804.346	28181
804.488	28124
804.63	28200
804.773	28078
804.915	28265
805.057	28295
805.199	28234
805.341	28234
805.483	28382
805.626	28337
805.768	28287
805.91	28284
806.052	28455
806.194	28363
806.336	28656
806.478	28443
806.62	28390
806.762	28424
806.904	28622
807.046	28946
807.188	28881
807.33	28828
807.472	28999
807.614	28637
807.756	28812
807.898	28710
808.04	28691
808.182	28713
808.324	28687
808.465	28866
808.607	28923
808.749	29151
808.891	29311
809.033	29246
809.174	29109
809.316	29143
809.458	29086
809.6	28995
809.741	29239
809.883	29220
810.025	29334
810.166	29425
810.308	29486
810.45	29387
810.591	29429
810.733	29132
810.875	29102
811.016	29113
811.158	28942
811.299	29174
811.441	29311
811.582	29341
811.724	29136
811.865	29109
812.007	29121
812.148	29048
812.29	29132
812.431	29417
812.573	29474
812.714	29608
812.855	29699
812.997	29722
813.138	29862
813.279	29764
813.421	29680
813.562	29657
813.703	29520
813.845	29261
813.986	29018
814.127	28911
814.268	28733
814.41	28968
814.551	28896
814.692	28961
814.833	28744
814.974	28850
815.115	28809
815.256	28805
815.397	28702
815.539	28793
815.68	28622
815.821	28603
815.962	28607
816.103	28691
816.244	28508
816.385	28375
816.526	28497
816.666	28234
816.807	28097
816.948	28207
817.089	28242
817.23	28112
817.371	28112
817.512	28048
817.653	28067
817.793	28242
817.934	28196
818.075	28086
818.216	28196
818.356	28158
818.497	28006
818.638	27884
818.778	27812
818.919	27934
819.06	27873
819.2	28112
819.341	28226
819.481	28249
819.622	28268
819.762	28382
819.903	28470
820.043	28394
820.184	28344
820.324	28398
820.465	28481
820.605	28363
820.746	28226
820.886	28257
821.026	28257
821.167	28120
821.307	28344
821.447	28242
821.588	28135
821.728	27850
821.868	27759
822.008	27720
822.149	27724
822.289	27580
822.429	27382
822.569	27401
822.709	27340
822.849	27195
822.99	27249
823.13	27070
823.27	27112
823.41	26880
823.55	26956
823.69	26956
823.83	26899
823.97	26899
824.11	26773
824.25	26663
824.389	26792
824.529	26861
824.669	26853
824.809	26925
824.949	26895
825.089	27001
825.228	26887
825.368	26686
825.508	26765
825.648	26773
825.787	26788
825.927	26667
826.067	26659
826.206	26686
826.346	26758
826.485	26868
826.625	26781
826.765	26769
826.904	26811
827.044	26484
827.183	26453
827.323	26320
827.462	26545
827.601	26389
827.741	26309
827.88	26442
828.02	26339
828.159	26309
828.298	26518
828.437	26328
828.577	26389
828.716	26503
828.855	26301
828.994	26172
829.134	26229
829.273	26043
829.412	26122
829.551	26024
829.69	26100
829.829	26161
829.968	26183
830.107	26100
830.246	26012
830.385	26073
830.524	26008
830.663	25917
830.802	25803
830.941	25830
831.08	25689
831.219	25727
831.357	25871
831.496	25852
831.635	25708
831.774	25594
831.913	25620
832.051	25540
832.19	25411
832.329	25514
832.467	25441
832.606	25476
832.744	25479
832.883	25468
833.022	25441
833.16	25514
833.299	25411
833.437	25434
833.576	25483
833.714	25335
833.852	25449
833.991	25460
834.129	25601
834.267	25510
834.406	25377
834.544	25620
834.682	25548
834.821	25590
834.959	25700
835.097	25335
835.235	25479
835.373	25381
835.511	25502
835.65	25358
835.788	25327
835.926	25179
836.064	25179
836.202	25209
836.34	25339
836.478	25384
836.615	25263
836.753	25278
836.891	25312
837.029	25293
837.167	25255
837.305	25168
837.443	25247
837.58	25103
837.718	25141
837.856	25164
837.993	25103
838.131	25057
838.269	24894
838.406	25095
838.544	24951
838.681	24741
838.819	24798
838.956	24646
839.094	24551
839.231	24536
839.369	24776
839.506	24943
839.643	24764
839.781	24448
839.918	24433
840.055	24578
840.193	24563
840.33	24544
840.467	24528
840.604	24642
840.742	24700
840.879	24353
841.016	24361
841.153	24433
841.29	24608
841.427	24403
841.564	24391
841.701	24384
841.838	24369
841.975	24319
842.112	24384
842.249	24159
842.385	24300
842.522	24441
842.659	24281
842.796	24270
842.933	24205
843.069	24018
843.206	24087
843.343	24357
843.479	24163
843.616	24167
843.752	24041
843.889	24007
844.025	24133
844.162	23950
844.298	24041
844.435	24068
844.571	23923
844.708	24087
844.844	24197
844.98	24003
845.117	24140
845.253	23897
845.389	23760
845.525	23901
845.661	23798
845.798	23718
845.934	23813
846.07	23745
846.206	23695
846.342	23916
846.478	23733
846.614	23421
846.75	23398
846.886	23512
847.022	23471
847.158	23566
847.294	23341
847.429	23467
847.565	23383
847.701	23748
847.837	23200
847.972	23022
848.108	23178
848.244	23193
848.379	23041
848.515	23094
848.65	22938
848.786	23048
848.921	23086
849.057	23041
849.192	23086
849.328	23056
849.463	22957
849.598	23064
849.734	22900
849.869	22904
850.004	22816
850.14	22736
850.275	22645
850.41	22740
850.545	22854
850.68	22797
850.815	22869
850.95	22854
851.085	22965
851.22	22908
851.355	22771
851.49	22752
851.625	22809
851.76	22763
851.895	22713
852.03	22679
852.165	22786
852.299	22900
852.434	22949
852.569	22858
852.703	22786
852.838	22923
852.973	22911
853.107	22892
853.242	22774
853.376	22607
853.511	22512
853.645	22504
853.78	22782
853.914	22607
854.048	22481
854.183	22637
854.317	22831
854.451	22850
854.585	22554
854.72	22573
854.854	22611
854.988	22550
855.122	22736
855.256	22443
855.39	22729
855.524	22679
855.658	22668
855.792	22668
855.926	22634
856.06	22504
856.194	22577
856.327	22538
856.461	22577
856.595	22485
856.729	22645
856.862	22618
856.996	22577
857.13	22748
857.263	22816
857.397	22596
857.53	22630
857.664	22672
857.797	22607
857.931	22702
858.064	22512
858.197	22710
858.331	22531
858.464	22500
858.597	22577
858.731	22535
858.864	22565
858.997	22508
859.13	22672
859.263	22664
859.396	22588
859.529	22668
859.662	22618
859.795	22588
859.928	22622
860.061	22786
860.194	22805
860.327	22740
860.46	22683
860.592	22573
860.725	22717
860.858	22843
860.99	22664
861.123	22596
861.256	22607
861.388	22592
861.521	23436
861.653	22462
861.786	22379
861.918	22527
862.05	22440
862.183	22565
862.315	22550
862.447	22470
862.58	22481
862.712	22284
862.844	22337
862.976	22402
863.108	22272
863.24	22710
863.372	22181
863.504	22291
863.636	22306
863.768	22337
863.9	22287
864.032	22272
864.164	22196
864.296	22287
864.428	22409
864.559	22325
864.691	22280
864.823	22295
864.954	22204
865.086	22344
865.217	22177
865.349	22226
865.48	22272
865.612	22322
865.743	22379
865.875	22295
866.006	22169
866.137	22246
866.269	22181
866.4	22143
866.531	22207
866.662	22051
866.793	22051
866.924	22154
867.055	22166
867.186	22204
867.317	22135
867.448	21953
867.579	21956
867.71	22112
867.841	22109
867.972	22135
868.103	22044
868.233	22078
868.364	22078
868.495	22253
868.625	22367
868.756	22485
868.886	22166
869.017	22443
869.147	22459
869.278	22474
869.408	22337
869.539	22192
869.669	22371
869.799	22421
869.929	22413
870.06	22451
870.19	22630
870.32	22542
870.45	22641
870.58	22702
870.71	22710
870.84	22790
870.97	22729
871.1	22733
871.23	22961
871.36	22927
871.489	22786
871.619	22953
871.749	22790
871.879	22972
872.008	23083
872.138	22999
872.267	23010
872.397	22839
872.526	22774
872.656	22858
872.785	22755
872.915	22896
873.044	22995
873.173	22881
873.303	23071
873.432	23006
873.561	23105
873.69	22957
873.819	22847
873.948	23010
874.077	23022
874.206	22889
874.335	23086
874.464	23128
874.593	23204
874.722	23041
874.851	23220
874.979	23113
875.108	23254
875.237	23170
875.365	23102
875.494	23170
875.623	23265
875.751	23216
875.88	23246
876.008	23231
876.136	23307
876.265	23539
876.393	23657
876.521	23589
876.65	23600
876.778	23630
876.906	23341
877.034	23448
877.162	23566
877.29	23452
877.418	23467
877.546	23463
877.674	23524
877.802	23512
877.93	23471
878.058	23421
878.185	23444
878.313	23364
878.441	23448
878.568	23318
878.696	23414
878.824	23493
878.951	23570
879.079	23672
879.206	23752
879.333	23581
879.461	23547
879.588	23703
879.715	23646
879.842	23874
879.97	23493
880.097	23395
880.224	23296
880.351	23280
880.478	23318
880.605	23356
880.732	23379
880.859	23611
880.986	23326
881.112	23410
881.239	23018
881.366	23174
881.493	23003
881.619	22778
881.746	22869
881.872	22854
881.999	22790
882.125	22744
882.252	22816
882.378	22839
882.505	22949
882.631	22801
882.757	22546
882.883	22706
883.01	22630
883.136	22478
883.262	22398
883.388	22409
883.514	22573
883.64	22599
883.766	22527
883.892	22318
884.018	22485
884.143	22417
884.269	22535
884.395	22261
884.52	22006
884.646	22299
884.772	22150
884.897	22135
885.023	22207
885.148	22154
885.274	22325
885.399	22325
885.524	22310
885.65	22249
885.775	22067
885.9	22188
886.025	22234
886.15	22322
886.275	22112
886.4	22101
886.525	22097
886.65	22090
886.775	22226
886.9	22101
887.025	22322
887.149	22162
887.274	21899
887.399	21873
887.523	22010
887.648	21876
887.773	21804
887.897	21964
888.021	21953
888.146	21918
888.27	22059
888.395	22021
888.519	22090
888.643	21994
888.767	21968
888.891	21800
889.015	21732
889.139	21770
889.263	21705
889.387	21869
889.511	21892
889.635	21846
889.759	21663
889.883	21781
890.006	21709
890.13	21755
890.254	21606
890.377	21561
890.501	21488
890.624	21428
890.748	21530
890.871	21359
890.995	21386
891.118	21268
891.241	21264
891.364	21260
891.488	21336
891.611	21374
891.734	21386
891.857	21344
891.98	21302
892.103	21367
892.226	21180
892.349	21112
892.471	21108
892.594	21089
892.717	21260
892.839	21199
892.962	21066
893.085	21302
893.207	21138
893.33	21070
893.452	21009
893.575	21256
893.697	21055
893.819	21340
893.941	21275
894.064	21233
894.186	21077
894.308	21032
894.43	21176
894.552	21279
894.674	21279
894.796	21024
894.918	21116
895.04	21135
895.161	21214
895.283	21055
895.405	21062
895.526	21241
895.648	21161
895.769	21146
895.891	21199
896.012	21291
896.134	21195
896.255	21165
896.376	21043
896.498	21135
896.619	21256
896.74	21096
896.861	21226
896.982	21473
897.103	21603
897.224	21363
897.345	21329
897.466	21264
897.587	21389
897.708	21587
897.828	21321
897.949	21241
898.07	21192
898.19	21389
898.311	21553
898.431	21424
898.552	21351
898.672	21355
898.792	21298
898.913	21351
899.033	21180
899.153	21051
899.273	20941
899.393	21051
899.513	21077
899.633	21161
899.753	21135
899.873	20895
899.993	21100
900.113	21039
900.232	21184
900.352	21001
900.472	20876
900.591	20891
900.711	20880
900.83	20712
900.95	20826
901.069	20842
901.189	20686
901.308	20708
901.427	20427
901.546	20488
901.665	20526
901.784	20438
901.904	20275
902.023	20058
902.141	19902
902.26	19883
902.379	19902
902.498	19967
902.617	19974
902.735	19978
902.854	19807
902.973	19928
903.091	19552
903.21	19613
903.328	19571
903.446	19495
903.565	19331
903.683	19377
903.801	19316
903.919	19251
904.038	19304
904.156	19198
904.274	19133
904.392	19088
904.51	19103
904.627	19141
904.745	19084
904.863	19095
904.981	18840
905.098	18741
905.216	18719
905.334	18867
905.451	18802
905.569	18749
905.686	18821
905.803	18764
905.921	18738
906.038	18665
906.155	18616
906.272	18479
906.389	18528
906.506	18232
906.623	18342
906.74	18319
906.857	18201
906.974	18273
907.091	18433
907.208	18395
907.324	18372
907.441	18266
907.557	18045
907.674	17969
907.79	17980
907.907	18060
908.023	18106
908.139	18049
908.256	17935
908.372	17832
908.488	17775
908.604	17745
908.72	17615
908.836	17760
908.952	17714
909.068	17665
909.184	17813
909.3	17710
909.415	17627
909.531	17653
909.647	17440
909.762	17482
909.878	17497
909.993	17376
910.108	17402
910.224	17482
910.339	17349
910.454	17356
910.57	17288
910.685	17083
910.8	17368
910.915	17474
911.03	17246
911.145	17086
911.259	17041
911.374	17037
911.489	16911
911.604	16809
911.718	16805
911.833	16649
911.947	16691
912.062	16550
912.176	16835
912.291	16835
912.405	16740
912.519	16942
912.633	16831
912.748	16790
912.862	16717
912.976	16546
913.09	16481
913.204	16375
913.318	16546
913.431	16626
913.545	16558
913.659	16679
913.772	16656
913.886	16344
914	16265
914.113	16382
914.226	16417
914.34	16436
914.453	16200
914.566	16352
914.68	16162
914.793	16215
914.906	16059
915.019	15960
915.132	15789
915.245	15892
915.358	15895
915.47	15945
915.583	15903
915.696	15983
915.809	16002
915.921	16044
916.034	15915
916.146	15804
916.259	15873
916.371	15926
916.483	15819
916.595	15747
916.708	15694
916.82	15709
916.932	15660
917.044	15686
917.156	15732
917.268	15553
917.38	15534
917.491	15568
917.603	15545
917.715	15648
917.826	15656
917.938	15507
918.049	15386
918.161	15462
918.272	15698
918.384	15595
918.495	15412
918.606	15275
918.717	15207
918.828	15313
918.939	15283
919.05	15192
919.161	15256
919.272	15058
919.383	15074
919.494	15367
919.604	15477
919.715	15230
919.826	15256
919.936	15207
920.047	15264
920.157	15195
920.267	15424
920.378	15218
920.488	15222
920.598	15374
920.708	15603
920.818	15306
920.928	15321
921.038	15481
921.148	15500
921.258	15123
921.368	15062
921.477	14982
921.587	14910
921.697	14785
921.806	14880
921.916	14815
922.025	14705
922.134	14568
922.244	14545
922.353	14556
922.462	14461
922.571	14427
922.68	14263
922.789	14206
922.898	14161
923.007	14206
923.116	14286
923.224	14199
923.333	14145
923.442	14092
923.55	14031
923.659	14077
923.767	14020
923.876	13921
923.984	14046
924.092	13890
924.201	13967
924.309	13955
924.417	14005
924.525	13917
924.633	13894
924.741	14636
924.849	13636
924.956	13826
925.064	13681
925.172	13571
925.279	13567
925.387	13605
925.494	13620
925.602	13700
925.709	13685
925.816	13556
925.924	13480
926.031	13681
926.138	13476
926.245	13609
926.352	13388
926.459	13632
926.566	13643
926.673	13483
926.779	13312
926.886	13247
926.993	13228
927.099	13118
927.206	13076
927.312	13000
927.419	13175
927.525	13129
927.631	13110
927.737	13012
927.843	12943
927.95	12867
928.056	12981
928.162	12951
928.267	12947
928.373	13601
928.479	12993
928.585	12677
928.69	12897
928.796	12993
928.901	12791
929.007	12703
929.112	12825
929.218	12715
929.323	12802
929.428	12627
929.533	12806
929.638	12494
929.743	12532
929.848	12547
929.953	12620
930.058	12399
930.163	12338
930.267	12361
930.372	12471
930.477	12315
930.581	12574
930.685	12433
930.79	12342
930.894	12327
930.998	12159
931.103	12262
931.207	11996
931.311	11893
931.415	11786
931.519	11592
931.623	11573
