Data from test_V78500241_270.txt Node
Date: Fri Mar 25 15:43:40 CST 2022
User: usil
Spectrometer: V785-0024
Trigger mode: 0
Integration Time (sec): 4.000000E-1
Scans to average: 1
Nonlinearity correction enabled: false
Boxcar width: 0
Storing dark spectrum: false
XAxis mode: Wavelengths
Number of Pixels in Spectrum: 1024
>>>>>Begin Spectral Data<<<<<
801.071	29695
801.214	29619
801.356	29410
801.499	29509
801.641	29303
801.783	29364
801.926	29231
802.068	29246
802.211	29189
802.353	28923
802.496	29071
802.638	29018
802.78	28915
802.923	28824
803.065	28847
803.208	28717
803.35	28820
803.492	29025
803.635	29117
803.777	28999
803.919	29239
804.061	29402
804.204	29109
804.346	29124
804.488	29128
804.63	29037
804.773	29014
804.915	29094
805.057	29273
805.199	28942
805.341	29079
805.483	29128
805.626	29105
805.768	28984
805.91	29212
806.052	29284
806.194	29140
806.336	29520
806.478	29311
806.62	29124
806.762	29379
806.904	29455
807.046	29802
807.188	29668
807.33	29566
807.472	29566
807.614	29600
807.756	29668
807.898	29543
808.04	29277
808.182	29258
808.324	29299
808.465	29372
808.607	29630
808.749	29718
808.891	29920
809.033	29973
809.174	29882
809.316	29665
809.458	29779
809.6	29779
809.741	29851
809.883	29889
810.025	30178
810.166	30125
810.308	30270
810.45	30148
810.591	29980
810.733	29870
810.875	29893
811.016	29642
811.158	29634
811.299	30125
811.441	29958
811.582	29946
811.724	29840
811.865	29691
812.007	29680
812.148	29832
812.29	29802
812.431	29935
812.573	29977
812.714	30155
812.855	30270
812.997	30395
813.138	30551
813.279	30460
813.421	30319
813.562	30239
813.703	30011
813.845	30007
813.986	29714
814.127	29554
814.268	29615
814.41	29429
814.551	29433
814.692	29577
814.833	29391
814.974	29216
815.115	29440
815.256	29242
815.397	29170
815.539	29265
815.68	29235
815.821	29166
815.962	29220
816.103	29231
816.244	29060
816.385	28930
816.526	28980
816.666	28790
816.807	28622
816.948	28687
817.089	28805
817.23	28721
817.371	28577
817.512	28668
817.653	28679
817.793	28611
817.934	28656
818.075	28580
818.216	28516
818.356	28618
818.497	28527
818.638	28363
818.778	28246
818.919	28390
819.06	28451
819.2	28607
819.341	28618
819.481	28542
819.622	28782
819.762	28984
819.903	28824
820.043	28664
820.184	28687
820.324	28763
820.465	28790
820.605	28683
820.746	28763
820.886	28561
821.026	28721
821.167	28588
821.307	28736
821.447	28607
821.588	28447
821.728	28436
821.868	28185
822.008	28078
822.149	27945
822.289	28029
822.429	27922
822.569	27690
822.709	27580
822.849	27580
822.99	27526
823.13	27591
823.27	27355
823.41	27302
823.55	27203
823.69	27370
823.83	27355
823.97	27089
824.11	27108
824.25	27043
824.389	27214
824.529	27161
824.669	27142
824.809	27298
824.949	27070
825.089	27089
825.228	27150
825.368	27047
825.508	26834
825.648	26872
825.787	26910
825.927	26971
826.067	26864
826.206	26971
826.346	27051
826.485	27062
826.625	26921
826.765	27116
826.904	26971
827.044	26663
827.183	26849
827.323	26533
827.462	26667
827.601	26579
827.741	26469
827.88	26564
828.02	26438
828.159	26549
828.298	26697
828.437	26689
828.577	26526
828.716	26617
828.855	26446
828.994	26237
829.134	26305
829.273	26400
829.412	26275
829.551	26145
829.69	26290
829.829	26305
829.968	26221
830.107	26221
830.246	26336
830.385	26282
830.524	26100
830.663	26077
830.802	26012
830.941	25970
831.08	25856
831.219	25936
831.357	25978
831.496	26084
831.635	25864
831.774	25753
831.913	25677
832.051	25700
832.19	25685
832.329	25670
832.467	25590
832.606	25521
832.744	25479
832.883	25556
833.022	25441
833.16	25533
833.299	25502
833.437	25430
833.576	25552
833.714	25518
833.852	25757
833.991	25624
834.129	25529
834.267	25502
834.406	25479
834.544	25597
834.682	25491
834.821	25559
834.959	25655
835.097	25369
835.235	25499
835.373	25506
835.511	25468
835.65	25358
835.788	25354
835.926	25266
836.064	25110
836.202	25122
836.34	25304
836.478	25499
836.615	25373
836.753	25343
836.891	25430
837.029	25183
837.167	25266
837.305	25171
837.443	25053
837.58	25187
837.718	25259
837.856	25148
837.993	25168
838.131	25076
838.269	25000
838.406	25042
838.544	25023
838.681	24806
838.819	24715
838.956	24582
839.094	24559
839.231	24684
839.369	24646
839.506	24981
839.643	24848
839.781	24490
839.918	24426
840.055	24563
840.193	24422
840.33	24464
840.467	24452
840.604	24547
840.742	24719
840.879	24289
841.016	24365
841.153	24296
841.29	24532
841.427	24521
841.564	24479
841.701	24399
841.838	24251
841.975	24254
842.112	24361
842.249	24182
842.385	24163
842.522	24490
842.659	24129
842.796	24182
842.933	24232
843.069	24079
843.206	24015
843.343	24327
843.479	24068
843.616	24053
843.752	23954
843.889	23863
844.025	24060
844.162	23863
844.298	23996
844.435	23999
844.571	23821
844.708	23931
844.844	24102
844.98	23859
845.117	23870
845.253	23798
845.389	23710
845.525	23707
845.661	23691
845.798	23482
845.934	23615
846.07	23577
846.206	23684
846.342	23752
846.478	23482
846.614	23204
846.75	23444
846.886	23337
847.022	23341
847.158	23315
847.294	23303
847.429	23299
847.565	23216
847.701	23577
847.837	23155
847.972	23083
848.108	23086
848.244	23075
848.379	22915
848.515	23006
848.65	22892
848.786	22885
848.921	22980
849.057	22858
849.192	23010
849.328	22828
849.463	22835
849.598	22930
849.734	22805
849.869	22729
850.004	22634
850.14	22668
850.275	22679
850.41	22615
850.545	22569
850.68	22554
850.815	22656
850.95	22653
851.085	22748
851.22	22694
851.355	22713
851.49	22584
851.625	22599
851.76	22569
851.895	22561
852.03	22527
852.165	22478
852.299	22668
852.434	22546
852.569	22653
852.703	22660
852.838	22504
852.973	22729
853.107	22626
853.242	22493
853.376	22489
853.511	22348
853.645	22318
853.78	22500
853.914	22538
854.048	22409
854.183	22356
854.317	22550
854.451	22508
854.585	22447
854.72	22405
854.854	22481
854.988	22367
855.122	22443
855.256	22303
855.39	22504
855.524	22466
855.658	22360
855.792	22440
855.926	22447
856.06	22314
856.194	22478
856.327	22478
856.461	22428
856.595	22268
856.729	22417
856.862	22481
856.996	22402
857.13	22455
857.263	22550
857.397	22485
857.53	22432
857.664	22447
857.797	22527
857.931	22512
858.064	22363
858.197	22451
858.331	22299
858.464	22310
858.597	22238
858.731	22344
858.864	22246
858.997	22257
859.13	22314
859.263	22246
859.396	22405
859.529	22318
859.662	22257
859.795	22268
859.928	22348
860.061	22440
860.194	22592
860.327	22363
860.46	22333
860.592	22451
860.725	22462
860.858	22424
860.99	22394
861.123	22196
861.256	22097
861.388	22299
861.521	22999
861.653	22242
861.786	22215
861.918	22204
862.05	22306
862.183	22303
862.315	22341
862.447	22470
862.58	22413
862.712	22101
862.844	22143
862.976	22120
863.108	22090
863.24	22462
863.372	22044
863.504	22021
863.636	22181
863.768	22101
863.9	22021
864.032	21941
864.164	22010
864.296	22055
864.428	22074
864.559	22059
864.691	22093
864.823	21972
864.954	22002
865.086	21907
865.217	21838
865.349	21937
865.48	21892
865.612	21903
865.743	22032
865.875	21972
866.006	21907
866.137	21899
866.269	21941
866.4	21892
866.531	21854
866.662	21899
866.793	21892
866.924	21869
867.055	21823
867.186	21911
867.317	21808
867.448	21850
867.579	21732
867.71	21701
867.841	21770
867.972	22002
868.103	21873
868.233	21854
868.364	21854
868.495	21998
868.625	21937
868.756	22109
868.886	22036
869.017	22196
869.147	22109
869.278	22318
869.408	22112
869.539	22192
869.669	22261
869.799	22116
869.929	22276
870.06	22158
870.19	22379
870.32	22356
870.45	22318
870.58	22413
870.71	22660
870.84	22622
870.97	22474
871.1	22481
871.23	22599
871.36	22687
871.489	22618
871.619	22599
871.749	22706
871.879	22649
872.008	22858
872.138	22710
872.267	22660
872.397	22615
872.526	22459
872.656	22481
872.785	22508
872.915	22744
873.044	22706
873.173	22801
873.303	22767
873.432	22672
873.561	22721
873.69	22683
873.819	22797
873.948	22828
874.077	22691
874.206	22752
874.335	22641
874.464	22877
874.593	22881
874.722	22797
874.851	22862
874.979	22831
875.108	22877
875.237	22805
875.365	22873
875.494	22892
875.623	22972
875.751	22908
875.88	22999
876.008	23025
876.136	23018
876.265	23296
876.393	23467
876.521	23353
876.65	23368
876.778	23326
876.906	23227
877.034	23334
877.162	23239
877.29	23162
877.418	23345
877.546	23345
877.674	23277
877.802	23212
877.93	23303
878.058	23235
878.185	23132
878.313	23261
878.441	23193
878.568	23227
878.696	23242
878.824	23307
878.951	23501
879.079	23463
879.206	23554
879.333	23433
879.461	23341
879.588	23315
879.715	23376
879.842	23611
879.97	23337
880.097	23212
880.224	23098
880.351	23220
880.478	23189
880.605	23052
880.732	23147
880.859	23254
880.986	23022
881.112	23132
881.239	22953
881.366	22869
881.493	22729
881.619	22778
881.746	22706
881.872	22664
881.999	22691
882.125	22531
882.252	22683
882.378	22542
882.505	22672
882.631	22470
882.757	22432
882.883	22394
883.01	22333
883.136	22299
883.262	22192
883.388	22219
883.514	22417
883.64	22238
883.766	22306
883.892	22177
884.018	22048
884.143	22356
884.269	22360
884.395	22109
884.52	21949
884.646	21915
884.772	21846
884.897	21918
885.023	21956
885.148	22040
885.274	22093
885.399	21979
885.524	21975
885.65	22070
885.775	21926
885.9	21854
886.025	22097
886.15	22025
886.275	21873
886.4	21800
886.525	21911
886.65	21937
886.775	21827
886.9	22112
887.025	22188
887.149	21876
887.274	21701
887.399	21789
887.523	21698
887.648	21698
887.773	21610
887.897	21739
888.021	21823
888.146	21671
888.27	21724
888.395	21808
888.519	21774
888.643	21755
888.767	21751
888.891	21667
889.015	21580
889.139	21538
889.263	21397
889.387	21606
889.511	21686
889.635	21724
889.759	21523
889.883	21351
890.006	21507
890.13	21564
890.254	21526
890.377	21325
890.501	21302
890.624	21245
890.748	21268
890.871	21218
890.995	21108
891.118	21077
891.241	21089
891.364	21017
891.488	21195
891.611	21058
891.734	21028
891.857	21009
891.98	20979
892.103	20990
892.226	20986
892.349	21070
892.471	20902
892.594	20948
892.717	20952
892.839	20906
892.962	21020
893.085	21039
893.207	20952
893.33	20906
893.452	20872
893.575	21017
893.697	20853
893.819	21100
893.941	21214
894.064	21039
894.186	20826
894.308	20819
894.43	20975
894.552	21039
894.674	20979
894.796	20788
894.918	21009
895.04	20830
895.161	21077
895.283	20994
895.405	20937
895.526	20925
895.648	20807
895.769	21028
895.891	21017
896.012	21020
896.134	20963
896.255	20982
896.376	20967
896.498	20994
896.619	21043
896.74	20937
896.861	21043
896.982	21389
897.103	21439
897.224	21211
897.345	21199
897.466	21176
897.587	21173
897.708	21169
897.828	21176
897.949	21119
898.07	20952
898.19	21142
898.311	21180
898.431	21051
898.552	21116
898.672	21184
898.792	21264
898.913	21051
899.033	21013
899.153	20880
899.273	20758
899.393	20819
899.513	20804
899.633	20857
899.753	20765
899.873	20697
899.993	20906
900.113	20781
900.232	20731
900.352	20716
900.472	20568
900.591	20598
900.711	20545
900.83	20488
900.95	20773
901.069	20617
901.189	20431
901.308	20336
901.427	20065
901.546	20237
901.665	20210
901.784	20149
901.904	20043
902.023	19864
902.141	19746
902.26	19765
902.379	19647
902.498	19719
902.617	19609
902.735	19712
902.854	19605
902.973	19552
903.091	19365
903.21	19339
903.328	19316
903.446	19133
903.565	19057
903.683	19137
903.801	19107
903.919	19046
904.038	19088
904.156	18856
904.274	18966
904.392	18814
904.51	18833
904.627	18859
904.745	18791
904.863	18939
904.981	18612
905.098	18540
905.216	18536
905.334	18620
905.451	18646
905.569	18441
905.686	18509
905.803	18570
905.921	18304
906.038	18452
906.155	18289
906.272	18167
906.389	18201
906.506	18072
906.623	18041
906.74	18106
906.857	17927
906.974	17961
907.091	18026
907.208	18182
907.324	17939
907.441	17912
907.557	17813
907.674	17767
907.79	17707
907.907	17646
908.023	17684
908.139	17672
908.256	17642
908.372	17668
908.488	17497
908.604	17471
908.72	17425
908.836	17414
908.952	17345
909.068	17417
909.184	17581
909.3	17368
909.415	17509
909.531	17398
909.647	17090
909.762	17014
909.878	17109
909.993	17159
910.108	17086
910.224	17109
910.339	17147
910.454	16991
910.57	17003
910.685	16824
910.8	17181
910.915	17098
911.03	16968
911.145	16679
911.259	16622
911.374	16717
911.489	16702
911.604	16554
911.718	16485
911.833	16485
911.947	16447
912.062	16246
912.176	16432
912.291	16508
912.405	16424
912.519	16596
912.633	16626
912.748	16409
912.862	16390
912.976	16215
913.09	16101
913.204	16112
913.318	16196
913.431	16348
913.545	16295
913.659	16348
913.772	16181
913.886	16063
914	16048
914.113	16067
914.226	16169
914.34	16105
914.453	15949
914.566	15975
914.68	15831
914.793	15854
914.906	15789
915.019	15622
915.132	15614
915.245	15568
915.358	15622
915.47	15595
915.583	15599
915.696	15660
915.809	15679
915.921	15736
916.034	15538
916.146	15424
916.259	15431
916.371	15564
916.483	15519
916.595	15439
916.708	15481
916.82	15378
916.932	15393
917.044	15386
917.156	15249
917.268	15123
917.38	15268
917.491	15199
917.603	15241
917.715	15245
917.826	15306
917.938	15142
918.049	15104
918.161	15161
918.272	15340
918.384	15218
918.495	15226
918.606	15024
918.717	14895
918.828	14933
918.939	15081
919.05	14914
919.161	14895
919.272	14663
919.383	14864
919.494	14986
919.604	15154
919.715	14994
919.826	14838
919.936	14834
920.047	14941
920.157	14952
920.267	15074
920.378	15009
920.488	14857
920.598	15062
920.708	15192
920.818	15009
920.928	15104
921.038	15272
921.148	15119
921.258	14857
921.368	14788
921.477	14667
921.587	14541
921.697	14446
921.806	14617
921.916	14484
922.025	14259
922.134	14244
922.244	14180
922.353	14229
922.462	14187
922.571	14050
922.68	13928
922.789	13841
922.898	13856
923.007	13841
923.116	14024
923.224	13849
923.333	13909
923.442	13704
923.55	13693
923.659	13734
923.767	13727
923.876	13647
923.984	13769
924.092	13556
924.201	13636
924.309	13636
924.417	13677
924.525	13601
924.633	13548
924.741	14408
924.849	13358
924.956	13468
925.064	13335
925.172	13282
925.279	13244
925.387	13251
925.494	13209
925.602	13312
925.709	13362
925.816	13160
925.924	13175
926.031	13346
926.138	13198
926.245	13327
926.352	13103
926.459	13141
926.566	13247
926.673	13156
926.779	12962
926.886	13000
926.993	12909
927.099	12821
927.206	12764
927.312	12738
927.419	12787
927.525	12791
927.631	12863
927.737	12738
927.843	12639
927.95	12570
928.056	12639
928.162	12654
928.267	12604
928.373	13354
928.479	12665
928.585	12429
928.69	12555
928.796	12608
928.901	12486
929.007	12300
929.112	12483
929.218	12395
929.323	12365
929.428	12289
929.533	12391
929.638	12232
929.743	12350
929.848	12357
929.953	12292
930.058	12144
930.163	12003
930.267	12102
930.372	12129
930.477	11946
930.581	12220
930.685	12091
930.79	11904
930.894	11992
930.998	11893
931.103	11942
931.207	11646
931.311	11497
931.415	11444
931.519	11372
931.623	11242
