Data from test_V78500241_1576.txt Node
Date: Fri Mar 25 15:52:43 CST 2022
User: usil
Spectrometer: V785-0024
Trigger mode: 0
Integration Time (sec): 4.000000E-1
Scans to average: 1
Nonlinearity correction enabled: false
Boxcar width: 0
Storing dark spectrum: false
XAxis mode: Wavelengths
Number of Pixels in Spectrum: 1024
>>>>>Begin Spectral Data<<<<<
801.071	28002
801.214	28002
801.356	27755
801.499	27625
801.641	27690
801.783	27530
801.926	27705
802.068	27519
802.211	27454
802.353	27454
802.496	27427
802.638	27184
802.78	27321
802.923	27245
803.065	27184
803.208	27154
803.35	27340
803.492	27310
803.635	27439
803.777	27348
803.919	27367
804.061	27774
804.204	27340
804.346	27427
804.488	27397
804.63	27542
804.773	27389
804.915	27492
805.057	27526
805.199	27431
805.341	27500
805.483	27618
805.626	27675
805.768	27488
805.91	27739
806.052	27686
806.194	27637
806.336	27713
806.478	27781
806.62	27739
806.762	27724
806.904	27812
807.046	27945
807.188	28082
807.33	28040
807.472	28158
807.614	27850
807.756	27991
807.898	27918
808.04	27819
808.182	27975
808.324	27960
808.465	27994
808.607	28166
808.749	28261
808.891	28344
809.033	28440
809.174	28287
809.316	28265
809.458	28234
809.6	28188
809.741	28428
809.883	28382
810.025	28535
810.166	28436
810.308	28580
810.45	28512
810.591	28550
810.733	28303
810.875	28268
811.016	28268
811.158	28230
811.299	28276
811.441	28363
811.582	28462
811.724	28341
811.865	28280
812.007	28215
812.148	28287
812.29	28352
812.431	28504
812.573	28618
812.714	28816
812.855	28668
812.997	28877
813.138	29056
813.279	29014
813.421	28881
813.562	28691
813.703	28550
813.845	28694
813.986	28215
814.127	28162
814.268	28017
814.41	28010
814.551	27934
814.692	28055
814.833	27941
814.974	27926
815.115	28067
815.256	27774
815.397	27937
815.539	27857
815.68	27846
815.821	27660
815.962	27701
816.103	27603
816.244	27663
816.385	27633
816.526	27538
816.666	27370
816.807	27291
816.948	27473
817.089	27291
817.23	27275
817.371	27283
817.512	27332
817.653	27245
817.793	27142
817.934	27146
818.075	27272
818.216	27275
818.356	27222
818.497	27150
818.638	27024
818.778	27039
818.919	27100
819.06	27009
819.2	27226
819.341	27397
819.481	27325
819.622	27397
819.762	27728
819.903	27561
820.043	27424
820.184	27405
820.324	27264
820.465	27458
820.605	27332
820.746	27302
820.886	27233
821.026	27306
821.167	27443
821.307	27321
821.447	27321
821.588	27218
821.728	27043
821.868	26960
822.008	26693
822.149	26785
822.289	26796
822.429	26355
822.569	26484
822.709	26393
822.849	26107
822.99	26336
823.13	26218
823.27	26111
823.41	26065
823.55	25947
823.69	26202
823.83	26153
823.97	26134
824.11	25868
824.25	25788
824.389	25704
824.529	25890
824.669	25887
824.809	25917
824.949	25875
825.089	25940
825.228	25894
825.368	25822
825.508	25887
825.648	25708
825.787	25803
825.927	25776
826.067	25734
826.206	25833
826.346	25734
826.485	25791
826.625	25807
826.765	25841
826.904	25693
827.044	25529
827.183	25578
827.323	25529
827.462	25487
827.601	25476
827.741	25605
827.88	25571
828.02	25335
828.159	25483
828.298	25434
828.437	25540
828.577	25438
828.716	25460
828.855	25384
828.994	25160
829.134	25031
829.273	25194
829.412	25122
829.551	25206
829.69	25084
829.829	25202
829.968	25266
830.107	25247
830.246	25099
830.385	25129
830.524	25019
830.663	25000
830.802	24894
830.941	24779
831.08	24688
831.219	24913
831.357	24863
831.496	24909
831.635	24753
831.774	24707
831.913	24719
832.051	24578
832.19	24544
832.329	24627
832.467	24448
832.606	24403
832.744	24448
832.883	24479
833.022	24414
833.16	24372
833.299	24536
833.437	24448
833.576	24475
833.714	24445
833.852	24528
833.991	24612
834.129	24654
834.267	24559
834.406	24456
834.544	24486
834.682	24445
834.821	24414
834.959	24646
835.097	24433
835.235	24433
835.373	24532
835.511	24464
835.65	24281
835.788	24308
835.926	24167
836.064	24129
836.202	24281
836.34	24239
836.478	24437
836.615	24273
836.753	24342
836.891	24399
837.029	24380
837.167	24220
837.305	24308
837.443	24190
837.58	24190
837.718	24163
837.856	24174
837.993	24129
838.131	24102
838.269	24098
838.406	24125
838.544	24038
838.681	23912
838.819	23866
838.956	23493
839.094	23566
839.231	23646
839.369	23824
839.506	24038
839.643	23946
839.781	23634
839.918	23543
840.055	23566
840.193	23630
840.33	23573
840.467	23596
840.604	23638
840.742	23805
840.879	23448
841.016	23596
841.153	23417
841.29	23547
841.427	23539
841.564	23596
841.701	23585
841.838	23585
841.975	23474
842.112	23501
842.249	23337
842.385	23288
842.522	23570
842.659	23455
842.796	23334
842.933	23292
843.069	23273
843.206	23212
843.343	23349
843.479	23368
843.616	23299
843.752	23102
843.889	23220
844.025	23303
844.162	23105
844.298	23143
844.435	23136
844.571	23029
844.708	23109
844.844	23269
844.98	23353
845.117	23174
845.253	23155
845.389	23010
845.525	22828
845.661	22881
845.798	22710
845.934	22816
846.07	22774
846.206	22843
846.342	22858
846.478	22862
846.614	22611
846.75	22497
846.886	22276
847.022	22694
847.158	22653
847.294	22557
847.429	22542
847.565	22675
847.701	22778
847.837	22402
847.972	22249
848.108	22306
848.244	22409
848.379	22131
848.515	22021
848.65	22021
848.786	22101
848.921	22219
849.057	22306
849.192	22204
849.328	22215
849.463	22139
849.598	22158
849.734	22059
849.869	21964
850.004	22013
850.14	21941
850.275	21937
850.41	21842
850.545	21945
850.68	21804
850.815	21983
850.95	21922
851.085	22013
851.22	21918
851.355	21949
851.49	21880
851.625	21895
851.76	21861
851.895	21960
852.03	21827
852.165	21937
852.299	21956
852.434	22021
852.569	21949
852.703	21922
852.838	22029
852.973	22074
853.107	22040
853.242	21861
853.376	21854
853.511	21694
853.645	21694
853.78	21895
853.914	21778
854.048	21717
854.183	21759
854.317	21747
854.451	21880
854.585	21816
854.72	21793
854.854	21869
854.988	21743
855.122	21690
855.256	21698
855.39	21694
855.524	21831
855.658	21778
855.792	21751
855.926	21671
856.06	21724
856.194	21854
856.327	21785
856.461	21781
856.595	21709
856.729	21804
856.862	21899
856.996	21880
857.13	21899
857.263	21903
857.397	21816
857.53	21724
857.664	21812
857.797	21755
857.931	21819
858.064	21682
858.197	21895
858.331	21850
858.464	21709
858.597	21606
858.731	21762
858.864	21652
858.997	21835
859.13	21785
859.263	21606
859.396	21812
859.529	21686
859.662	21724
859.795	21743
859.928	21698
860.061	21819
860.194	21926
860.327	21800
860.46	21770
860.592	21941
860.725	21793
860.858	21846
860.99	21759
861.123	21686
861.256	21728
861.388	21755
861.521	22356
861.653	21690
861.786	21660
861.918	21633
862.05	21679
862.183	21701
862.315	21808
862.447	21755
862.58	21595
862.712	21504
862.844	21431
862.976	21614
863.108	21530
863.24	21892
863.372	21363
863.504	21485
863.636	21561
863.768	21428
863.9	21504
864.032	21351
864.164	21511
864.296	21450
864.428	21603
864.559	21485
864.691	21629
864.823	21416
864.954	21439
865.086	21466
865.217	21412
865.349	21256
865.48	21325
865.612	21397
865.743	21469
865.875	21298
866.006	21245
866.137	21469
866.269	21393
866.4	21374
866.531	21317
866.662	21313
866.793	21252
866.924	21332
867.055	21401
867.186	21237
867.317	21317
867.448	21214
867.579	21245
867.71	21211
867.841	21112
867.972	21408
868.103	21245
868.233	21199
868.364	21321
868.495	21218
868.625	21526
868.756	21580
868.886	21492
869.017	21542
869.147	21561
869.278	21580
869.408	21469
869.539	21534
869.669	21591
869.799	21542
869.929	21701
870.06	21606
870.19	21816
870.32	21732
870.45	21728
870.58	21895
870.71	22063
870.84	21994
870.97	21968
871.1	21892
871.23	22150
871.36	22116
871.489	21949
871.619	22147
871.749	22253
871.879	22093
872.008	22230
872.138	22158
872.267	22219
872.397	21941
872.526	21956
872.656	22036
872.785	21789
872.915	22200
873.044	22333
873.173	22173
873.303	22173
873.432	22219
873.561	22188
873.69	22105
873.819	22154
873.948	22265
874.077	22169
874.206	22223
874.335	22196
874.464	22299
874.593	22379
874.722	22341
874.851	22386
874.979	22249
875.108	22447
875.237	22318
875.365	22234
875.494	22455
875.623	22386
875.751	22318
875.88	22421
876.008	22443
876.136	22455
876.265	22793
876.393	22847
876.521	22786
876.65	22976
876.778	22820
876.906	22706
877.034	22740
877.162	22759
877.29	22584
877.418	22843
877.546	22801
877.674	22622
877.802	22710
877.93	22729
878.058	22611
878.185	22599
878.313	22691
878.441	22630
878.568	22447
878.696	22580
878.824	22683
878.951	22767
879.079	22847
879.206	23022
879.333	22797
879.461	22824
879.588	22877
879.715	22774
879.842	23094
879.97	22748
880.097	22561
880.224	22489
880.351	22527
880.478	22588
880.605	22535
880.732	22577
880.859	22752
880.986	22512
881.112	22531
881.239	22352
881.366	22413
881.493	22082
881.619	22173
881.746	22124
881.872	22150
881.999	22006
882.125	22162
882.252	22063
882.378	22105
882.505	22166
882.631	22074
882.757	21747
882.883	21846
883.01	21861
883.136	21732
883.262	21705
883.388	21583
883.514	21717
883.64	21869
883.766	21736
883.892	21466
884.018	21698
884.143	21724
884.269	21682
884.395	21515
884.52	21450
884.646	21443
884.772	21439
884.897	21317
885.023	21397
885.148	21583
885.274	21534
885.399	21553
885.524	21428
885.65	21439
885.775	21534
885.9	21477
886.025	21500
886.15	21587
886.275	21336
886.4	21306
886.525	21405
886.65	21420
886.775	21405
886.9	21587
887.025	21603
887.149	21355
887.274	21264
887.399	21249
887.523	21241
887.648	21146
887.773	21184
887.897	21211
888.021	21222
888.146	21001
888.27	21393
888.395	21207
888.519	21272
888.643	21252
888.767	21294
888.891	21085
889.015	20975
889.139	21032
889.263	20925
889.387	20998
889.511	21138
889.635	21104
889.759	21013
889.883	20921
890.006	20956
890.13	21077
890.254	20906
890.377	20921
890.501	20724
890.624	20716
890.748	20868
890.871	20598
890.995	20530
891.118	20575
891.241	20655
891.364	20552
891.488	20663
891.611	20507
891.734	20495
891.857	20609
891.98	20564
892.103	20552
892.226	20617
892.349	20419
892.471	20263
892.594	20495
892.717	20541
892.839	20499
892.962	20442
893.085	20484
893.207	20362
893.33	20347
893.452	20343
893.575	20473
893.697	20427
893.819	20545
893.941	20693
894.064	20609
894.186	20381
894.308	20332
894.43	20442
894.552	20617
894.674	20473
894.796	20370
894.918	20396
895.04	20366
895.161	20587
895.283	20511
895.405	20412
895.526	20503
895.648	20431
895.769	20442
895.891	20393
896.012	20511
896.134	20476
896.255	20419
896.376	20408
896.498	20419
896.619	20530
896.74	20522
896.861	20457
896.982	20785
897.103	20948
897.224	20670
897.345	20769
897.466	20549
897.587	20537
897.708	20731
897.828	20724
897.949	20644
898.07	20473
898.19	20602
898.311	20678
898.431	20609
898.552	20682
898.672	20708
898.792	20769
898.913	20644
899.033	20541
899.153	20446
899.273	20427
899.393	20404
899.513	20492
899.633	20374
899.753	20450
899.873	20400
899.993	20503
900.113	20400
900.232	20381
900.352	20351
900.472	20202
900.591	20115
900.711	20237
900.83	20202
900.95	20218
901.069	20267
901.189	20031
901.308	19753
901.427	19712
901.546	19799
901.665	19765
901.784	19742
901.904	19635
902.023	19594
902.141	19430
902.26	19179
902.379	19289
902.498	19225
902.617	19213
902.735	19354
902.854	19327
902.973	19148
903.091	18958
903.21	18935
903.328	18932
903.446	18821
903.565	18825
903.683	18779
903.801	18776
903.919	18681
904.038	18665
904.156	18479
904.274	18665
904.392	18536
904.51	18346
904.627	18506
904.745	18498
904.863	18479
904.981	18334
905.098	18159
905.216	18220
905.334	18079
905.451	18155
905.569	18144
905.686	18277
905.803	18228
905.921	17977
906.038	18041
906.155	18026
906.272	17824
906.389	17912
906.506	17695
906.623	17687
906.74	17611
906.857	17566
906.974	17604
907.091	17866
907.208	17748
907.324	17623
907.441	17539
907.557	17376
907.674	17425
907.79	17356
907.907	17334
908.023	17402
908.139	17406
908.256	17379
908.372	17254
908.488	17353
908.604	17086
908.72	17060
908.836	17060
908.952	17162
909.068	17166
909.184	17151
909.3	17094
909.415	17121
909.531	17105
909.647	16976
909.762	16828
909.878	16862
909.993	16843
910.108	16778
910.224	16755
910.339	16824
910.454	16763
910.57	16698
910.685	16645
910.8	16854
910.915	16820
911.03	16675
911.145	16538
911.259	16443
911.374	16402
911.489	16386
911.604	16192
911.718	16093
911.833	16196
911.947	16135
912.062	15991
912.176	16109
912.291	16181
912.405	16154
912.519	16363
912.633	16280
912.748	16196
912.862	16074
912.976	16059
913.09	15842
913.204	15949
913.318	16036
913.431	16101
913.545	16017
913.659	15972
913.772	15899
913.886	15800
914	15667
914.113	15762
914.226	15895
914.34	15857
914.453	15652
914.566	15831
914.68	15759
914.793	15618
914.906	15473
915.019	15321
915.132	15367
915.245	15454
915.358	15428
915.47	15389
915.583	15428
915.696	15431
915.809	15523
915.921	15523
916.034	15252
916.146	15294
916.259	15279
916.371	15378
916.483	15348
916.595	15218
916.708	15218
916.82	15146
916.932	15260
917.044	15180
917.156	15222
917.268	14971
917.38	15047
917.491	14986
917.603	15062
917.715	15013
917.826	15142
917.938	14899
918.049	14899
918.161	14952
918.272	15127
918.384	15173
918.495	14994
918.606	14800
918.717	14750
918.828	14830
918.939	14849
919.05	14781
919.161	14823
919.272	14442
919.383	14602
919.494	14834
919.604	15043
919.715	14811
919.826	14632
919.936	14811
920.047	14845
920.157	14864
920.267	14921
920.378	14785
920.488	14804
920.598	14998
920.708	15093
920.818	14765
920.928	14918
921.038	15161
921.148	15051
921.258	14667
921.368	14682
921.477	14556
921.587	14431
921.697	14362
921.806	14465
921.916	14370
922.025	14244
922.134	14195
922.244	14035
922.353	14225
922.462	14050
922.571	13932
922.68	13788
922.789	13689
922.898	13788
923.007	13693
923.116	13845
923.224	13795
923.333	13704
923.442	13670
923.55	13628
923.659	13639
923.767	13715
923.876	13613
923.984	13651
924.092	13472
924.201	13559
924.309	13491
924.417	13537
924.525	13483
924.633	13430
924.741	14377
924.849	13346
924.956	13362
925.064	13247
925.172	13183
925.279	13175
925.387	13251
925.494	13183
925.602	13362
925.709	13221
925.816	13103
925.924	13110
926.031	13149
926.138	13175
926.245	13137
926.352	13065
926.459	13221
926.566	13183
926.673	13023
926.779	12924
926.886	13004
926.993	12741
927.099	12833
927.206	12662
927.312	12707
927.419	12768
927.525	12711
927.631	12711
927.737	12665
927.843	12570
927.95	12566
928.056	12486
928.162	12544
928.267	12616
928.373	13259
928.479	12593
928.585	12422
928.69	12578
928.796	12536
928.901	12403
929.007	12315
929.112	12395
929.218	12369
929.323	12323
929.428	12296
929.533	12361
929.638	12273
929.743	12171
929.848	12296
929.953	12152
930.058	12098
930.163	11950
930.267	11965
930.372	12022
930.477	11969
930.581	12049
930.685	11999
930.79	11923
930.894	11859
930.998	11870
931.103	11912
931.207	11577
931.311	11444
931.415	11433
931.519	11296
931.623	11220
