Data from test_V78500241_802.txt Node
Date: Fri Mar 25 15:47:21 CST 2022
User: usil
Spectrometer: V785-0024
Trigger mode: 0
Integration Time (sec): 4.000000E-1
Scans to average: 1
Nonlinearity correction enabled: false
Boxcar width: 0
Storing dark spectrum: false
XAxis mode: Wavelengths
Number of Pixels in Spectrum: 1024
>>>>>Begin Spectral Data<<<<<
801.071	28192
801.214	28143
801.356	27895
801.499	27835
801.641	27671
801.783	27800
801.926	27850
802.068	27728
802.211	27622
802.353	27629
802.496	27420
802.638	27310
802.78	27469
802.923	27344
803.065	27287
803.208	27412
803.35	27401
803.492	27268
803.635	27660
803.777	27458
803.919	27603
804.061	27876
804.204	27732
804.346	27545
804.488	27595
804.63	27504
804.773	27511
804.915	27713
805.057	27675
805.199	27793
805.341	27667
805.483	27724
805.626	27720
805.768	27656
805.91	27838
806.052	27694
806.194	27572
806.336	27960
806.478	27808
806.62	27800
806.762	27785
806.904	28021
807.046	28299
807.188	28090
807.33	28097
807.472	28204
807.614	27998
807.756	28147
807.898	27994
808.04	27922
808.182	27968
808.324	28029
808.465	28086
808.607	28261
808.749	28516
808.891	28649
809.033	28497
809.174	28474
809.316	28401
809.458	28512
809.6	28440
809.741	28436
809.883	28565
810.025	28645
810.166	28793
810.308	28733
810.45	28736
810.591	28691
810.733	28497
810.875	28367
811.016	28329
811.158	28314
811.299	28527
811.441	28519
811.582	28523
811.724	28432
811.865	28493
812.007	28542
812.148	28394
812.29	28409
812.431	28653
812.573	28908
812.714	28854
812.855	28915
812.997	28995
813.138	29242
813.279	29181
813.421	29006
813.562	28793
813.703	28831
813.845	28637
813.986	28443
814.127	28280
814.268	28120
814.41	28226
814.551	28135
814.692	28223
814.833	28105
814.974	28086
815.115	28200
815.256	28101
815.397	27914
815.539	27922
815.68	27831
815.821	27873
815.962	27884
816.103	27991
816.244	27857
816.385	27739
816.526	27747
816.666	27504
816.807	27405
816.948	27572
817.089	27618
817.23	27431
817.371	27481
817.512	27378
817.653	27397
817.793	27310
817.934	27526
818.075	27416
818.216	27466
818.356	27412
818.497	27412
818.638	27222
818.778	27203
818.919	27093
819.06	27116
819.2	27340
819.341	27443
819.481	27420
819.622	27629
819.762	27808
819.903	27823
820.043	27610
820.184	27576
820.324	27515
820.465	27751
820.605	27652
820.746	27500
820.886	27431
821.026	27625
821.167	27382
821.307	27477
821.447	27504
821.588	27397
821.728	27211
821.868	26967
822.008	27017
822.149	26990
822.289	26781
822.429	26651
822.569	26545
822.709	26606
822.849	26370
822.99	26514
823.13	26336
823.27	26282
823.41	26271
823.55	26020
823.69	26278
823.83	26358
823.97	26122
824.11	26069
824.25	26012
824.389	25993
824.529	26172
824.669	26107
824.809	26161
824.949	26225
825.089	26092
825.228	26012
825.368	25887
825.508	25887
825.648	25894
825.787	26001
825.927	26008
826.067	25913
826.206	25868
826.346	26012
826.485	25928
826.625	25936
826.765	25936
826.904	26031
827.044	25651
827.183	25597
827.323	25616
827.462	25731
827.601	25712
827.741	25658
827.88	25582
828.02	25632
828.159	25525
828.298	25594
828.437	25658
828.577	25529
828.716	25723
828.855	25438
828.994	25339
829.134	25350
829.273	25479
829.412	25247
829.551	25225
829.69	25434
829.829	25468
829.968	25537
830.107	25278
830.246	25274
830.385	25278
830.524	25388
830.663	25057
830.802	25145
830.941	25019
831.08	25031
831.219	25019
831.357	24951
831.496	25251
831.635	24977
831.774	24833
831.913	24787
832.051	24825
832.19	24661
832.329	24867
832.467	24532
832.606	24677
832.744	24566
832.883	24703
833.022	24608
833.16	24563
833.299	24703
833.437	24707
833.576	24711
833.714	24620
833.852	24753
833.991	24825
834.129	24802
834.267	24901
834.406	24833
834.544	24783
834.682	24696
834.821	24616
834.959	24989
835.097	24582
835.235	24852
835.373	24681
835.511	24734
835.65	24661
835.788	24620
835.926	24334
836.064	24361
836.202	24395
836.34	24578
836.478	24760
836.615	24566
836.753	24563
836.891	24559
837.029	24555
837.167	24544
837.305	24372
837.443	24384
837.58	24327
837.718	24525
837.856	24445
837.993	24296
838.131	24323
838.269	24308
838.406	24342
838.544	24140
838.681	24064
838.819	23980
838.956	23760
839.094	23824
839.231	23984
839.369	23999
839.506	24391
839.643	24087
839.781	23935
839.918	23767
840.055	23832
840.193	23802
840.33	23726
840.467	23767
840.604	23775
840.742	24049
840.879	23623
841.016	23573
841.153	23547
841.29	23931
841.427	23699
841.564	23726
841.701	23756
841.838	23577
841.975	23638
842.112	23699
842.249	23596
842.385	23547
842.522	23760
842.659	23577
842.796	23524
842.933	23433
843.069	23463
843.206	23471
843.343	23596
843.479	23505
843.616	23585
843.752	23204
843.889	23303
844.025	23493
844.162	23284
844.298	23414
844.435	23292
844.571	23189
844.708	23307
844.844	23444
844.98	23463
845.117	23379
845.253	23174
845.389	23231
845.525	23212
845.661	23094
845.798	23090
845.934	23060
846.07	22953
846.206	22942
846.342	23296
846.478	22866
846.614	22862
846.75	22615
846.886	22805
847.022	22793
847.158	22645
847.294	22873
847.429	22752
847.565	22740
847.701	23010
847.837	22538
847.972	22329
848.108	22550
848.244	22580
848.379	22455
848.515	22303
848.65	22394
848.786	22352
848.921	22306
849.057	22424
849.192	22207
849.328	22337
849.463	22318
849.598	22322
849.734	22226
849.869	22211
850.004	22143
850.14	22021
850.275	22105
850.41	22147
850.545	21915
850.68	22074
850.815	21998
850.95	22032
851.085	22341
851.22	22215
851.355	22090
851.49	22086
851.625	22021
851.76	22021
851.895	22006
852.03	21949
852.165	22029
852.299	22101
852.434	22177
852.569	22109
852.703	22105
852.838	22329
852.973	22249
853.107	22188
853.242	22040
853.376	21861
853.511	21838
853.645	21953
853.78	22048
853.914	21930
854.048	21869
854.183	21694
854.317	21907
854.451	21998
854.585	21766
854.72	21865
854.854	22105
854.988	21804
855.122	21861
855.256	21819
855.39	21888
855.524	21945
855.658	21831
855.792	21975
855.926	21892
856.06	22059
856.194	21926
856.327	21876
856.461	21842
856.595	21895
856.729	21888
856.862	21930
856.996	21979
857.13	21808
857.263	22036
857.397	22063
857.53	21861
857.664	21876
857.797	21949
857.931	22032
858.064	21838
858.197	21991
858.331	21759
858.464	21709
858.597	21793
858.731	21926
858.864	21937
858.997	21808
859.13	21949
859.263	21945
859.396	22025
859.529	21736
859.662	21926
859.795	21751
859.928	22048
860.061	22040
860.194	22112
860.327	22010
860.46	21842
860.592	21964
860.725	21994
860.858	22055
860.99	21869
861.123	21751
861.256	21930
861.388	21793
861.521	22466
861.653	21766
861.786	21793
861.918	21808
862.05	21682
862.183	21903
862.315	21895
862.447	21895
862.58	21876
862.712	21606
862.844	21667
862.976	21648
863.108	21530
863.24	22078
863.372	21663
863.504	21660
863.636	21477
863.768	21743
863.9	21660
864.032	21580
864.164	21618
864.296	21648
864.428	21747
864.559	21583
864.691	21629
864.823	21622
864.954	21614
865.086	21481
865.217	21477
865.349	21526
865.48	21485
865.612	21450
865.743	21618
865.875	21477
866.006	21496
866.137	21500
866.269	21549
866.4	21523
866.531	21416
866.662	21287
866.793	21310
866.924	21435
867.055	21507
867.186	21412
867.317	21416
867.448	21260
867.579	21230
867.71	21313
867.841	21351
867.972	21412
868.103	21386
868.233	21424
868.364	21351
868.495	21507
868.625	21614
868.756	21701
868.886	21580
869.017	21625
869.147	21682
869.278	21846
869.408	21606
869.539	21701
869.669	21743
869.799	21717
869.929	21728
870.06	21762
870.19	21994
870.32	21873
870.45	21972
870.58	22074
870.71	22162
870.84	22112
870.97	22188
871.1	22044
871.23	22234
871.36	22341
871.489	22257
871.619	22280
871.749	22329
871.879	22398
872.008	22276
872.138	22375
872.267	22268
872.397	22169
872.526	22082
872.656	22025
872.785	22162
872.915	22306
873.044	22306
873.173	22280
873.303	22348
873.432	22382
873.561	22421
873.69	22341
873.819	22306
873.948	22329
874.077	22318
874.206	22253
874.335	22253
874.464	22363
874.593	22618
874.722	22462
874.851	22599
874.979	22588
875.108	22493
875.237	22421
875.365	22538
875.494	22306
875.623	22668
875.751	22451
875.88	22462
876.008	22561
876.136	22577
876.265	22820
876.393	23037
876.521	22896
876.65	22987
876.778	22885
876.906	22748
877.034	22896
877.162	22771
877.29	22744
877.418	22885
877.546	22774
877.674	22862
877.802	22694
877.93	22866
878.058	22767
878.185	22744
878.313	22820
878.441	22702
878.568	22702
878.696	22710
878.824	22805
878.951	22854
879.079	23014
879.206	23041
879.333	23022
879.461	22957
879.588	22949
879.715	22976
879.842	23113
879.97	22904
880.097	22630
880.224	22481
880.351	22713
880.478	22649
880.605	22649
880.732	22778
880.859	22923
880.986	22687
881.112	22778
881.239	22569
881.366	22246
881.493	22348
881.619	22181
881.746	22291
881.872	22204
881.999	22246
882.125	22086
882.252	22234
882.378	22230
882.505	22333
882.631	22063
882.757	21930
882.883	21975
883.01	22021
883.136	21827
883.262	21797
883.388	21793
883.514	21895
883.64	21903
883.766	21876
883.892	21759
884.018	21679
884.143	21797
884.269	21884
884.395	21694
884.52	21549
884.646	21622
884.772	21511
884.897	21511
885.023	21625
885.148	21633
885.274	21652
885.399	21717
885.524	21545
885.65	21587
885.775	21523
885.9	21545
886.025	21523
886.15	21622
886.275	21466
886.4	21580
886.525	21469
886.65	21401
886.775	21526
886.9	21633
887.025	21793
887.149	21572
887.274	21454
887.399	21363
887.523	21317
887.648	21287
887.773	21287
887.897	21462
888.021	21348
888.146	21211
888.27	21443
888.395	21500
888.519	21245
888.643	21298
888.767	21359
888.891	21389
889.015	21146
889.139	21131
889.263	21085
889.387	21192
889.511	21245
889.635	21264
889.759	21165
889.883	21169
890.006	21131
890.13	21237
890.254	21077
890.377	21104
890.501	20807
890.624	20746
890.748	20868
890.871	20667
890.995	20758
891.118	20651
891.241	20838
891.364	20724
891.488	20785
891.611	20609
891.734	20716
891.857	20686
891.98	20735
892.103	20667
892.226	20815
892.349	20545
892.471	20442
892.594	20590
892.717	20693
892.839	20621
892.962	20621
893.085	20640
893.207	20530
893.33	20362
893.452	20415
893.575	20651
893.697	20533
893.819	20663
893.941	20842
894.064	20807
894.186	20393
894.308	20503
894.43	20682
894.552	20701
894.674	20606
894.796	20370
894.918	20579
895.04	20514
895.161	20716
895.283	20556
895.405	20442
895.526	20560
895.648	20594
895.769	20454
895.891	20495
896.012	20659
896.134	20545
896.255	20579
896.376	20419
896.498	20590
896.619	20697
896.74	20606
896.861	20644
896.982	20819
897.103	20944
897.224	20906
897.345	20880
897.466	20705
897.587	20739
897.708	20933
897.828	20952
897.949	20777
898.07	20606
898.19	20693
898.311	20864
898.431	20762
898.552	20720
898.672	20697
898.792	20804
898.913	20792
899.033	20632
899.153	20621
899.273	20412
899.393	20465
899.513	20648
899.633	20488
899.753	20549
899.873	20362
899.993	20545
900.113	20476
900.232	20488
900.352	20404
900.472	20404
900.591	20191
900.711	20374
900.83	20218
900.95	20332
901.069	20282
901.189	20111
901.308	20035
901.427	19890
901.546	19731
901.665	19845
901.784	19887
901.904	19696
902.023	19613
902.141	19430
902.26	19445
902.379	19521
902.498	19449
902.617	19343
902.735	19400
902.854	19206
902.973	19324
903.091	19046
903.21	19038
903.328	18954
903.446	19019
903.565	18757
903.683	18757
903.801	18757
903.919	18722
904.038	18817
904.156	18521
904.274	18578
904.392	18566
904.51	18494
904.627	18779
904.745	18658
904.863	18555
904.981	18376
905.098	18148
905.216	18308
905.334	18262
905.451	18254
905.569	18213
905.686	18254
905.803	18216
905.921	18049
906.038	18174
906.155	18087
906.272	17912
906.389	17958
906.506	17805
906.623	17824
906.74	17824
906.857	17642
906.974	17710
907.091	17851
907.208	17859
907.324	17840
907.441	17714
907.557	17547
907.674	17436
907.79	17440
907.907	17482
908.023	17581
908.139	17638
908.256	17387
908.372	17349
908.488	17455
908.604	17269
908.72	17265
908.836	17212
908.952	17261
909.068	17174
909.184	17242
909.3	17284
909.415	17193
909.531	17318
909.647	17003
909.762	16946
909.878	16923
909.993	16946
910.108	16869
910.224	16839
910.339	16805
910.454	16816
910.57	16733
910.685	16630
910.8	16946
910.915	16881
911.03	16763
911.145	16618
911.259	16535
911.374	16497
911.489	16466
911.604	16409
911.718	16185
911.833	16291
911.947	16169
912.062	16078
912.176	16272
912.291	16322
912.405	16242
912.519	16504
912.633	16390
912.748	16253
912.862	16223
912.976	16105
913.09	15907
913.204	16109
913.318	16071
913.431	16101
913.545	16238
913.659	16124
913.772	16044
913.886	15812
914	15846
914.113	15991
914.226	15934
914.34	15789
914.453	15713
914.566	15918
914.68	15759
914.793	15701
914.906	15477
915.019	15473
915.132	15412
915.245	15473
915.358	15473
915.47	15477
915.583	15469
915.696	15496
915.809	15534
915.921	15614
916.034	15378
916.146	15287
916.259	15382
916.371	15386
916.483	15306
916.595	15264
916.708	15237
916.82	15321
916.932	15313
917.044	15245
917.156	15275
917.268	15077
917.38	15074
917.491	15066
917.603	15154
917.715	15119
917.826	15119
917.938	14982
918.049	15005
918.161	15013
918.272	15188
918.384	15116
918.495	14994
918.606	14895
918.717	14819
918.828	14826
918.939	14891
919.05	14720
919.161	14876
919.272	14648
919.383	14720
919.494	14838
919.604	15108
919.715	14800
919.826	14651
919.936	14842
920.047	14918
920.157	14792
920.267	15036
920.378	14876
920.488	14819
920.598	14960
920.708	15097
920.818	14883
920.928	15009
921.038	15127
921.148	15085
921.258	14773
921.368	14625
921.477	14564
921.587	14484
921.697	14450
921.806	14549
921.916	14488
922.025	14294
922.134	14214
922.244	14126
922.353	14180
922.462	14065
922.571	13932
922.68	13841
922.789	13890
922.898	13738
923.007	13757
923.116	13841
923.224	13807
923.333	13738
923.442	13655
923.55	13613
923.659	13632
923.767	13689
923.876	13643
923.984	13651
924.092	13514
924.201	13563
924.309	13609
924.417	13632
924.525	13476
924.633	13487
924.741	14408
924.849	13209
924.956	13400
925.064	13285
925.172	13190
925.279	13187
925.387	13320
925.494	13137
925.602	13293
925.709	13274
925.816	13183
925.924	13152
926.031	13122
926.138	13145
926.245	13129
926.352	13110
926.459	13228
926.566	13213
926.673	13050
926.779	12852
926.886	12837
926.993	12837
927.099	12753
927.206	12753
927.312	12722
927.419	12776
927.525	12772
927.631	12856
927.737	12677
927.843	12604
927.95	12525
928.056	12597
928.162	12555
928.267	12528
928.373	13217
928.479	12684
928.585	12414
928.69	12544
928.796	12540
928.901	12536
929.007	12350
929.112	12441
929.218	12441
929.323	12327
929.428	12292
929.533	12403
929.638	12163
929.743	12308
929.848	12285
929.953	12140
930.058	12106
930.163	12045
930.267	12015
930.372	12144
930.477	11882
930.581	12175
930.685	12110
930.79	11950
930.894	11836
930.998	11904
931.103	11969
931.207	11634
931.311	11562
931.415	11452
931.519	11201
931.623	11242
