Data from test_V78500241_708.txt Node
Date: Fri Mar 25 15:46:42 CST 2022
User: usil
Spectrometer: V785-0024
Trigger mode: 0
Integration Time (sec): 4.000000E-1
Scans to average: 1
Nonlinearity correction enabled: false
Boxcar width: 0
Storing dark spectrum: false
XAxis mode: Wavelengths
Number of Pixels in Spectrum: 1024
>>>>>Begin Spectral Data<<<<<
801.071	27949
801.214	27838
801.356	27629
801.499	27622
801.641	27408
801.783	27507
801.926	27572
802.068	27519
802.211	27466
802.353	27416
802.496	27260
802.638	27154
802.78	27161
802.923	26986
803.065	27142
803.208	27306
803.35	27165
803.492	27184
803.635	27351
803.777	27279
803.919	27523
804.061	27797
804.204	27542
804.346	27287
804.488	27211
804.63	27291
804.773	27237
804.915	27386
805.057	27564
805.199	27492
805.341	27435
805.483	27458
805.626	27553
805.768	27374
805.91	27534
806.052	27557
806.194	27595
806.336	27724
806.478	27553
806.62	27553
806.762	27568
806.904	27816
807.046	27979
807.188	27918
807.33	27899
807.472	28116
807.614	27827
807.756	27797
807.898	27857
808.04	27755
808.182	27701
808.324	27698
808.465	27831
808.607	28002
808.749	28055
808.891	28238
809.033	28207
809.174	28246
809.316	28188
809.458	28219
809.6	28002
809.741	28291
809.883	28322
810.025	28428
810.166	28363
810.308	28424
810.45	28440
810.591	28234
810.733	28215
810.875	28124
811.016	28105
811.158	27911
811.299	28200
811.441	28348
811.582	28299
811.724	28215
811.865	28166
812.007	28226
812.148	28128
812.29	28124
812.431	28428
812.573	28485
812.714	28679
812.855	28557
812.997	28812
813.138	28809
813.279	28691
813.421	28797
813.562	28672
813.703	28474
813.845	28341
813.986	28238
814.127	27797
814.268	27800
814.41	27770
814.551	27873
814.692	27892
814.833	27724
814.974	27800
815.115	27873
815.256	27720
815.397	27781
815.539	27633
815.68	27648
815.821	27500
815.962	27656
816.103	27606
816.244	27504
816.385	27542
816.526	27374
816.666	27154
816.807	27252
816.948	27135
817.089	27313
817.23	27131
817.371	27146
817.512	27085
817.653	27005
817.793	27146
817.934	27077
818.075	27218
818.216	27116
818.356	27066
818.497	27176
818.638	26910
818.778	26925
818.919	26982
819.06	27154
819.2	27013
819.341	27233
819.481	27108
819.622	27176
819.762	27530
819.903	27500
820.043	27359
820.184	27184
820.324	27188
820.465	27336
820.605	27199
820.746	27211
820.886	27184
821.026	27192
821.167	27230
821.307	27218
821.447	27207
821.588	27020
821.728	27005
821.868	26823
822.008	26636
822.149	26598
822.289	26629
822.429	26298
822.569	26309
822.709	26339
822.849	26206
822.99	26024
823.13	26115
823.27	25982
823.41	25837
823.55	25772
823.69	25909
823.83	25955
823.97	25986
824.11	25875
824.25	25715
824.389	25757
824.529	25784
824.669	25791
824.809	25955
824.949	25833
825.089	25913
825.228	25841
825.368	25521
825.508	25658
825.648	25670
825.787	25731
825.927	25799
826.067	25704
826.206	25674
826.346	25784
826.485	25765
826.625	25658
826.765	25639
826.904	25677
827.044	25426
827.183	25388
827.323	25282
827.462	25384
827.601	25449
827.741	25381
827.88	25434
828.02	25369
828.159	25247
828.298	25377
828.437	25343
828.577	25327
828.716	25445
828.855	25274
828.994	25015
829.134	25107
829.273	25160
829.412	25053
829.551	24992
829.69	25122
829.829	24996
829.968	25160
830.107	25031
830.246	25023
830.385	25004
830.524	24817
830.663	24821
830.802	24791
830.941	24677
831.08	24578
831.219	24726
831.357	24757
831.496	24856
831.635	24696
831.774	24570
831.913	24513
832.051	24372
832.19	24361
832.329	24422
832.467	24365
832.606	24266
832.744	24285
832.883	24338
833.022	24235
833.16	24437
833.299	24429
833.437	24304
833.576	24304
833.714	24395
833.852	24410
833.991	24395
834.129	24494
834.267	24502
834.406	24433
834.544	24292
834.682	24289
834.821	24296
834.959	24505
835.097	24232
835.235	24498
835.373	24346
835.511	24361
835.65	24220
835.788	24239
835.926	24018
836.064	24015
836.202	24079
836.34	24262
836.478	24334
836.615	24270
836.753	24121
836.891	24270
837.029	24205
837.167	24140
837.305	24254
837.443	23988
837.58	24125
837.718	24034
837.856	23973
837.993	24015
838.131	24095
838.269	23847
838.406	24038
838.544	23836
838.681	23642
838.819	23668
838.956	23440
839.094	23436
839.231	23554
839.369	23687
839.506	23878
839.643	23805
839.781	23455
839.918	23463
840.055	23474
840.193	23353
840.33	23528
840.467	23463
840.604	23425
840.742	23630
840.879	23425
841.016	23345
841.153	23318
841.29	23452
841.427	23341
841.564	23554
841.701	23398
841.838	23349
841.975	23239
842.112	23391
842.249	23277
842.385	23337
842.522	23356
842.659	23261
842.796	23086
842.933	23292
843.069	23136
843.206	23079
843.343	23208
843.479	23143
843.616	23258
843.752	23006
843.889	23056
844.025	22987
844.162	22911
844.298	22995
844.435	22869
844.571	22923
844.708	22965
844.844	23105
844.98	23056
845.117	22957
845.253	22984
845.389	22911
845.525	22923
845.661	22847
845.798	22782
845.934	22653
846.07	22729
846.206	22736
846.342	22706
846.478	22752
846.614	22497
846.75	22371
846.886	22451
847.022	22386
847.158	22489
847.294	22432
847.429	22451
847.565	22363
847.701	22710
847.837	22105
847.972	22188
848.108	22268
848.244	22169
848.379	22070
848.515	21983
848.65	22002
848.786	21991
848.921	22105
849.057	22150
849.192	22036
849.328	22082
849.463	21987
849.598	21918
849.734	21808
849.869	21949
850.004	21789
850.14	21812
850.275	21724
850.41	21599
850.545	21698
850.68	21823
850.815	21842
850.95	21728
851.085	22032
851.22	21854
851.355	21770
851.49	21713
851.625	21770
851.76	21774
851.895	21717
852.03	21610
852.165	21633
852.299	21899
852.434	21854
852.569	21728
852.703	21759
852.838	21709
852.973	21956
853.107	21934
853.242	21713
853.376	21507
853.511	21564
853.645	21447
853.78	21648
853.914	21614
854.048	21538
854.183	21629
854.317	21644
854.451	21781
854.585	21648
854.72	21595
854.854	21587
854.988	21496
855.122	21667
855.256	21469
855.39	21523
855.524	21660
855.658	21641
855.792	21675
855.926	21519
856.06	21599
856.194	21606
856.327	21568
856.461	21443
856.595	21500
856.729	21652
856.862	21751
856.996	21732
857.13	21561
857.263	21682
857.397	21671
857.53	21591
857.664	21606
857.797	21732
857.931	21591
858.064	21606
858.197	21701
858.331	21614
858.464	21595
858.597	21424
858.731	21686
858.864	21587
858.997	21580
859.13	21591
859.263	21603
859.396	21690
859.529	21511
859.662	21473
859.795	21599
859.928	21671
860.061	21690
860.194	21698
860.327	21637
860.46	21732
860.592	21705
860.725	21686
860.858	21739
860.99	21526
861.123	21637
861.256	21530
861.388	21587
861.521	22242
861.653	21447
861.786	21256
861.918	21386
862.05	21477
862.183	21408
862.315	21553
862.447	21606
862.58	21500
862.712	21310
862.844	21150
862.976	21473
863.108	21397
863.24	21720
863.372	21264
863.504	21313
863.636	21306
863.768	21298
863.9	21268
864.032	21264
864.164	21222
864.296	21310
864.428	21412
864.559	21424
864.691	21393
864.823	21283
864.954	21279
865.086	21249
865.217	21321
865.349	21089
865.48	21176
865.612	21214
865.743	21241
865.875	21203
866.006	21123
866.137	21192
866.269	21195
866.4	21157
866.531	21233
866.662	21108
866.793	21028
866.924	21157
867.055	21089
867.186	21104
867.317	21062
867.448	21108
867.579	21108
867.71	20994
867.841	20975
867.972	21138
868.103	21001
868.233	21150
868.364	21245
868.495	21176
868.625	21382
868.756	21466
868.886	21184
869.017	21214
869.147	21519
869.278	21538
869.408	21408
869.539	21359
869.669	21272
869.799	21370
869.929	21526
870.06	21515
870.19	21698
870.32	21652
870.45	21629
870.58	21800
870.71	21903
870.84	21884
870.97	21762
871.1	21759
871.23	21892
871.36	21979
871.489	21846
871.619	21857
871.749	21964
871.879	22090
872.008	22158
872.138	21865
872.267	21956
872.397	21876
872.526	21808
872.656	21800
872.785	21770
872.915	22010
873.044	22025
873.173	21918
873.303	22105
873.432	21975
873.561	22029
873.69	21979
873.819	22025
873.948	22078
874.077	21998
874.206	22040
874.335	21953
874.464	22162
874.593	22200
874.722	22249
874.851	22112
874.979	22287
875.108	22185
875.237	22128
875.365	22086
875.494	22196
875.623	22234
875.751	22120
875.88	22360
876.008	22337
876.136	22436
876.265	22649
876.393	22691
876.521	22653
876.65	22588
876.778	22615
876.906	22413
877.034	22451
877.162	22626
877.29	22519
877.418	22447
877.546	22569
877.674	22462
877.802	22500
877.93	22599
878.058	22519
878.185	22398
878.313	22367
878.441	22550
878.568	22367
878.696	22459
878.824	22500
878.951	22706
879.079	22660
879.206	22843
879.333	22710
879.461	22542
879.588	22672
879.715	22706
879.842	22698
879.97	22626
880.097	22421
880.224	22371
880.351	22318
880.478	22390
880.605	22333
880.732	22333
880.859	22596
880.986	22360
881.112	22489
881.239	22204
881.366	22086
881.493	22101
881.619	21983
881.746	21899
881.872	21930
881.999	21926
882.125	21899
882.252	21960
882.378	21941
882.505	21991
882.631	21804
882.757	21724
882.883	21622
883.01	21595
883.136	21625
883.262	21496
883.388	21519
883.514	21747
883.64	21667
883.766	21542
883.892	21378
884.018	21481
884.143	21496
884.269	21667
884.395	21291
884.52	21329
884.646	21260
884.772	21252
884.897	21188
885.023	21351
885.148	21378
885.274	21500
885.399	21313
885.524	21321
885.65	21389
885.775	21321
885.9	21211
886.025	21428
886.15	21169
886.275	21272
886.4	21142
886.525	21260
886.65	21192
886.775	21127
886.9	21374
887.025	21561
887.149	21260
887.274	21161
887.399	20971
887.523	21036
887.648	21017
887.773	21036
887.897	21127
888.021	21024
888.146	21005
888.27	21100
888.395	21047
888.519	21123
888.643	21028
888.767	21135
888.891	21036
889.015	20796
889.139	20823
889.263	20815
889.387	20895
889.511	21017
889.635	21009
889.759	20651
889.883	20861
890.006	20842
890.13	20876
890.254	20765
890.377	20708
890.501	20590
890.624	20560
890.748	20629
890.871	20473
890.995	20442
891.118	20351
891.241	20431
891.364	20427
891.488	20560
891.611	20351
891.734	20362
891.857	20446
891.98	20366
892.103	20442
892.226	20461
892.349	20362
892.471	20187
892.594	20374
892.717	20400
892.839	20423
892.962	20332
893.085	20419
893.207	20290
893.33	20176
893.452	20233
893.575	20324
893.697	20332
893.819	20514
893.941	20537
894.064	20450
894.186	20263
894.308	20210
894.43	20381
894.552	20492
894.674	20412
894.796	20263
894.918	20206
895.04	20199
895.161	20358
895.283	20355
895.405	20233
895.526	20210
895.648	20370
895.769	20290
895.891	20328
896.012	20423
896.134	20415
896.255	20271
896.376	20385
896.498	20343
896.619	20400
896.74	20324
896.861	20355
896.982	20701
897.103	20739
897.224	20617
897.345	20541
897.466	20404
897.587	20507
897.708	20640
897.828	20522
897.949	20415
898.07	20469
898.19	20522
898.311	20590
898.431	20499
898.552	20511
898.672	20708
898.792	20549
898.913	20674
899.033	20469
899.153	20381
899.273	20126
899.393	20214
899.513	20271
899.633	20339
899.753	20434
899.873	20275
899.993	20374
900.113	20252
900.232	20202
900.352	20084
900.472	20130
900.591	20130
900.711	20069
900.83	19925
900.95	20153
901.069	20077
901.189	19951
901.308	19727
901.427	19548
901.546	19734
901.665	19696
901.784	19582
901.904	19457
902.023	19502
902.141	19297
902.26	19225
902.379	19343
902.498	19065
902.617	19103
902.735	19175
902.854	19095
902.973	19084
903.091	18863
903.21	18817
903.328	18863
903.446	18696
903.565	18642
903.683	18608
903.801	18616
903.919	18654
904.038	18544
904.156	18300
904.274	18471
904.392	18369
904.51	18289
904.627	18433
904.745	18506
904.863	18422
904.981	18213
905.098	18076
905.216	18053
905.334	17992
905.451	18072
905.569	18026
905.686	18026
905.803	18019
905.921	17851
906.038	17897
906.155	17786
906.272	17756
906.389	17741
906.506	17604
906.623	17634
906.74	17623
906.857	17501
906.974	17467
907.091	17642
907.208	17649
907.324	17668
907.441	17543
907.557	17303
907.674	17284
907.79	17162
907.907	17155
908.023	17277
908.139	17273
908.256	17246
908.372	17140
908.488	17128
908.604	16965
908.72	16927
908.836	17056
908.952	16953
909.068	17045
909.184	17075
909.3	16965
909.415	17083
909.531	17090
909.647	16725
909.762	16702
909.878	16694
909.993	16687
910.108	16687
910.224	16615
910.339	16588
910.454	16694
910.57	16497
910.685	16531
910.8	16729
910.915	16736
911.03	16402
911.145	16337
911.259	16272
911.374	16306
911.489	16223
911.604	16204
911.718	16048
911.833	16021
911.947	15960
912.062	15888
912.176	16116
912.291	16131
912.405	15991
912.519	16329
912.633	16154
912.748	16128
912.862	16063
912.976	15827
913.09	15842
913.204	15884
913.318	15888
913.431	16002
913.545	15838
913.659	15934
913.772	15812
913.886	15641
914	15675
914.113	15728
914.226	15823
914.34	15739
914.453	15485
914.566	15774
914.68	15599
914.793	15519
914.906	15336
915.019	15116
915.132	15184
915.245	15180
915.358	15237
915.47	15241
915.583	15154
915.696	15199
915.809	15268
915.921	15336
916.034	15279
916.146	15116
916.259	15074
916.371	15222
916.483	15180
916.595	15123
916.708	15097
916.82	15013
916.932	15074
917.044	15104
917.156	14990
917.268	14933
917.38	14941
917.491	14857
917.603	14933
917.715	14910
917.826	15100
917.938	14929
918.049	14800
918.161	14880
918.272	15081
918.384	14975
918.495	14845
918.606	14804
918.717	14701
918.828	14849
918.939	14750
919.05	14575
919.161	14693
919.272	14469
919.383	14514
919.494	14758
919.604	14925
919.715	14648
919.826	14526
919.936	14648
920.047	14804
920.157	14613
920.267	14739
920.378	14735
920.488	14651
920.598	14811
920.708	14910
920.818	14868
920.928	14838
921.038	14986
921.148	14914
921.258	14590
921.368	14518
921.477	14400
921.587	14396
921.697	14187
921.806	14370
921.916	14237
922.025	14062
922.134	14043
922.244	14016
922.353	14145
922.462	13890
922.571	13978
922.68	13670
922.789	13727
922.898	13746
923.007	13613
923.116	13742
923.224	13731
923.333	13677
923.442	13571
923.55	13468
923.659	13518
923.767	13472
923.876	13415
923.984	13605
924.092	13422
924.201	13430
924.309	13487
924.417	13411
924.525	13407
924.633	13289
924.741	14313
924.849	13038
924.956	13335
925.064	13152
925.172	13076
925.279	13084
925.387	13080
925.494	12993
925.602	13228
925.709	13061
925.816	13008
925.924	13042
926.031	13145
926.138	12996
926.245	13107
926.352	12909
926.459	13145
926.566	13103
926.673	13008
926.779	12821
926.886	12791
926.993	12753
927.099	12612
927.206	12582
927.312	12563
927.419	12707
927.525	12654
927.631	12692
927.737	12563
927.843	12513
927.95	12376
928.056	12494
928.162	12509
928.267	12467
928.373	13149
928.479	12574
928.585	12353
928.69	12380
928.796	12479
928.901	12334
929.007	12140
929.112	12384
929.218	12266
929.323	12289
929.428	12228
929.533	12330
929.638	12125
929.743	12190
929.848	12175
929.953	12125
930.058	12034
930.163	11874
930.267	11904
930.372	12019
930.477	11745
930.581	11999
930.685	11939
930.79	11828
930.894	11805
930.998	11790
931.103	11916
931.207	11524
931.311	11356
931.415	11368
931.519	11147
931.623	11090
