Data from test_V78500241_3423.txt Node
Date: Fri Mar 25 16:05:30 CST 2022
User: usil
Spectrometer: V785-0024
Trigger mode: 0
Integration Time (sec): 4.000000E-1
Scans to average: 1
Nonlinearity correction enabled: false
Boxcar width: 0
Storing dark spectrum: false
XAxis mode: Wavelengths
Number of Pixels in Spectrum: 1024
>>>>>Begin Spectral Data<<<<<
801.071	28725
801.214	28516
801.356	28265
801.499	28436
801.641	28303
801.783	28280
801.926	28257
802.068	28181
802.211	28246
802.353	28067
802.496	28154
802.638	27975
802.78	27918
802.923	27888
803.065	27743
803.208	27880
803.35	28006
803.492	28162
803.635	28109
803.777	28059
803.919	28082
804.061	28546
804.204	28215
804.346	27983
804.488	28021
804.63	28059
804.773	27994
804.915	28200
805.057	28363
805.199	28105
805.341	28299
805.483	28352
805.626	28352
805.768	28272
805.91	28242
806.052	28192
806.194	28204
806.336	28565
806.478	28401
806.62	28318
806.762	28481
806.904	28592
807.046	28900
807.188	28763
807.33	28713
807.472	28869
807.614	28694
807.756	28683
807.898	28622
808.04	28432
808.182	28626
808.324	28691
808.465	28797
808.607	28862
808.749	29140
808.891	29166
809.033	29200
809.174	29162
809.316	29033
809.458	28957
809.6	28938
809.741	29208
809.883	29220
810.025	29364
810.166	29265
810.308	29307
810.45	29197
810.591	29147
810.733	28927
810.875	29041
811.016	29109
811.158	28824
811.299	29060
811.441	29326
811.582	29132
811.724	29052
811.865	28831
812.007	28995
812.148	29014
812.29	28987
812.431	29067
812.573	29341
812.714	29402
812.855	29608
812.997	29695
813.138	29783
813.279	29748
813.421	29471
813.562	29619
813.703	29280
813.845	29258
813.986	29056
814.127	28858
814.268	28873
814.41	28759
814.551	28683
814.692	28702
814.833	28637
814.974	28809
815.115	28797
815.256	28596
815.397	28497
815.539	28622
815.68	28535
815.821	28603
815.962	28592
816.103	28512
816.244	28344
816.385	28257
816.526	28352
816.666	28097
816.807	27987
816.948	28200
817.089	28109
817.23	28169
817.371	28078
817.512	28059
817.653	28006
817.793	28040
817.934	28154
818.075	28029
818.216	28150
818.356	27907
818.497	27960
818.638	27774
818.778	27869
818.919	27888
819.06	27926
819.2	27949
819.341	28070
819.481	27987
819.622	28211
819.762	28432
819.903	28268
820.043	28200
820.184	28185
820.324	28128
820.465	28299
820.605	28131
820.746	28074
820.886	27956
821.026	28318
821.167	28154
821.307	28318
821.447	27994
821.588	27964
821.728	27842
821.868	27812
822.008	27458
822.149	27576
822.289	27458
822.429	27245
822.569	27218
822.709	27226
822.849	26887
822.99	27199
823.13	26956
823.27	27142
823.41	26731
823.55	26785
823.69	26769
823.83	26838
823.97	26823
824.11	26609
824.25	26659
824.389	26621
824.529	26731
824.669	26735
824.809	26769
824.949	26830
825.089	26781
825.228	26864
825.368	26560
825.508	26507
825.648	26530
825.787	26526
825.927	26632
826.067	26564
826.206	26492
826.346	26522
826.485	26712
826.625	26587
826.765	26651
826.904	26629
827.044	26259
827.183	26305
827.323	26263
827.462	26362
827.601	26324
827.741	26366
827.88	26381
828.02	26115
828.159	26248
828.298	26256
828.437	26191
828.577	26374
828.716	26290
828.855	26161
828.994	25986
829.134	25841
829.273	25951
829.412	26043
829.551	25879
829.69	25925
829.829	26024
829.968	26111
830.107	26103
830.246	25913
830.385	25921
830.524	25776
830.663	25609
830.802	25677
830.941	25559
831.08	25601
831.219	25571
831.357	25601
831.496	25765
831.635	25582
831.774	25609
831.913	25354
832.051	25419
832.19	25392
832.329	25320
832.467	25304
832.606	25289
832.744	25107
832.883	25206
833.022	25168
833.16	25316
833.299	25346
833.437	25247
833.576	25187
833.714	25312
833.852	25453
833.991	25304
834.129	25445
834.267	25354
834.406	25331
834.544	25403
834.682	25358
834.821	25384
834.959	25491
835.097	25308
835.235	25278
835.373	25426
835.511	25206
835.65	25145
835.788	25209
835.926	25000
836.064	24947
836.202	25012
836.34	25091
836.478	25126
836.615	25225
836.753	25228
836.891	25129
837.029	25046
837.167	25072
837.305	24989
837.443	24932
837.58	24890
837.718	25012
837.856	24973
837.993	24924
838.131	24966
838.269	24806
838.406	24825
838.544	24802
838.681	24593
838.819	24772
838.956	24372
839.094	24357
839.231	24372
839.369	24509
839.506	24726
839.643	24661
839.781	24559
839.918	24479
840.055	24456
840.193	24327
840.33	24338
840.467	24334
840.604	24296
840.742	24544
840.879	24209
841.016	24292
841.153	24129
841.29	24414
841.427	24391
841.564	24330
841.701	24251
841.838	24304
841.975	24258
842.112	24197
842.249	24148
842.385	24034
842.522	24342
842.659	24034
842.796	24083
842.933	24087
843.069	23980
843.206	23977
843.343	24190
843.479	24136
843.616	24125
843.752	23783
843.889	23923
844.025	23916
844.162	23851
844.298	24079
844.435	23790
844.571	23741
844.708	23828
844.844	23992
844.98	24030
845.117	23984
845.253	23718
845.389	23699
845.525	23729
845.661	23817
845.798	23433
845.934	23558
846.07	23611
846.206	23657
846.342	23691
846.478	23570
846.614	23421
846.75	23246
846.886	23265
847.022	23417
847.158	23433
847.294	23292
847.429	23383
847.565	23242
847.701	23566
847.837	23037
847.972	23018
848.108	23220
848.244	23178
848.379	22900
848.515	22812
848.65	22828
848.786	22919
848.921	22923
849.057	23044
849.192	23052
849.328	22980
849.463	22729
849.598	22892
849.734	22782
849.869	22740
850.004	22645
850.14	22710
850.275	22812
850.41	22641
850.545	22702
850.68	22573
850.815	22554
850.95	22634
851.085	22938
851.22	22812
851.355	22767
851.49	22596
851.625	22599
851.76	22698
851.895	22592
852.03	22516
852.165	22763
852.299	22755
852.434	22702
852.569	22763
852.703	22653
852.838	22694
852.973	22774
853.107	22645
853.242	22687
853.376	22603
853.511	22329
853.645	22451
853.78	22626
853.914	22455
854.048	22508
854.183	22466
854.317	22470
854.451	22740
854.585	22550
854.72	22466
854.854	22546
854.988	22329
855.122	22531
855.256	22371
855.39	22443
855.524	22489
855.658	22554
855.792	22577
855.926	22478
856.06	22668
856.194	22683
856.327	22447
856.461	22405
856.595	22459
856.729	22493
856.862	22611
856.996	22630
857.13	22565
857.263	22535
857.397	22664
857.53	22459
857.664	22554
857.797	22569
857.931	22626
858.064	22481
858.197	22656
858.331	22417
858.464	22451
858.597	22280
858.731	22497
858.864	22344
858.997	22538
859.13	22637
859.263	22557
859.396	22653
859.529	22546
859.662	22497
859.795	22451
859.928	22546
860.061	22615
860.194	22626
860.327	22500
860.46	22531
860.592	22660
860.725	22740
860.858	22683
860.99	22508
861.123	22466
861.256	22451
861.388	22584
861.521	23258
861.653	22424
861.786	22246
861.918	22417
862.05	22417
862.183	22443
862.315	22474
862.447	22470
862.58	22466
862.712	22238
862.844	22223
862.976	22318
863.108	22276
863.24	22618
863.372	22158
863.504	22284
863.636	22185
863.768	22230
863.9	22219
864.032	22128
864.164	22139
864.296	22295
864.428	22344
864.559	22466
864.691	22230
864.823	22253
864.954	22188
865.086	22246
865.217	22093
865.349	22074
865.48	22192
865.612	22097
865.743	22257
865.875	21972
866.006	22086
866.137	22158
866.269	22090
866.4	22234
866.531	21876
866.662	21979
866.793	22013
866.924	22070
867.055	22059
867.186	22112
867.317	22120
867.448	21934
867.579	22025
867.71	21857
867.841	21979
867.972	21968
868.103	22051
868.233	22097
868.364	22086
868.495	22070
868.625	22291
868.756	22382
868.886	22192
869.017	22386
869.147	22455
869.278	22402
869.408	22272
869.539	22356
869.669	22363
869.799	22459
869.929	22428
870.06	22329
870.19	22481
870.32	22599
870.45	22599
870.58	22611
870.71	22679
870.84	22725
870.97	22603
871.1	22637
871.23	22809
871.36	22881
871.489	22869
871.619	22877
871.749	22850
871.879	23086
872.008	22938
872.138	22934
872.267	22793
872.397	22790
872.526	22660
872.656	22774
872.785	22790
872.915	22915
873.044	22900
873.173	22946
873.303	23003
873.432	22866
873.561	22949
873.69	22904
873.819	22869
873.948	22938
874.077	22919
874.206	22835
874.335	22877
874.464	23067
874.593	23235
874.722	22987
874.851	23280
874.979	23113
875.108	23121
875.237	23048
875.365	22961
875.494	23079
875.623	23231
875.751	23067
875.88	23143
876.008	23212
876.136	23360
876.265	23539
876.393	23608
876.521	23608
876.65	23611
876.778	23577
876.906	23493
877.034	23429
877.162	23406
877.29	23368
877.418	23528
877.546	23501
877.674	23524
877.802	23368
877.93	23433
878.058	23261
878.185	23303
878.313	23387
878.441	23474
878.568	23200
878.696	23322
878.824	23512
878.951	23585
879.079	23748
879.206	23608
879.333	23570
879.461	23463
879.588	23570
879.715	23703
879.842	23729
879.97	23516
880.097	23220
880.224	23220
880.351	23280
880.478	23258
880.605	23227
880.732	23307
880.859	23516
880.986	23296
881.112	23273
881.239	23109
881.366	22961
881.493	23071
881.619	22831
881.746	22755
881.872	22961
881.999	22717
882.125	22790
882.252	22847
882.378	22790
882.505	22828
882.631	22637
882.757	22630
882.883	22561
883.01	22527
883.136	22538
883.262	22272
883.388	22344
883.514	22466
883.64	22542
883.766	22363
883.892	22303
884.018	22325
884.143	22371
884.269	22596
884.395	22185
884.52	22055
884.646	22177
884.772	22090
884.897	21964
885.023	22143
885.148	22268
885.274	22177
885.399	22234
885.524	22074
885.65	22219
885.775	22150
885.9	22147
886.025	22246
886.15	22120
886.275	22040
886.4	21991
886.525	22131
886.65	22070
886.775	22013
886.9	22234
887.025	22280
887.149	22010
887.274	21975
887.399	22017
887.523	21873
887.648	21751
887.773	21835
887.897	21945
888.021	21827
888.146	21808
888.27	21964
888.395	22093
888.519	21888
888.643	21869
888.767	21922
888.891	21793
889.015	21694
889.139	21694
889.263	21827
889.387	21660
889.511	21819
889.635	21797
889.759	21576
889.883	21667
890.006	21705
890.13	21751
890.254	21553
890.377	21511
890.501	21351
890.624	21408
890.748	21534
890.871	21325
890.995	21306
891.118	21142
891.241	21268
891.364	21268
891.488	21397
891.611	21294
891.734	21294
891.857	21367
891.98	21256
892.103	21249
892.226	21256
892.349	21108
892.471	20948
892.594	21066
892.717	21127
892.839	21077
892.962	21169
893.085	21169
893.207	21150
893.33	21184
893.452	21142
893.575	21226
893.697	20941
893.819	21329
893.941	21336
894.064	21340
894.186	21043
894.308	21131
894.43	21214
894.552	21275
894.674	21233
894.796	21093
894.918	21036
895.04	21077
895.161	21017
895.283	21142
895.405	20998
895.526	21043
895.648	21085
895.769	21138
895.891	21150
896.012	21169
896.134	21142
896.255	21013
896.376	21096
896.498	21116
896.619	21165
896.74	21070
896.861	21142
896.982	21458
897.103	21473
897.224	21317
897.345	21348
897.466	21237
897.587	21233
897.708	21283
897.828	21317
897.949	21294
898.07	21222
898.19	21222
898.311	21424
898.431	21230
898.552	21283
898.672	21393
898.792	21401
898.913	21401
899.033	21252
899.153	21150
899.273	20948
899.393	21013
899.513	21047
899.633	21096
899.753	21207
899.873	20941
899.993	21119
900.113	20952
900.232	21051
900.352	20906
900.472	20807
900.591	20777
900.711	20849
900.83	20807
900.95	20891
901.069	20826
901.189	20712
901.308	20457
901.427	20412
901.546	20396
901.665	20313
901.784	20461
901.904	20168
902.023	20176
902.141	19974
902.26	19826
902.379	20027
902.498	19864
902.617	19826
902.735	19936
902.854	19670
902.973	19746
903.091	19540
903.21	19571
903.328	19575
903.446	19430
903.565	19335
903.683	19419
903.801	19240
903.919	19217
904.038	19297
904.156	19122
904.274	19183
904.392	19133
904.51	19084
904.627	19095
904.745	19023
904.863	18985
904.981	18924
905.098	18814
905.216	18722
905.334	18772
905.451	18669
905.569	18787
905.686	18738
905.803	18711
905.921	18589
906.038	18623
906.155	18585
906.272	18540
906.389	18456
906.506	18270
906.623	18281
906.74	18315
906.857	18251
906.974	18136
907.091	18327
907.208	18323
907.324	18247
907.441	18155
907.557	18163
907.674	18003
907.79	17980
907.907	17996
908.023	17973
908.139	18102
908.256	17984
908.372	17878
908.488	17859
908.604	17805
908.72	17760
908.836	17771
908.952	17714
909.068	17714
909.184	17752
909.3	17752
909.415	17684
909.531	17691
909.647	17421
909.762	17421
909.878	17356
909.993	17379
910.108	17391
910.224	17356
910.339	17307
910.454	17197
910.57	17200
910.685	17174
910.8	17376
910.915	17299
911.03	17090
911.145	17048
911.259	16976
911.374	16934
911.489	16934
911.604	16896
911.718	16687
911.833	16755
911.947	16618
912.062	16485
912.176	16790
912.291	16698
912.405	16767
912.519	16900
912.633	16839
912.748	16736
912.862	16649
912.976	16584
913.09	16485
913.204	16413
913.318	16550
913.431	16573
913.545	16630
913.659	16577
913.772	16455
913.886	16303
914	16318
914.113	16394
914.226	16413
914.34	16268
914.453	16150
914.566	16363
914.68	16131
914.793	16112
914.906	15903
915.019	15865
915.132	15789
915.245	15880
915.358	15960
915.47	15979
915.583	15998
915.696	15854
915.809	16013
915.921	15937
916.034	15873
916.146	15732
916.259	15739
916.371	15831
916.483	15781
916.595	15652
916.708	15751
916.82	15606
916.932	15641
917.044	15587
917.156	15561
917.268	15454
917.38	15572
917.491	15481
917.603	15561
917.715	15507
917.826	15519
917.938	15447
918.049	15367
918.161	15469
918.272	15667
918.384	15587
918.495	15370
918.606	15275
918.717	15256
918.828	15195
918.939	15298
919.05	15188
919.161	15203
919.272	15039
919.383	15108
919.494	15291
919.604	15469
919.715	15157
919.826	15085
919.936	15233
920.047	15203
920.157	15252
920.267	15382
920.378	15214
920.488	15165
920.598	15450
920.708	15462
920.818	15340
920.928	15268
921.038	15561
921.148	15500
921.258	15146
921.368	15077
921.477	14986
921.587	14986
921.697	14800
921.806	14895
921.916	14815
922.025	14636
922.134	14602
922.244	14537
922.353	14571
922.462	14499
922.571	14408
922.68	14130
922.789	14210
922.898	14187
923.007	14202
923.116	14206
923.224	14164
923.333	14267
923.442	14126
923.55	14012
923.659	13982
923.767	14100
923.876	13997
923.984	14020
924.092	13814
924.201	14012
924.309	13875
924.417	13909
924.525	13947
924.633	13871
924.741	14724
924.849	13582
924.956	13765
925.064	13559
925.172	13533
925.279	13556
925.387	13613
925.494	13620
925.602	13651
925.709	13578
925.816	13377
925.924	13415
926.031	13597
926.138	13499
926.245	13518
926.352	13464
926.459	13582
926.566	13582
926.673	13441
926.779	13373
926.886	13362
926.993	13164
927.099	13194
927.206	12985
927.312	13069
927.419	13236
927.525	13145
927.631	13183
927.737	13065
927.843	13038
927.95	12856
928.056	12886
928.162	12954
928.267	12962
928.373	13624
928.479	13061
928.585	12871
928.69	12928
928.796	12943
928.901	12833
929.007	12642
929.112	12840
929.218	12726
929.323	12612
929.428	12612
929.533	12776
929.638	12662
929.743	12608
929.848	12654
929.953	12597
930.058	12536
930.163	12319
930.267	12254
930.372	12536
930.477	12273
930.581	12540
930.685	12399
930.79	12323
930.894	12220
930.998	12213
931.103	12346
931.207	12015
931.311	11889
931.415	11733
931.519	11600
931.623	11520
