Data from test_V78500241_1830.txt Node
Date: Fri Mar 25 15:54:28 CST 2022
User: usil
Spectrometer: V785-0024
Trigger mode: 0
Integration Time (sec): 4.000000E-1
Scans to average: 1
Nonlinearity correction enabled: false
Boxcar width: 0
Storing dark spectrum: false
XAxis mode: Wavelengths
Number of Pixels in Spectrum: 1024
>>>>>Begin Spectral Data<<<<<
801.071	28630
801.214	28531
801.356	28390
801.499	28417
801.641	28299
801.783	28143
801.926	28143
802.068	28314
802.211	28196
802.353	28211
802.496	27926
802.638	27991
802.78	27884
802.923	27941
803.065	27876
803.208	27899
803.35	27983
803.492	28147
803.635	28158
803.777	27949
803.919	28150
804.061	28325
804.204	28166
804.346	28139
804.488	28162
804.63	28192
804.773	28025
804.915	28238
805.057	28181
805.199	28124
805.341	28325
805.483	28154
805.626	28360
805.768	28272
805.91	28356
806.052	28447
806.194	28128
806.336	28447
806.478	28417
806.62	28363
806.762	28462
806.904	28618
807.046	28790
807.188	28873
807.33	28748
807.472	28801
807.614	28573
807.756	28729
807.898	28546
808.04	28523
808.182	28618
808.324	28653
808.465	28729
808.607	28888
808.749	29048
808.891	29155
809.033	29193
809.174	29060
809.316	28961
809.458	29003
809.6	28961
809.741	29086
809.883	29200
810.025	29322
810.166	29242
810.308	29467
810.45	29299
810.591	29060
810.733	29048
810.875	29006
811.016	28778
811.158	28850
811.299	29162
811.441	29083
811.582	29151
811.724	29006
811.865	28927
812.007	28999
812.148	28976
812.29	29003
812.431	29109
812.573	29391
812.714	29421
812.855	29668
812.997	29589
813.138	29824
813.279	29604
813.421	29562
813.562	29619
813.703	29288
813.845	29258
813.986	28968
814.127	28710
814.268	28649
814.41	28694
814.551	28683
814.692	28847
814.833	28634
814.974	28740
815.115	28691
815.256	28668
815.397	28584
815.539	28630
815.68	28436
815.821	28478
815.962	28592
816.103	28588
816.244	28390
816.385	28295
816.526	28337
816.666	28162
816.807	27983
816.948	28090
817.089	28120
817.23	28120
817.371	28036
817.512	28013
817.653	28067
817.793	28105
817.934	28063
818.075	28017
818.216	28059
818.356	28055
818.497	27941
818.638	27743
818.778	27888
818.919	27816
819.06	27869
819.2	27983
819.341	28112
819.481	28078
819.622	28314
819.762	28459
819.903	28246
820.043	28265
820.184	28188
820.324	28086
820.465	28200
820.605	28230
820.746	28116
820.886	28063
821.026	28150
821.167	28078
821.307	28166
821.447	28150
821.588	28059
821.728	27972
821.868	27610
822.008	27496
822.149	27519
822.289	27443
822.429	27302
822.569	27142
822.709	27199
822.849	27032
822.99	27039
823.13	27116
823.27	26937
823.41	26765
823.55	26807
823.69	26948
823.83	26876
823.97	26826
824.11	26670
824.25	26765
824.389	26583
824.529	26769
824.669	26697
824.809	26781
824.949	26785
825.089	26746
825.228	26720
825.368	26545
825.508	26541
825.648	26571
825.787	26629
825.927	26556
826.067	26492
826.206	26465
826.346	26533
826.485	26632
826.625	26602
826.765	26602
826.904	26602
827.044	26351
827.183	26320
827.323	26183
827.462	26358
827.601	26290
827.741	26370
827.88	26320
828.02	26069
828.159	26233
828.298	26355
828.437	26221
828.577	26180
828.716	26324
828.855	26161
828.994	25902
829.134	26027
829.273	25986
829.412	25909
829.551	26005
829.69	26043
829.829	25932
829.968	26096
830.107	26050
830.246	26050
830.385	25974
830.524	25769
830.663	25674
830.802	25700
830.941	25616
831.08	25514
831.219	25620
831.357	25723
831.496	25727
831.635	25658
831.774	25457
831.913	25479
832.051	25369
832.19	25502
832.329	25373
832.467	25274
832.606	25225
832.744	25190
832.883	25244
833.022	25164
833.16	25308
833.299	25339
833.437	25324
833.576	25324
833.714	25198
833.852	25381
833.991	25434
834.129	25396
834.267	25324
834.406	25179
834.544	25358
834.682	25202
834.821	25240
834.959	25529
835.097	25232
835.235	25308
835.373	25304
835.511	25206
835.65	25103
835.788	25156
835.926	25012
836.064	25088
836.202	24901
836.34	25240
836.478	25221
836.615	25061
836.753	25107
836.891	25053
837.029	25206
837.167	25107
837.305	25133
837.443	25114
837.58	24859
837.718	24951
837.856	25095
837.993	24859
838.131	25000
838.269	24992
838.406	24821
838.544	24856
838.681	24559
838.819	24555
838.956	24460
839.094	24467
839.231	24479
839.369	24505
839.506	24677
839.643	24688
839.781	24563
839.918	24327
840.055	24346
840.193	24357
840.33	24296
840.467	24376
840.604	24395
840.742	24642
840.879	24300
841.016	24239
841.153	24209
841.29	24395
841.427	24350
841.564	24346
841.701	24216
841.838	24311
841.975	24186
842.112	24201
842.249	24091
842.385	24121
842.522	24277
842.659	24057
842.796	24079
842.933	24079
843.069	24220
843.206	24045
843.343	24174
843.479	24106
843.616	24121
843.752	23828
843.889	23855
844.025	23961
844.162	23901
844.298	23882
844.435	23817
844.571	23809
844.708	23904
844.844	23916
844.98	24007
845.117	23958
845.253	23840
845.389	23695
845.525	23729
845.661	23703
845.798	23444
845.934	23573
846.07	23512
846.206	23661
846.342	23695
846.478	23627
846.614	23356
846.75	23273
846.886	23277
847.022	23436
847.158	23402
847.294	23368
847.429	23440
847.565	23242
847.701	23600
847.837	23143
847.972	22942
848.108	23079
848.244	23178
848.379	23018
848.515	23037
848.65	22805
848.786	22877
848.921	22904
849.057	23025
849.192	22919
849.328	22774
849.463	22900
849.598	22873
849.734	22698
849.869	22774
850.004	22630
850.14	22615
850.275	22653
850.41	22626
850.545	22580
850.68	22611
850.815	22801
850.95	22691
851.085	22793
851.22	22729
851.355	22687
851.49	22634
851.625	22668
851.76	22596
851.895	22546
852.03	22577
852.165	22615
852.299	22664
852.434	22683
852.569	22809
852.703	22656
852.838	22713
852.973	22786
853.107	22835
853.242	22607
853.376	22455
853.511	22428
853.645	22386
853.78	22717
853.914	22337
854.048	22451
854.183	22329
854.317	22455
854.451	22618
854.585	22421
854.72	22424
854.854	22474
854.988	22493
855.122	22474
855.256	22318
855.39	22470
855.524	22535
855.658	22584
855.792	22413
855.926	22527
856.06	22500
856.194	22573
856.327	22470
856.461	22413
856.595	22531
856.729	22447
856.862	22611
856.996	22428
857.13	22672
857.263	22615
857.397	22508
857.53	22459
857.664	22470
857.797	22512
857.931	22470
858.064	22516
858.197	22672
858.331	22474
858.464	22348
858.597	22352
858.731	22386
858.864	22341
858.997	22379
859.13	22592
859.263	22478
859.396	22615
859.529	22318
859.662	22470
859.795	22462
859.928	22599
860.061	22554
860.194	22664
860.327	22527
860.46	22459
860.592	22577
860.725	22615
860.858	22622
860.99	22557
861.123	22352
861.256	22440
861.388	22409
861.521	23079
861.653	22295
861.786	22303
861.918	22276
862.05	22333
862.183	22367
862.315	22440
862.447	22440
862.58	22341
862.712	22299
862.844	22093
862.976	22268
863.108	22154
863.24	22523
863.372	22101
863.504	22131
863.636	22124
863.768	22204
863.9	22032
864.032	22154
864.164	22249
864.296	22116
864.428	22238
864.559	22246
864.691	22162
864.823	22238
864.954	22158
865.086	22143
865.217	22154
865.349	21983
865.48	21987
865.612	21941
865.743	22265
865.875	22074
866.006	21937
866.137	22143
866.269	22048
866.4	21941
866.531	22010
866.662	21987
866.793	21915
866.924	22029
867.055	21994
867.186	22029
867.317	21994
867.448	22006
867.579	21911
867.71	21857
867.841	21964
867.972	21926
868.103	21972
868.233	22074
868.364	22059
868.495	21949
868.625	22120
868.756	22337
868.886	22017
869.017	22257
869.147	22303
869.278	22348
869.408	22253
869.539	22329
869.669	22337
869.799	22242
869.929	22367
870.06	22322
870.19	22550
870.32	22607
870.45	22607
870.58	22645
870.71	22664
870.84	22694
870.97	22660
871.1	22462
871.23	22816
871.36	22862
871.489	22774
871.619	22782
871.749	22896
871.879	22786
872.008	22930
872.138	22797
872.267	22793
872.397	22489
872.526	22618
872.656	22508
872.785	22687
872.915	22843
873.044	22904
873.173	22877
873.303	22885
873.432	22854
873.561	22968
873.69	22881
873.819	22942
873.948	22862
874.077	22847
874.206	22892
874.335	22862
874.464	22995
874.593	23098
874.722	22968
874.851	22976
874.979	23185
875.108	23037
875.237	22968
875.365	22984
875.494	23117
875.623	23079
875.751	22984
875.88	23086
876.008	23155
876.136	23200
876.265	23379
876.393	23646
876.521	23554
876.65	23531
876.778	23356
876.906	23406
877.034	23341
877.162	23490
877.29	23296
877.418	23398
877.546	23478
877.674	23364
877.802	23459
877.93	23444
878.058	23341
878.185	23337
878.313	23421
878.441	23459
878.568	23242
878.696	23433
878.824	23406
878.951	23379
879.079	23729
879.206	23680
879.333	23493
879.461	23463
879.588	23444
879.715	23482
879.842	23539
879.97	23505
880.097	23151
880.224	23273
880.351	23174
880.478	23349
880.605	23140
880.732	23174
880.859	23391
880.986	23250
881.112	23151
881.239	23056
881.366	23014
881.493	22869
881.619	22847
881.746	22748
881.872	22797
881.999	22812
882.125	22725
882.252	22820
882.378	22721
882.505	22843
882.631	22573
882.757	22409
882.883	22527
883.01	22405
883.136	22367
883.262	22314
883.388	22207
883.514	22535
883.64	22436
883.766	22398
883.892	22322
884.018	22306
884.143	22417
884.269	22436
884.395	22310
884.52	22048
884.646	22040
884.772	22139
884.897	22109
885.023	22101
885.148	22143
885.274	22204
885.399	22219
885.524	22051
885.65	22040
885.775	22017
885.9	21991
886.025	22086
886.15	22181
886.275	22032
886.4	21998
886.525	22044
886.65	22101
886.775	21953
886.9	22215
887.025	22230
887.149	22002
887.274	21785
887.399	21911
887.523	21781
887.648	21732
887.773	21774
887.897	21842
888.021	21895
888.146	21759
888.27	22086
888.395	21991
888.519	21789
888.643	21800
888.767	21850
888.891	21759
889.015	21778
889.139	21618
889.263	21614
889.387	21743
889.511	21907
889.635	21823
889.759	21542
889.883	21538
890.006	21709
890.13	21762
890.254	21568
890.377	21629
890.501	21374
890.624	21428
890.748	21428
890.871	21302
890.995	21275
891.118	21150
891.241	21203
891.364	21230
891.488	21230
891.611	21104
891.734	21203
891.857	21192
891.98	21203
892.103	21173
892.226	21146
892.349	21154
892.471	20986
892.594	21058
892.717	21020
892.839	21055
892.962	21176
893.085	21085
893.207	21009
893.33	20868
893.452	20986
893.575	21089
893.697	20982
893.819	21180
893.941	21142
894.064	21188
894.186	20971
894.308	20819
894.43	20982
894.552	21207
894.674	21192
894.796	20982
894.918	21096
895.04	21146
895.161	21043
895.283	21028
895.405	20963
895.526	21074
895.648	21017
895.769	20982
895.891	21184
896.012	21211
896.134	21119
896.255	21135
896.376	20883
896.498	21096
896.619	21222
896.74	21039
896.861	21252
896.982	21363
897.103	21313
897.224	21310
897.345	21291
897.466	21275
897.587	21264
897.708	21443
897.828	21348
897.949	21214
898.07	21070
898.19	21218
898.311	21203
898.431	21135
898.552	21116
898.672	21287
898.792	21256
898.913	21252
899.033	21116
899.153	20967
899.273	20944
899.393	20929
899.513	21024
899.633	20982
899.753	21077
899.873	20864
899.993	21005
900.113	21009
900.232	20994
900.352	20845
900.472	20762
900.591	20602
900.711	20686
900.83	20735
900.95	20883
901.069	20800
901.189	20701
901.308	20393
901.427	20320
901.546	20309
901.665	20362
901.784	20358
901.904	20229
902.023	20111
902.141	19921
902.26	19902
902.379	19978
902.498	19852
902.617	19909
902.735	19944
902.854	19811
902.973	19693
903.091	19457
903.21	19529
903.328	19502
903.446	19335
903.565	19289
903.683	19240
903.801	19099
903.919	19217
904.038	19263
904.156	18996
904.274	19050
904.392	18970
904.51	18977
904.627	18996
904.745	19008
904.863	19065
904.981	18757
905.098	18593
905.216	18650
905.334	18768
905.451	18760
905.569	18635
905.686	18719
905.803	18658
905.921	18426
906.038	18582
906.155	18441
906.272	18319
906.389	18483
906.506	18232
906.623	18243
906.74	18239
906.857	18114
906.974	18136
907.091	18308
907.208	18254
907.324	18159
907.441	18117
907.557	17897
907.674	17950
907.79	17920
907.907	17878
908.023	17950
908.139	17916
908.256	17847
908.372	17832
908.488	17904
908.604	17684
908.72	17611
908.836	17646
908.952	17623
909.068	17760
909.184	17828
909.3	17528
909.415	17653
909.531	17627
909.647	17452
909.762	17284
909.878	17296
909.993	17296
910.108	17360
910.224	17235
910.339	17376
910.454	17261
910.57	17155
910.685	17041
910.8	17242
910.915	17216
911.03	17140
911.145	17018
911.259	16953
911.374	16900
911.489	16904
911.604	16801
911.718	16622
911.833	16721
911.947	16538
912.062	16542
912.176	16683
912.291	16717
912.405	16713
912.519	16896
912.633	16847
912.748	16812
912.862	16660
912.976	16508
913.09	16337
913.204	16493
913.318	16360
913.431	16523
913.545	16500
913.659	16485
913.772	16367
913.886	16360
914	16253
914.113	16386
914.226	16322
914.34	16238
914.453	16135
914.566	16238
914.68	16082
914.793	16067
914.906	15934
915.019	15876
915.132	15701
915.245	15854
915.358	15888
915.47	15743
915.583	15743
915.696	15869
915.809	15934
915.921	15983
916.034	15949
916.146	15671
916.259	15694
916.371	15762
916.483	15766
916.595	15663
916.708	15667
916.82	15686
916.932	15500
917.044	15637
917.156	15644
917.268	15443
917.38	15564
917.491	15412
917.603	15424
917.715	15576
917.826	15637
917.938	15370
918.049	15317
918.161	15389
918.272	15603
918.384	15557
918.495	15389
918.606	15218
918.717	15135
918.828	15241
918.939	15230
919.05	15249
919.161	15176
919.272	14895
919.383	15024
919.494	15306
919.604	15363
919.715	15146
919.826	15062
919.936	15256
920.047	15222
920.157	15245
920.267	15283
920.378	15108
920.488	15089
920.598	15351
920.708	15526
920.818	15355
920.928	15279
921.038	15481
921.148	15386
921.258	15062
921.368	15013
921.477	14910
921.587	14857
921.697	14754
921.806	14891
921.916	14762
922.025	14640
922.134	14522
922.244	14522
922.353	14560
922.462	14427
922.571	14438
922.68	14145
922.789	14225
922.898	14244
923.007	14164
923.116	14195
923.224	14172
923.333	14126
923.442	14008
923.55	13989
923.659	14100
923.767	14035
923.876	13917
923.984	14024
924.092	13955
924.201	13982
924.309	13913
924.417	13845
924.525	13928
924.633	13887
924.741	14659
924.849	13616
924.956	13769
925.064	13628
925.172	13472
925.279	13586
925.387	13620
925.494	13510
925.602	13674
925.709	13533
925.816	13537
925.924	13537
926.031	13571
926.138	13537
926.245	13636
926.352	13403
926.459	13559
926.566	13575
926.673	13521
926.779	13285
926.886	13316
926.993	13198
927.099	13137
927.206	13008
927.312	13107
927.419	13114
927.525	13107
927.631	13091
927.737	13053
927.843	13004
927.95	12890
928.056	12943
928.162	12951
928.267	12859
928.373	13537
928.479	12996
928.585	12757
928.69	12894
928.796	12901
928.901	12791
929.007	12528
929.112	12833
929.218	12798
929.323	12620
929.428	12662
929.533	12776
929.638	12593
929.743	12593
929.848	12631
929.953	12578
930.058	12502
930.163	12308
930.267	12346
930.372	12414
930.477	12292
930.581	12437
930.685	12319
930.79	12232
930.894	12213
930.998	12220
931.103	12407
931.207	11973
931.311	11847
931.415	11863
931.519	11532
931.623	11630
