Data from test_V78500241_3420.txt Node
Date: Fri Mar 25 16:05:29 CST 2022
User: usil
Spectrometer: V785-0024
Trigger mode: 0
Integration Time (sec): 4.000000E-1
Scans to average: 1
Nonlinearity correction enabled: false
Boxcar width: 0
Storing dark spectrum: false
XAxis mode: Wavelengths
Number of Pixels in Spectrum: 1024
>>>>>Begin Spectral Data<<<<<
801.071	28759
801.214	28729
801.356	28409
801.499	28401
801.641	28238
801.783	28169
801.926	28207
802.068	28265
802.211	28287
802.353	28188
802.496	28109
802.638	28090
802.78	27869
802.923	27979
803.065	27846
803.208	27903
803.35	27911
803.492	28082
803.635	28196
803.777	28010
803.919	28082
804.061	28356
804.204	28280
804.346	28006
804.488	28090
804.63	28181
804.773	27964
804.915	28318
805.057	28375
805.199	28021
805.341	28303
805.483	28306
805.626	28230
805.768	28230
805.91	28352
806.052	28382
806.194	28344
806.336	28565
806.478	28223
806.62	28386
806.762	28504
806.904	28683
807.046	28908
807.188	28748
807.33	28797
807.472	28862
807.614	28782
807.756	28812
807.898	28592
808.04	28497
808.182	28687
808.324	28645
808.465	28649
808.607	28968
808.749	29052
808.891	29159
809.033	29242
809.174	29258
809.316	29079
809.458	29037
809.6	28999
809.741	29117
809.883	29094
810.025	29269
810.166	29360
810.308	29398
810.45	29246
810.591	29204
810.733	28965
810.875	29094
811.016	28927
811.158	28919
811.299	29162
811.441	29181
811.582	29258
811.724	29083
811.865	29010
812.007	29086
812.148	29193
812.29	29170
812.431	29204
812.573	29433
812.714	29524
812.855	29581
812.997	29726
813.138	29851
813.279	29642
813.421	29577
813.562	29471
813.703	29269
813.845	29360
813.986	28976
814.127	28987
814.268	28786
814.41	28850
814.551	28721
814.692	28748
814.833	28759
814.974	28653
815.115	28831
815.256	28599
815.397	28554
815.539	28607
815.68	28592
815.821	28630
815.962	28557
816.103	28683
816.244	28459
816.385	28440
816.526	28379
816.666	28124
816.807	28017
816.948	28173
817.089	28242
817.23	28006
817.371	28120
817.512	28101
817.653	28013
817.793	27983
817.934	28036
818.075	28192
818.216	28090
818.356	27911
818.497	27991
818.638	27728
818.778	27899
818.919	27884
819.06	27884
819.2	27998
819.341	28097
819.481	28112
819.622	28265
819.762	28421
819.903	28409
820.043	28291
820.184	28242
820.324	28405
820.465	28253
820.605	28246
820.746	28185
820.886	28036
821.026	28238
821.167	28040
821.307	28162
821.447	28059
821.588	28101
821.728	27899
821.868	27819
822.008	27648
822.149	27667
822.289	27553
822.429	27332
822.569	27207
822.709	27283
822.849	27074
822.99	27096
823.13	27036
823.27	27024
823.41	26948
823.55	26811
823.69	27005
823.83	26864
823.97	26872
824.11	26644
824.25	26621
824.389	26731
824.529	26830
824.669	26594
824.809	26807
824.949	26701
825.089	26902
825.228	26819
825.368	26423
825.508	26473
825.648	26785
825.787	26750
825.927	26594
826.067	26560
826.206	26655
826.346	26746
826.485	26804
826.625	26621
826.765	26629
826.904	26693
827.044	26396
827.183	26385
827.323	26252
827.462	26381
827.601	26313
827.741	26328
827.88	26404
828.02	26145
828.159	26271
828.298	26313
828.437	26385
828.577	26366
828.716	26400
828.855	26210
828.994	26058
829.134	25849
829.273	25974
829.412	25955
829.551	25795
829.69	26039
829.829	25993
829.968	26081
830.107	26081
830.246	25963
830.385	25974
830.524	25826
830.663	25772
830.802	25769
830.941	25438
831.08	25616
831.219	25677
831.357	25723
831.496	25818
831.635	25609
831.774	25559
831.913	25518
832.051	25392
832.19	25335
832.329	25362
832.467	25247
832.606	25171
832.744	25168
832.883	25278
833.022	25251
833.16	25403
833.299	25312
833.437	25270
833.576	25468
833.714	25407
833.852	25392
833.991	25362
834.129	25449
834.267	25464
834.406	25403
834.544	25354
834.682	25270
834.821	25350
834.959	25369
835.097	25324
835.235	25381
835.373	25289
835.511	25289
835.65	25107
835.788	25187
835.926	25031
836.064	25057
836.202	25179
836.34	25190
836.478	25270
836.615	25088
836.753	25168
836.891	25285
837.029	25114
837.167	25365
837.305	25084
837.443	25023
837.58	25004
837.718	25084
837.856	25088
837.993	25099
838.131	24962
838.269	24776
838.406	24928
838.544	24760
838.681	24658
838.819	24593
838.956	24448
839.094	24460
839.231	24517
839.369	24730
839.506	24863
839.643	24749
839.781	24555
839.918	24277
840.055	24388
840.193	24388
840.33	24273
840.467	24197
840.604	24399
840.742	24703
840.879	24273
841.016	24372
841.153	24163
841.29	24311
841.427	24304
841.564	24433
841.701	24346
841.838	24273
841.975	24235
842.112	24338
842.249	24182
842.385	24155
842.522	24350
842.659	24144
842.796	24022
842.933	24155
843.069	24194
843.206	23996
843.343	24057
843.479	24136
843.616	24136
843.752	23939
843.889	23878
844.025	24049
844.162	23977
844.298	24030
844.435	23996
844.571	23870
844.708	23935
844.844	24129
844.98	23950
845.117	23923
845.253	23748
845.389	23840
845.525	23737
845.661	23764
845.798	23649
845.934	23718
846.07	23630
846.206	23680
846.342	23786
846.478	23649
846.614	23592
846.75	23341
846.886	23353
847.022	23444
847.158	23417
847.294	23273
847.429	23448
847.565	23318
847.701	23471
847.837	23071
847.972	22957
848.108	23162
848.244	23147
848.379	22961
848.515	22900
848.65	22835
848.786	22984
848.921	22953
849.057	23037
849.192	22892
849.328	23003
849.463	22927
849.598	22934
849.734	22908
849.869	22831
850.004	22702
850.14	22866
850.275	22744
850.41	22733
850.545	22691
850.68	22527
850.815	22634
850.95	22580
851.085	22881
851.22	22873
851.355	22694
851.49	22672
851.625	22569
851.76	22694
851.895	22599
852.03	22584
852.165	22596
852.299	22839
852.434	22721
852.569	22786
852.703	22782
852.838	22793
852.973	22805
853.107	22725
853.242	22717
853.376	22565
853.511	22409
853.645	22421
853.78	22710
853.914	22538
854.048	22417
854.183	22500
854.317	22485
854.451	22729
854.585	22577
854.72	22519
854.854	22630
854.988	22466
855.122	22481
855.256	22470
855.39	22504
855.524	22607
855.658	22626
855.792	22535
855.926	22462
856.06	22550
856.194	22717
856.327	22550
856.461	22538
856.595	22386
856.729	22569
856.862	22679
856.996	22577
857.13	22618
857.263	22706
857.397	22717
857.53	22489
857.664	22611
857.797	22618
857.931	22656
858.064	22504
858.197	22622
858.331	22481
858.464	22432
858.597	22386
858.731	22504
858.864	22557
858.997	22402
859.13	22542
859.263	22523
859.396	22630
859.529	22478
859.662	22489
859.795	22592
859.928	22645
860.061	22565
860.194	22866
860.327	22599
860.46	22580
860.592	22653
860.725	22664
860.858	22645
860.99	22451
861.123	22421
861.256	22474
861.388	22478
861.521	23341
861.653	22440
861.786	22219
861.918	22348
862.05	22386
862.183	22481
862.315	22504
862.447	22519
862.58	22538
862.712	22242
862.844	22291
862.976	22405
863.108	22306
863.24	22599
863.372	22166
863.504	22226
863.636	22226
863.768	22341
863.9	22192
864.032	22067
864.164	22150
864.296	22101
864.428	22379
864.559	22261
864.691	22291
864.823	22382
864.954	22325
865.086	22249
865.217	22143
865.349	22074
865.48	22074
865.612	22158
865.743	22207
865.875	22150
866.006	22154
866.137	22128
866.269	22093
866.4	22078
866.531	22017
866.662	22051
866.793	22017
866.924	22029
867.055	22105
867.186	22078
867.317	22036
867.448	21888
867.579	21888
867.71	21903
867.841	21934
867.972	21941
868.103	22051
868.233	22143
868.364	22059
868.495	22192
868.625	22333
868.756	22291
868.886	22295
869.017	22417
869.147	22352
869.278	22386
869.408	22181
869.539	22341
869.669	22485
869.799	22367
869.929	22443
870.06	22318
870.19	22554
870.32	22546
870.45	22725
870.58	22637
870.71	22771
870.84	22809
870.97	22584
871.1	22645
871.23	22793
871.36	22938
871.489	22816
871.619	22869
871.749	22885
871.879	22980
872.008	22965
872.138	22942
872.267	22896
872.397	22683
872.526	22637
872.656	22721
872.785	22778
872.915	22854
873.044	22953
873.173	23056
873.303	23056
873.432	22991
873.561	22980
873.69	22911
873.819	22885
873.948	23037
874.077	22923
874.206	22854
874.335	22820
874.464	23132
874.593	23296
874.722	23010
874.851	23029
874.979	23140
875.108	23155
875.237	23044
875.365	23037
875.494	23178
875.623	23162
875.751	23223
875.88	23189
876.008	23273
876.136	23231
876.265	23501
876.393	23615
876.521	23596
876.65	23551
876.778	23417
876.906	23467
877.034	23455
877.162	23531
877.29	23486
877.418	23326
877.546	23539
877.674	23379
877.802	23490
877.93	23478
878.058	23459
878.185	23296
878.313	23490
878.441	23493
878.568	23311
878.696	23448
878.824	23615
878.951	23524
879.079	23577
879.206	23832
879.333	23653
879.461	23577
879.588	23528
879.715	23649
879.842	23665
879.97	23634
880.097	23398
880.224	23402
880.351	23170
880.478	23197
880.605	23269
880.732	23239
880.859	23395
880.986	23322
881.112	23345
881.239	23174
881.366	23006
881.493	22862
881.619	22889
881.746	22885
881.872	22896
881.999	22797
882.125	22755
882.252	22930
882.378	22752
882.505	22873
882.631	22713
882.757	22538
882.883	22626
883.01	22538
883.136	22413
883.262	22428
883.388	22318
883.514	22546
883.64	22565
883.766	22402
883.892	22306
884.018	22363
884.143	22432
884.269	22516
884.395	22318
884.52	22196
884.646	22253
884.772	22154
884.897	21983
885.023	22185
885.148	22280
885.274	22363
885.399	22169
885.524	22166
885.65	22147
885.775	22124
885.9	22147
886.025	22139
886.15	22135
886.275	22139
886.4	21956
886.525	22226
886.65	22063
886.775	21998
886.9	22314
887.025	22337
887.149	22086
887.274	21884
887.399	21873
887.523	21892
887.648	21907
887.773	21804
887.897	21930
888.021	21972
888.146	21922
888.27	21918
888.395	22013
888.519	21793
888.643	21876
888.767	21846
888.891	21949
889.015	21633
889.139	21728
889.263	21595
889.387	21812
889.511	21899
889.635	21857
889.759	21682
889.883	21667
890.006	21641
890.13	21698
890.254	21625
890.377	21667
890.501	21511
890.624	21469
890.748	21458
890.871	21435
890.995	21264
891.118	21180
891.241	21252
891.364	21294
891.488	21439
891.611	21184
891.734	21325
891.857	21389
891.98	21233
892.103	21367
892.226	21241
892.349	21157
892.471	21093
892.594	21138
892.717	21249
892.839	21108
892.962	21089
893.085	21176
893.207	21157
893.33	21173
893.452	21142
893.575	21116
893.697	21104
893.819	21298
893.941	21272
894.064	21249
894.186	21154
894.308	21127
894.43	21138
894.552	21256
894.674	21192
894.796	21047
894.918	21013
895.04	21116
895.161	21264
895.283	21218
895.405	21024
895.526	21001
895.648	21211
895.769	21161
895.891	21233
896.012	21230
896.134	21291
896.255	21043
896.376	21066
896.498	21116
896.619	21146
896.74	21085
896.861	21161
896.982	21351
897.103	21500
897.224	21370
897.345	21260
897.466	21325
897.587	21302
897.708	21416
897.828	21298
897.949	21245
898.07	21180
898.19	21146
898.311	21359
898.431	21180
898.552	21237
898.672	21389
898.792	21370
898.913	21222
899.033	21142
899.153	20998
899.273	20857
899.393	20963
899.513	21085
899.633	21066
899.753	21074
899.873	20967
899.993	20990
900.113	21047
900.232	21001
900.352	20876
900.472	20921
900.591	20899
900.711	20815
900.83	20781
900.95	20937
901.069	20895
901.189	20701
901.308	20503
901.427	20381
901.546	20290
901.665	20434
901.784	20317
901.904	20305
902.023	20054
902.141	19986
902.26	19868
902.379	20008
902.498	19974
902.617	19849
902.735	19890
902.854	19826
902.973	19597
903.091	19514
903.21	19449
903.328	19525
903.446	19434
903.565	19377
903.683	19346
903.801	19141
903.919	19247
904.038	19255
904.156	19145
904.274	19152
904.392	19038
904.51	19141
904.627	18996
904.745	19194
904.863	19148
904.981	18920
905.098	18703
905.216	18776
905.334	18741
905.451	18749
905.569	18745
905.686	18825
905.803	18700
905.921	18563
906.038	18582
906.155	18479
906.272	18418
906.389	18452
906.506	18194
906.623	18342
906.74	18281
906.857	18102
906.974	18213
907.091	18342
907.208	18452
907.324	18380
907.441	18079
907.557	17958
907.674	18060
907.79	17897
907.907	17958
908.023	17999
908.139	18030
908.256	17923
908.372	17874
908.488	17874
908.604	17695
908.72	17733
908.836	17756
908.952	17581
909.068	17771
909.184	17790
909.3	17707
909.415	17707
909.531	17684
909.647	17440
909.762	17467
909.878	17330
909.993	17501
910.108	17311
910.224	17337
910.339	17433
910.454	17258
910.57	17086
910.685	17159
910.8	17490
910.915	17417
911.03	17174
911.145	17041
911.259	16896
911.374	16889
911.489	16809
911.604	16889
911.718	16702
911.833	16729
911.947	16634
912.062	16546
912.176	16736
912.291	16839
912.405	16740
912.519	16889
912.633	16793
912.748	16778
912.862	16755
912.976	16577
913.09	16344
913.204	16485
913.318	16527
913.431	16519
913.545	16580
913.659	16615
913.772	16523
913.886	16390
914	16246
914.113	16443
914.226	16466
914.34	16257
914.453	16223
914.566	16272
914.68	16128
914.793	16078
914.906	15968
915.019	15991
915.132	15781
915.245	15838
915.358	15926
915.47	15861
915.583	15827
915.696	15911
915.809	15964
915.921	16040
916.034	15873
916.146	15747
916.259	15816
916.371	15937
916.483	15793
916.595	15720
916.708	15732
916.82	15812
916.932	15713
917.044	15682
917.156	15572
917.268	15549
917.38	15511
917.491	15473
917.603	15553
917.715	15580
917.826	15610
917.938	15386
918.049	15389
918.161	15481
918.272	15500
918.384	15519
918.495	15534
918.606	15355
918.717	15131
918.828	15195
918.939	15264
919.05	15256
919.161	15146
919.272	15020
919.383	15032
919.494	15230
919.604	15431
919.715	15272
919.826	15119
919.936	15173
920.047	15264
920.157	15256
920.267	15374
920.378	15211
920.488	15245
920.598	15466
920.708	15496
920.818	15291
920.928	15268
921.038	15492
921.148	15401
921.258	15195
921.368	15089
921.477	14921
921.587	14952
921.697	14754
921.806	14933
921.916	14682
922.025	14602
922.134	14549
922.244	14473
922.353	14640
922.462	14423
922.571	14286
922.68	14267
922.789	14210
922.898	14237
923.007	14145
923.116	14142
923.224	14199
923.333	14126
923.442	14088
923.55	13959
923.659	14065
923.767	14145
923.876	14016
923.984	13955
924.092	14001
924.201	13909
924.309	13902
924.417	13974
924.525	13803
924.633	13921
924.741	14750
924.849	13666
924.956	13902
925.064	13708
925.172	13540
925.279	13590
925.387	13605
925.494	13628
925.602	13719
925.709	13537
925.816	13441
925.924	13468
926.031	13575
926.138	13529
926.245	13632
926.352	13472
926.459	13525
926.566	13525
926.673	13388
926.779	13377
926.886	13274
926.993	13160
927.099	13202
927.206	12996
927.312	13091
927.419	13282
927.525	13099
927.631	13133
927.737	13046
927.843	12973
927.95	12840
928.056	12909
928.162	13038
928.267	13069
928.373	13620
928.479	12905
928.585	12848
928.69	12871
928.796	12890
928.901	12837
929.007	12650
929.112	12760
929.218	12639
929.323	12677
929.428	12627
929.533	12814
929.638	12673
929.743	12597
929.848	12547
929.953	12555
930.058	12563
930.163	12357
930.267	12330
930.372	12433
930.477	12281
930.581	12475
930.685	12353
930.79	12216
930.894	12171
930.998	12098
931.103	12205
931.207	11988
931.311	11851
931.415	11786
931.519	11581
931.623	11516
