Data from test_V78500241_150.txt Node
Date: Fri Mar 25 15:42:50 CST 2022
User: usil
Spectrometer: V785-0024
Trigger mode: 0
Integration Time (sec): 4.000000E-1
Scans to average: 1
Nonlinearity correction enabled: false
Boxcar width: 0
Storing dark spectrum: false
XAxis mode: Wavelengths
Number of Pixels in Spectrum: 1024
>>>>>Begin Spectral Data<<<<<
801.071	29524
801.214	29505
801.356	29235
801.499	29204
801.641	29128
801.783	29178
801.926	29094
802.068	29124
802.211	28919
802.353	29029
802.496	28740
802.638	28717
802.78	28557
802.923	28599
803.065	28584
803.208	28599
803.35	28672
803.492	28866
803.635	28858
803.777	28721
803.919	28740
804.061	29105
804.204	28763
804.346	28771
804.488	28771
804.63	28805
804.773	28694
804.915	28668
805.057	28869
805.199	28812
805.341	28957
805.483	28953
805.626	28976
805.768	28812
805.91	28866
806.052	28831
806.194	28946
806.336	29212
806.478	28949
806.62	28972
806.762	29037
806.904	29174
807.046	29303
807.188	29299
807.33	29368
807.472	29277
807.614	29242
807.756	29181
807.898	29105
808.04	29071
808.182	29128
808.324	29056
808.465	29018
808.607	29284
808.749	29482
808.891	29490
809.033	29524
809.174	29486
809.316	29497
809.458	29471
809.6	29471
809.741	29463
809.883	29497
810.025	29649
810.166	29672
810.308	29634
810.45	29516
810.591	29524
810.733	29364
810.875	29440
811.016	29254
811.158	29417
811.299	29539
811.441	29452
811.582	29596
811.724	29471
811.865	29375
812.007	29227
812.148	29395
812.29	29421
812.431	29657
812.573	29630
812.714	29699
812.855	30015
812.997	29927
813.138	30049
813.279	29954
813.421	29939
813.562	29745
813.703	29668
813.845	29505
813.986	29258
814.127	28991
814.268	29022
814.41	29102
814.551	28809
814.692	29170
814.833	29006
814.974	29029
815.115	28892
815.256	28828
815.397	28706
815.539	28778
815.68	28733
815.821	28664
815.962	28717
816.103	28786
816.244	28615
816.385	28573
816.526	28390
816.666	28238
816.807	28173
816.948	28086
817.089	28154
817.23	28147
817.371	28105
817.512	28188
817.653	27972
817.793	28055
817.934	28139
818.075	28093
818.216	28147
818.356	28067
818.497	27979
818.638	27831
818.778	27804
818.919	27785
819.06	27911
819.2	27991
819.341	28013
819.481	28029
819.622	28185
819.762	28348
819.903	28272
820.043	28128
820.184	28082
820.324	28150
820.465	28249
820.605	28188
820.746	28238
820.886	28059
821.026	28097
821.167	28017
821.307	28090
821.447	28082
821.588	27903
821.728	27865
821.868	27663
822.008	27405
822.149	27466
822.289	27504
822.429	27275
822.569	27146
822.709	27157
822.849	26853
822.99	26944
823.13	26872
823.27	26819
823.41	26807
823.55	26686
823.69	26788
823.83	26663
823.97	26712
824.11	26495
824.25	26419
824.389	26629
824.529	26705
824.669	26488
824.809	26678
824.949	26629
825.089	26560
825.228	26583
825.368	26267
825.508	26313
825.648	26362
825.787	26427
825.927	26301
826.067	26248
826.206	26328
826.346	26305
826.485	26473
826.625	26267
826.765	26309
826.904	26355
827.044	26138
827.183	26024
827.323	26027
827.462	25959
827.601	26008
827.741	25947
827.88	25955
828.02	25609
828.159	25875
828.298	25966
828.437	25963
828.577	25894
828.716	26001
828.855	25875
828.994	25639
829.134	25613
829.273	25628
829.412	25559
829.551	25540
829.69	25552
829.829	25727
829.968	25647
830.107	25719
830.246	25616
830.385	25647
830.524	25525
830.663	25274
830.802	25377
830.941	25160
831.08	25183
831.219	25274
831.357	25145
831.496	25362
831.635	25084
831.774	25080
831.913	25076
832.051	24947
832.19	24981
832.329	24894
832.467	24791
832.606	24783
832.744	24817
832.883	24703
833.022	24700
833.16	24684
833.299	24867
833.437	24669
833.576	24844
833.714	24768
833.852	24768
833.991	24856
834.129	24897
834.267	24837
834.406	24677
834.544	24829
834.682	24806
834.821	24677
834.959	24992
835.097	24696
835.235	24806
835.373	24787
835.511	24768
835.65	24635
835.788	24627
835.926	24513
836.064	24372
836.202	24498
836.34	24639
836.478	24661
836.615	24559
836.753	24700
836.891	24692
837.029	24418
837.167	24445
837.305	24437
837.443	24525
837.58	24403
837.718	24509
837.856	24426
837.993	24441
838.131	24433
838.269	24228
838.406	24194
838.544	24251
838.681	23916
838.819	24018
838.956	23771
839.094	23798
839.231	23859
839.369	23927
839.506	24174
839.643	24098
839.781	23901
839.918	23809
840.055	23817
840.193	23729
840.33	23714
840.467	23661
840.604	23824
840.742	24030
840.879	23581
841.016	23714
841.153	23634
841.29	23813
841.427	23562
841.564	23748
841.701	23634
841.838	23623
841.975	23520
842.112	23623
842.249	23425
842.385	23353
842.522	23581
842.659	23444
842.796	23398
842.933	23425
843.069	23322
843.206	23330
843.343	23520
843.479	23425
843.616	23311
843.752	23330
843.889	23064
844.025	23231
844.162	23124
844.298	23231
844.435	23083
844.571	23090
844.708	23193
844.844	23273
844.98	23227
845.117	23231
845.253	23006
845.389	22873
845.525	22949
845.661	22919
845.798	22873
845.934	22820
846.07	22816
846.206	22816
846.342	22995
846.478	22831
846.614	22626
846.75	22550
846.886	22542
847.022	22637
847.158	22588
847.294	22573
847.429	22691
847.565	22493
847.701	22828
847.837	22249
847.972	22230
848.108	22341
848.244	22200
848.379	22143
848.515	22120
848.65	22181
848.786	22078
848.921	21968
849.057	22196
849.192	22166
849.328	22029
849.463	22044
849.598	21991
849.734	21953
849.869	21873
850.004	21816
850.14	21854
850.275	21804
850.41	21644
850.545	21720
850.68	21739
850.815	21812
850.95	21739
851.085	21945
851.22	21804
851.355	21823
851.49	21583
851.625	21709
851.76	21819
851.895	21603
852.03	21736
852.165	21709
852.299	21888
852.434	21816
852.569	21907
852.703	21713
852.838	21724
852.973	21838
853.107	21956
853.242	21690
853.376	21739
853.511	21458
853.645	21561
853.78	21644
853.914	21667
854.048	21564
854.183	21660
854.317	21557
854.451	21739
854.585	21591
854.72	21660
854.854	21625
854.988	21542
855.122	21526
855.256	21431
855.39	21603
855.524	21694
855.658	21587
855.792	21603
855.926	21694
856.06	21583
856.194	21641
856.327	21606
856.461	21542
856.595	21564
856.729	21530
856.862	21736
856.996	21564
857.13	21644
857.263	21637
857.397	21717
857.53	21545
857.664	21568
857.797	21534
857.931	21751
858.064	21648
858.197	21762
858.331	21435
858.464	21492
858.597	21431
858.731	21488
858.864	21534
858.997	21583
859.13	21454
859.263	21428
859.396	21622
859.529	21435
859.662	21462
859.795	21450
859.928	21488
860.061	21675
860.194	21759
860.327	21500
860.46	21576
860.592	21564
860.725	21603
860.858	21599
860.99	21572
861.123	21435
861.256	21485
861.388	21408
861.521	22105
861.653	21393
861.786	21374
861.918	21477
862.05	21367
862.183	21458
862.315	21519
862.447	21572
862.58	21477
862.712	21268
862.844	21207
862.976	21283
863.108	21252
863.24	21629
863.372	21138
863.504	21321
863.636	21207
863.768	21108
863.9	21195
864.032	21150
864.164	21188
864.296	21233
864.428	21195
864.559	21188
864.691	21131
864.823	21268
864.954	21150
865.086	21199
865.217	21104
865.349	20914
865.48	21131
865.612	21036
865.743	21214
865.875	21020
866.006	21135
866.137	21081
866.269	20998
866.4	21085
866.531	21096
866.662	21013
866.793	20971
866.924	20990
867.055	21005
867.186	20986
867.317	21085
867.448	20982
867.579	20982
867.71	20986
867.841	20895
867.972	21009
868.103	21036
868.233	20925
868.364	20975
868.495	21077
868.625	21245
868.756	21294
868.886	21066
869.017	21184
869.147	21405
869.278	21454
869.408	21397
869.539	21222
869.669	21287
869.799	21207
869.929	21325
870.06	21336
870.19	21466
870.32	21481
870.45	21644
870.58	21610
870.71	21656
870.84	21857
870.97	21667
871.1	21622
871.23	21835
871.36	21884
871.489	21637
871.619	21831
871.749	21766
871.879	21861
872.008	21941
872.138	21850
872.267	21842
872.397	21709
872.526	21587
872.656	21694
872.785	21728
872.915	21903
873.044	21899
873.173	21846
873.303	21903
873.432	21918
873.561	21941
873.69	21797
873.819	21800
873.948	21835
874.077	21842
874.206	21876
874.335	21850
874.464	22048
874.593	22067
874.722	22021
874.851	22143
874.979	22124
875.108	22219
875.237	22204
875.365	21979
875.494	21972
875.623	22097
875.751	22090
875.88	22173
876.008	22131
876.136	22363
876.265	22519
876.393	22588
876.521	22516
876.65	22561
876.778	22523
876.906	22413
877.034	22432
877.162	22531
877.29	22390
877.418	22478
877.546	22451
877.674	22459
877.802	22314
877.93	22474
878.058	22379
878.185	22356
878.313	22386
878.441	22360
878.568	22299
878.696	22382
878.824	22504
878.951	22531
879.079	22565
879.206	22706
879.333	22485
879.461	22516
879.588	22546
879.715	22565
879.842	22710
879.97	22497
880.097	22249
880.224	22318
880.351	22261
880.478	22287
880.605	22154
880.732	22211
880.859	22474
880.986	22242
881.112	22242
881.239	22166
881.366	22059
881.493	22048
881.619	21918
881.746	21762
881.872	21854
881.999	21850
882.125	21770
882.252	21861
882.378	21854
882.505	21983
882.631	21755
882.757	21732
882.883	21595
883.01	21583
883.136	21485
883.262	21458
883.388	21424
883.514	21545
883.64	21625
883.766	21485
883.892	21344
884.018	21291
884.143	21538
884.269	21648
884.395	21412
884.52	21112
884.646	21184
884.772	21184
884.897	21085
885.023	21119
885.148	21192
885.274	21329
885.399	21226
885.524	21074
885.65	21161
885.775	21180
885.9	21119
886.025	21275
886.15	21268
886.275	21070
886.4	21070
886.525	21131
886.65	21093
886.775	21085
886.9	21321
887.025	21378
887.149	21085
887.274	20910
887.399	21017
887.523	20979
887.648	20868
887.773	20849
887.897	20994
888.021	20914
888.146	20853
888.27	20956
888.395	21032
888.519	21058
888.643	20956
888.767	20891
888.891	20853
889.015	20804
889.139	20811
889.263	20632
889.387	20712
889.511	20849
889.635	20731
889.759	20640
889.883	20667
890.006	20602
890.13	20785
890.254	20511
890.377	20632
890.501	20438
890.624	20518
890.748	20423
890.871	20313
890.995	20294
891.118	20138
891.241	20267
891.364	20229
891.488	20374
891.611	20221
891.734	20298
891.857	20358
891.98	20294
892.103	20320
892.226	20282
892.349	20149
892.471	20050
892.594	20202
892.717	20267
892.839	20111
892.962	20111
893.085	20320
893.207	20168
893.33	19986
893.452	20035
893.575	20225
893.697	20115
893.819	20324
893.941	20408
894.064	20385
894.186	20145
894.308	20168
894.43	20195
894.552	20240
894.674	20339
894.796	20145
894.918	20237
895.04	20187
895.161	20164
895.283	20206
895.405	20043
895.526	20176
895.648	20237
895.769	20225
895.891	20237
896.012	20385
896.134	20256
896.255	20256
896.376	20187
896.498	20286
896.619	20381
896.74	20065
896.861	20339
896.982	20541
897.103	20689
897.224	20450
897.345	20362
897.466	20469
897.587	20476
897.708	20602
897.828	20450
897.949	20324
898.07	20244
898.19	20404
898.311	20659
898.431	20237
898.552	20423
898.672	20461
898.792	20385
898.913	20309
899.033	20244
899.153	20126
899.273	20031
899.393	20100
899.513	20069
899.633	20008
899.753	20043
899.873	19955
899.993	20058
900.113	19989
900.232	20130
900.352	19917
900.472	19845
900.591	19890
900.711	19921
900.83	19788
900.95	19944
901.069	20001
901.189	19647
901.308	19746
901.427	19571
901.546	19525
901.665	19464
901.784	19609
901.904	19308
902.023	19198
902.141	19000
902.26	19072
902.379	19110
902.498	18932
902.617	18943
902.735	18954
902.854	18939
902.973	18837
903.091	18669
903.21	18730
903.328	18650
903.446	18483
903.565	18563
903.683	18426
903.801	18350
903.919	18464
904.038	18426
904.156	18190
904.274	18270
904.392	18133
904.51	18247
904.627	18133
904.745	18304
904.863	18186
904.981	18053
905.098	17726
905.216	17794
905.334	17882
905.451	17950
905.569	17866
905.686	17965
905.803	17980
905.921	17741
906.038	17828
906.155	17608
906.272	17535
906.389	17604
906.506	17364
906.623	17349
906.74	17360
906.857	17200
906.974	17220
907.091	17448
907.208	17467
907.324	17334
907.441	17311
907.557	17178
907.674	16949
907.79	16889
907.907	16984
908.023	17155
908.139	17056
908.256	16923
908.372	16877
908.488	16873
908.604	16805
908.72	16733
908.836	16786
908.952	16729
909.068	16649
909.184	16892
909.3	16721
909.415	16767
909.531	16736
909.647	16512
909.762	16417
909.878	16314
909.993	16390
910.108	16462
910.224	16386
910.339	16466
910.454	16234
910.57	16333
910.685	16215
910.8	16421
910.915	16367
911.03	16265
911.145	16082
911.259	16032
911.374	16013
911.489	15876
911.604	15895
911.718	15774
911.833	15720
911.947	15701
912.062	15759
912.176	15778
912.291	15751
912.405	15660
912.519	15953
912.633	15850
912.748	15808
912.862	15679
912.976	15580
913.09	15435
913.204	15477
913.318	15545
913.431	15576
913.545	15542
913.659	15652
913.772	15435
913.886	15405
914	15477
914.113	15317
914.226	15492
914.34	15412
914.453	15192
914.566	15405
914.68	15195
914.793	15306
914.906	14944
915.019	14986
915.132	14948
915.245	14857
915.358	15070
915.47	15081
915.583	15077
915.696	14971
915.809	15043
915.921	15028
916.034	14887
916.146	14902
916.259	14842
916.371	15024
916.483	14872
916.595	14883
916.708	14819
916.82	14845
916.932	14758
917.044	14777
917.156	14697
917.268	14644
917.38	14674
917.491	14655
917.603	14575
917.715	14655
917.826	14598
917.938	14541
918.049	14465
918.161	14602
918.272	14655
918.384	14659
918.495	14640
918.606	14408
918.717	14339
918.828	14431
918.939	14412
919.05	14256
919.161	14355
919.272	14069
919.383	14176
919.494	14442
919.604	14533
919.715	14355
919.826	14320
919.936	14290
920.047	14259
920.157	14339
920.267	14454
920.378	14282
920.488	14233
920.598	14507
920.708	14594
920.818	14469
920.928	14484
921.038	14560
921.148	14617
921.258	14256
921.368	14138
921.477	14092
921.587	14046
921.697	13925
921.806	14054
921.916	13830
922.025	13731
922.134	13742
922.244	13632
922.353	13750
922.462	13605
922.571	13453
922.68	13354
922.789	13198
922.898	13327
923.007	13251
923.116	13263
923.224	13293
923.333	13228
923.442	13084
923.55	13149
923.659	13126
923.767	13129
923.876	13133
923.984	13168
924.092	13034
924.201	13065
924.309	13091
924.417	13042
924.525	12989
924.633	12958
924.741	13753
924.849	12814
924.956	12852
925.064	12779
925.172	12650
925.279	12719
925.387	12768
925.494	12738
925.602	12856
925.709	12779
925.816	12707
925.924	12631
926.031	12795
926.138	12570
926.245	12650
926.352	12673
926.459	12700
926.566	12741
926.673	12662
926.779	12525
926.886	12441
926.993	12330
927.099	12346
927.206	12243
927.312	12209
927.419	12384
927.525	12254
927.631	12296
927.737	12129
927.843	12148
927.95	12038
928.056	12144
928.162	12159
928.267	12186
928.373	12810
928.479	12182
928.585	11923
928.69	12072
928.796	12106
928.901	12060
929.007	11859
929.112	11916
929.218	11988
929.323	11889
929.428	11813
929.533	11992
929.638	11710
929.743	11802
929.848	11904
929.953	11718
930.058	11722
930.163	11532
930.267	11589
930.372	11623
930.477	11566
930.581	11665
930.685	11630
930.79	11406
930.894	11429
930.998	11368
931.103	11535
931.207	11102
931.311	10999
931.415	11014
931.519	10809
931.623	10828
