Data from test_V78500241_1894.txt Node
Date: Fri Mar 25 15:54:55 CST 2022
User: usil
Spectrometer: V785-0024
Trigger mode: 0
Integration Time (sec): 4.000000E-1
Scans to average: 1
Nonlinearity correction enabled: false
Boxcar width: 0
Storing dark spectrum: false
XAxis mode: Wavelengths
Number of Pixels in Spectrum: 1024
>>>>>Begin Spectral Data<<<<<
801.071	28797
801.214	28713
801.356	28565
801.499	28367
801.641	28356
801.783	28337
801.926	28371
802.068	28440
802.211	28158
802.353	28150
802.496	27964
802.638	27956
802.78	27914
802.923	28025
803.065	27964
803.208	27994
803.35	28017
803.492	28082
803.635	28192
803.777	28025
803.919	28204
804.061	28535
804.204	28265
804.346	28287
804.488	28147
804.63	28211
804.773	28143
804.915	28223
805.057	28398
805.199	28272
805.341	28356
805.483	28535
805.626	28440
805.768	28344
805.91	28577
806.052	28459
806.194	28291
806.336	28390
806.478	28542
806.62	28432
806.762	28489
806.904	28641
807.046	28949
807.188	28824
807.33	28801
807.472	29022
807.614	28809
807.756	28915
807.898	28877
808.04	28637
808.182	28588
808.324	28809
808.465	28717
808.607	28873
808.749	29037
808.891	29292
809.033	29174
809.174	29132
809.316	29136
809.458	29067
809.6	29037
809.741	29159
809.883	29231
810.025	29372
810.166	29254
810.308	29417
810.45	29360
810.591	29113
810.733	29037
810.875	29018
811.016	29044
811.158	28965
811.299	29239
811.441	29159
811.582	29334
811.724	28987
811.865	29105
812.007	29018
812.148	29227
812.29	29121
812.431	29330
812.573	29444
812.714	29474
812.855	29547
812.997	29707
813.138	29722
813.279	29596
813.421	29604
813.562	29543
813.703	29433
813.845	29360
813.986	29128
814.127	28869
814.268	28793
814.41	28820
814.551	28976
814.692	28721
814.833	28618
814.974	28801
815.115	28862
815.256	28706
815.397	28774
815.539	28573
815.68	28596
815.821	28500
815.962	28649
816.103	28641
816.244	28546
816.385	28401
816.526	28398
816.666	28124
816.807	27994
816.948	28211
817.089	28147
817.23	28211
817.371	28223
817.512	28055
817.653	28090
817.793	28067
817.934	28055
818.075	28124
818.216	28192
818.356	28109
818.497	28017
818.638	27884
818.778	27797
818.919	27854
819.06	27991
819.2	28059
819.341	28063
819.481	28303
819.622	28280
819.762	28451
819.903	28428
820.043	28230
820.184	28356
820.324	28295
820.465	28287
820.605	28295
820.746	28219
820.886	28158
821.026	28249
821.167	28131
821.307	28226
821.447	28139
821.588	27945
821.728	28040
821.868	27800
822.008	27667
822.149	27637
822.289	27591
822.429	27336
822.569	27336
822.709	27340
822.849	27100
822.99	27096
823.13	27009
823.27	27001
823.41	26933
823.55	26655
823.69	26933
823.83	26975
823.97	26857
824.11	26697
824.25	26731
824.389	26769
824.529	26811
824.669	26648
824.809	26788
824.949	27123
825.089	26952
825.228	26838
825.368	26625
825.508	26811
825.648	26693
825.787	26716
825.927	26811
826.067	26587
826.206	26533
826.346	26651
826.485	26568
826.625	26617
826.765	26750
826.904	26678
827.044	26434
827.183	26480
827.323	26317
827.462	26366
827.601	26347
827.741	26286
827.88	26214
828.02	26218
828.159	26332
828.298	26221
828.437	26343
828.577	26267
828.716	26393
828.855	26206
828.994	26054
829.134	26027
829.273	26016
829.412	26050
829.551	25970
829.69	26130
829.829	25940
829.968	26016
830.107	26187
830.246	25890
830.385	25906
830.524	25826
830.663	25841
830.802	25788
830.941	25734
831.08	25590
831.219	25582
831.357	25849
831.496	25989
831.635	25609
831.774	25499
831.913	25556
832.051	25449
832.19	25415
832.329	25407
832.467	25388
832.606	25263
832.744	25274
832.883	25354
833.022	25251
833.16	25285
833.299	25206
833.437	25392
833.576	25392
833.714	25430
833.852	25457
833.991	25422
834.129	25571
834.267	25362
834.406	25552
834.544	25392
834.682	25460
834.821	25495
834.959	25578
835.097	25183
835.235	25415
835.373	25438
835.511	25297
835.65	25270
835.788	25168
835.926	25069
836.064	25050
836.202	25038
836.34	25285
836.478	25350
836.615	25221
836.753	25156
836.891	25228
837.029	25103
837.167	25057
837.305	25126
837.443	25156
837.58	24932
837.718	25129
837.856	25053
837.993	24928
838.131	24935
838.269	24844
838.406	24916
838.544	24844
838.681	24703
838.819	24707
838.956	24448
839.094	24490
839.231	24616
839.369	24646
839.506	24825
839.643	24749
839.781	24437
839.918	24429
840.055	24452
840.193	24369
840.33	24342
840.467	24247
840.604	24380
840.742	24635
840.879	24304
841.016	24395
841.153	24281
841.29	24536
841.427	24422
841.564	24273
841.701	24350
841.838	24361
841.975	24205
842.112	24224
842.249	24235
842.385	24239
842.522	24308
842.659	24254
842.796	24102
842.933	24091
843.069	24190
843.206	24030
843.343	24201
843.479	24197
843.616	24110
843.752	23977
843.889	23893
844.025	24045
844.162	23935
844.298	24007
844.435	23859
844.571	23920
844.708	23901
844.844	24106
844.98	24064
845.117	24038
845.253	23912
845.389	23923
845.525	23832
845.661	23566
845.798	23695
845.934	23779
846.07	23691
846.206	23665
846.342	23748
846.478	23661
846.614	23376
846.75	23292
846.886	23311
847.022	23383
847.158	23364
847.294	23337
847.429	23341
847.565	23197
847.701	23566
847.837	23159
847.972	23121
848.108	23216
848.244	23212
848.379	22889
848.515	22873
848.65	22980
848.786	22820
848.921	23006
849.057	23185
849.192	23094
849.328	22900
849.463	22908
849.598	22892
849.734	22847
849.869	22816
850.004	22717
850.14	22721
850.275	22759
850.41	22538
850.545	22710
850.68	22611
850.815	22812
850.95	22573
851.085	22965
851.22	22843
851.355	22717
851.49	22725
851.625	22668
851.76	22694
851.895	22668
852.03	22694
852.165	22744
852.299	22820
852.434	22805
852.569	22596
852.703	22717
852.838	22862
852.973	22824
853.107	22843
853.242	22611
853.376	22607
853.511	22451
853.645	22451
853.78	22584
853.914	22516
854.048	22531
854.183	22512
854.317	22561
854.451	22577
854.585	22641
854.72	22618
854.854	22626
854.988	22519
855.122	22630
855.256	22478
855.39	22516
855.524	22596
855.658	22550
855.792	22531
855.926	22618
856.06	22599
856.194	22634
856.327	22493
856.461	22440
856.595	22497
856.729	22470
856.862	22588
856.996	22512
857.13	22641
857.263	22584
857.397	22554
857.53	22554
857.664	22637
857.797	22504
857.931	22641
858.064	22588
858.197	22603
858.331	22523
858.464	22443
858.597	22344
858.731	22447
858.864	22512
858.997	22573
859.13	22519
859.263	22550
859.396	22645
859.529	22432
859.662	22478
859.795	22542
859.928	22485
860.061	22542
860.194	22717
860.327	22592
860.46	22630
860.592	22729
860.725	22717
860.858	22649
860.99	22630
861.123	22523
861.256	22390
861.388	22618
861.521	23315
861.653	22402
861.786	22424
861.918	22493
862.05	22344
862.183	22508
862.315	22428
862.447	22409
862.58	22447
862.712	22105
862.844	22074
862.976	22348
863.108	22348
863.24	22778
863.372	22074
863.504	22246
863.636	22306
863.768	22261
863.9	22291
864.032	22192
864.164	22284
864.296	22150
864.428	22371
864.559	22344
864.691	22295
864.823	22238
864.954	22223
865.086	22204
865.217	22040
865.349	21956
865.48	22166
865.612	22059
865.743	22226
865.875	22078
866.006	22112
866.137	22074
866.269	22131
866.4	22090
866.531	22029
866.662	22006
866.793	21865
866.924	22105
867.055	22051
867.186	22082
867.317	21956
867.448	21987
867.579	22013
867.71	21850
867.841	21956
867.972	21998
868.103	22021
868.233	21968
868.364	22105
868.495	22139
868.625	22322
868.756	22306
868.886	22310
869.017	22253
869.147	22280
869.278	22379
869.408	22265
869.539	22230
869.669	22428
869.799	22314
869.929	22413
870.06	22459
870.19	22607
870.32	22573
870.45	22603
870.58	22618
870.71	22736
870.84	22904
870.97	22649
871.1	22744
871.23	22782
871.36	22835
871.489	22763
871.619	22904
871.749	22911
871.879	22820
872.008	22892
872.138	22938
872.267	22843
872.397	22831
872.526	22573
872.656	22839
872.785	22733
872.915	22911
873.044	23048
873.173	22965
873.303	22896
873.432	23064
873.561	22968
873.69	23025
873.819	22862
873.948	23052
874.077	22957
874.206	22790
874.335	22828
874.464	22972
874.593	23204
874.722	23140
874.851	23204
874.979	23193
875.108	23280
875.237	23147
875.365	22995
875.494	23033
875.623	23151
875.751	23174
875.88	23185
876.008	23235
876.136	23322
876.265	23558
876.393	23539
876.521	23501
876.65	23505
876.778	23562
876.906	23535
877.034	23490
877.162	23516
877.29	23467
877.418	23425
877.546	23417
877.674	23376
877.802	23398
877.93	23433
878.058	23402
878.185	23364
878.313	23395
878.441	23490
878.568	23200
878.696	23334
878.824	23581
878.951	23490
879.079	23608
879.206	23809
879.333	23562
879.461	23619
879.588	23619
879.715	23543
879.842	23817
879.97	23562
880.097	23296
880.224	23337
880.351	23383
880.478	23136
880.605	23223
880.732	23326
880.859	23440
880.986	23181
881.112	23277
881.239	23060
881.366	23098
881.493	22946
881.619	22911
881.746	22809
881.872	22755
881.999	22805
882.125	22790
882.252	22965
882.378	22869
882.505	22900
882.631	22603
882.757	22592
882.883	22459
883.01	22550
883.136	22417
883.262	22409
883.388	22436
883.514	22519
883.64	22550
883.766	22344
883.892	22344
884.018	22295
884.143	22329
884.269	22516
884.395	22177
884.52	22223
884.646	22219
884.772	22139
884.897	21964
885.023	22211
885.148	22265
885.274	22257
885.399	22192
885.524	22139
885.65	22101
885.775	22082
885.9	21983
886.025	22284
886.15	22268
886.275	22059
886.4	22173
886.525	22093
886.65	22124
886.775	22013
886.9	22280
887.025	22318
887.149	21991
887.274	21975
887.399	21941
887.523	21812
887.648	21922
887.773	21831
887.897	21987
888.021	21888
888.146	21732
888.27	21915
888.395	21953
888.519	21888
888.643	21937
888.767	21816
888.891	21759
889.015	21701
889.139	21762
889.263	21686
889.387	21911
889.511	21854
889.635	21797
889.759	21652
889.883	21774
890.006	21587
890.13	21762
890.254	21595
890.377	21675
890.501	21310
890.624	21264
890.748	21466
890.871	21283
890.995	21348
891.118	21332
891.241	21325
891.364	21268
891.488	21393
891.611	21218
891.734	21233
891.857	21218
891.98	21245
892.103	21268
892.226	21161
892.349	21157
892.471	21058
892.594	21226
892.717	21279
892.839	21116
892.962	21070
893.085	21138
893.207	21226
893.33	20979
893.452	20994
893.575	21096
893.697	21169
893.819	21405
893.941	21397
894.064	21272
894.186	21017
894.308	20990
894.43	21237
894.552	21146
894.674	21070
894.796	21150
894.918	21043
895.04	20998
895.161	21195
895.283	21085
895.405	21017
895.526	21112
895.648	21047
895.769	21116
895.891	21100
896.012	21146
896.134	21100
896.255	21180
896.376	21013
896.498	21020
896.619	21135
896.74	21184
896.861	21165
896.982	21439
897.103	21557
897.224	21454
897.345	21260
897.466	21245
897.587	21302
897.708	21428
897.828	21393
897.949	21252
898.07	21188
898.19	21161
898.311	21336
898.431	21279
898.552	21344
898.672	21291
898.792	21230
898.913	21291
899.033	21077
899.153	21005
899.273	20944
899.393	21005
899.513	21039
899.633	21020
899.753	21093
899.873	20982
899.993	21024
900.113	21055
900.232	20941
900.352	20887
900.472	20796
900.591	20845
900.711	20785
900.83	20811
900.95	20823
901.069	20853
901.189	20712
901.308	20522
901.427	20400
901.546	20434
901.665	20355
901.784	20442
901.904	20195
902.023	20206
902.141	19917
902.26	19894
902.379	19982
902.498	19868
902.617	19841
902.735	19913
902.854	19811
902.973	19651
903.091	19575
903.21	19537
903.328	19480
903.446	19320
903.565	19320
903.683	19354
903.801	19304
903.919	19244
904.038	19327
904.156	19080
904.274	19244
904.392	19080
904.51	19034
904.627	19038
904.745	19088
904.863	19057
904.981	18776
905.098	18783
905.216	18753
905.334	18677
905.451	18722
905.569	18722
905.686	18795
905.803	18658
905.921	18502
906.038	18570
906.155	18563
906.272	18433
906.389	18509
906.506	18281
906.623	18285
906.74	18262
906.857	18258
906.974	18213
907.091	18399
907.208	18304
907.324	18266
907.441	18224
907.557	18060
907.674	18053
907.79	17878
907.907	17946
908.023	18034
908.139	17999
908.256	17897
908.372	17794
908.488	17760
908.604	17817
908.72	17653
908.836	17847
908.952	17691
909.068	17714
909.184	17832
909.3	17707
909.415	17794
909.531	17680
909.647	17379
909.762	17440
909.878	17383
909.993	17414
910.108	17402
910.224	17254
910.339	17258
910.454	17246
910.57	17185
910.685	17071
910.8	17467
910.915	17307
911.03	17151
911.145	17022
911.259	17014
911.374	16797
911.489	16908
911.604	16835
911.718	16698
911.833	16774
911.947	16573
912.062	16596
912.176	16683
912.291	16630
912.405	16805
912.519	16885
912.633	16786
912.748	16717
912.862	16694
912.976	16554
913.09	16337
913.204	16577
913.318	16523
913.431	16641
913.545	16497
913.659	16641
913.772	16405
913.886	16318
914	16306
914.113	16413
914.226	16421
914.34	16443
914.453	16196
914.566	16352
914.68	16242
914.793	16158
914.906	16010
915.019	15949
915.132	15850
915.245	15842
915.358	15876
915.47	15827
915.583	15884
915.696	15850
915.809	15998
915.921	16013
916.034	15876
916.146	15865
916.259	15736
916.371	15819
916.483	15827
916.595	15774
916.708	15728
916.82	15698
916.932	15759
917.044	15709
917.156	15686
917.268	15523
917.38	15576
917.491	15519
917.603	15526
917.715	15606
917.826	15667
917.938	15401
918.049	15435
918.161	15500
918.272	15698
918.384	15561
918.495	15454
918.606	15275
918.717	15218
918.828	15329
918.939	15321
919.05	15173
919.161	15218
919.272	15036
919.383	15150
919.494	15249
919.604	15500
919.715	15237
919.826	15180
919.936	15093
920.047	15332
920.157	15359
920.267	15351
920.378	15184
920.488	15230
920.598	15325
920.708	15496
920.818	15450
920.928	15378
921.038	15439
921.148	15382
921.258	15199
921.368	15043
921.477	14971
921.587	14948
921.697	14811
921.806	14918
921.916	14883
922.025	14712
922.134	14610
922.244	14518
922.353	14674
922.462	14469
922.571	14415
922.68	14294
922.789	14168
922.898	14172
923.007	14161
923.116	14233
923.224	14218
923.333	14149
923.442	14077
923.55	14012
923.659	14077
923.767	14172
923.876	13932
923.984	14088
924.092	13871
924.201	13951
924.309	13928
924.417	13883
924.525	13887
924.633	13871
924.741	14621
924.849	13715
924.956	13791
925.064	13647
925.172	13567
925.279	13506
925.387	13636
925.494	13567
925.602	13723
925.709	13674
925.816	13491
925.924	13480
926.031	13620
926.138	13540
926.245	13616
926.352	13407
926.459	13495
926.566	13636
926.673	13441
926.779	13377
926.886	13282
926.993	13164
927.099	13198
927.206	13076
927.312	13084
927.419	13141
927.525	13126
927.631	13152
927.737	13152
927.843	13004
927.95	12909
928.056	12954
928.162	12962
928.267	12973
928.373	13586
928.479	13076
928.585	12791
928.69	12871
928.796	12962
928.901	12798
929.007	12734
929.112	12817
929.218	12795
929.323	12703
929.428	12719
929.533	12810
929.638	12604
929.743	12566
929.848	12703
929.953	12608
930.058	12517
930.163	12315
930.267	12327
930.372	12399
930.477	12232
930.581	12471
930.685	12452
930.79	12304
930.894	12178
930.998	12182
931.103	12350
931.207	11984
931.311	11836
931.415	11802
931.519	11558
931.623	11581
