Data from test_V78500241_2252.txt Node
Date: Fri Mar 25 15:57:24 CST 2022
User: usil
Spectrometer: V785-0024
Trigger mode: 0
Integration Time (sec): 4.000000E-1
Scans to average: 1
Nonlinearity correction enabled: false
Boxcar width: 0
Storing dark spectrum: false
XAxis mode: Wavelengths
Number of Pixels in Spectrum: 1024
>>>>>Begin Spectral Data<<<<<
801.071	29151
801.214	29067
801.356	28900
801.499	28904
801.641	28752
801.783	28531
801.926	28824
802.068	28683
802.211	28603
802.353	28500
802.496	28401
802.638	28405
802.78	28337
802.923	28249
803.065	28303
803.208	28246
803.35	28459
803.492	28596
803.635	28611
803.777	28622
803.919	28706
804.061	29128
804.204	28809
804.346	28538
804.488	28485
804.63	28733
804.773	28645
804.915	28672
805.057	28881
805.199	28687
805.341	28725
805.483	28877
805.626	28835
805.768	28835
805.91	28805
806.052	28927
806.194	28790
806.336	29105
806.478	28900
806.62	28927
806.762	28961
806.904	29067
807.046	29292
807.188	29341
807.33	29414
807.472	29433
807.614	29227
807.756	29231
807.898	29143
808.04	29022
808.182	29033
808.324	29079
808.465	29162
808.607	29448
808.749	29566
808.891	29589
809.033	29722
809.174	29493
809.316	29554
809.458	29528
809.6	29368
809.741	29646
809.883	29737
810.025	29908
810.166	29817
810.308	29961
810.45	29889
810.591	29760
810.733	29600
810.875	29615
811.016	29512
811.158	29566
811.299	29608
811.441	29718
811.582	29764
811.724	29585
811.865	29604
812.007	29505
812.148	29718
812.29	29642
812.431	29653
812.573	29912
812.714	29935
812.855	30114
812.997	30243
813.138	30361
813.279	30194
813.421	29958
813.562	30057
813.703	29889
813.845	29760
813.986	29638
814.127	29459
814.268	29261
814.41	29303
814.551	29337
814.692	29410
814.833	29242
814.974	29212
815.115	29227
815.256	29113
815.397	29117
815.539	29200
815.68	29170
815.821	29094
815.962	28930
816.103	29140
816.244	29044
816.385	28930
816.526	28869
816.666	28752
816.807	28550
816.948	28656
817.089	28713
817.23	28607
817.371	28577
817.512	28653
817.653	28493
817.793	28542
817.934	28561
818.075	28717
818.216	28557
818.356	28630
818.497	28493
818.638	28413
818.778	28398
818.919	28443
819.06	28527
819.2	28538
819.341	28599
819.481	28630
819.622	28748
819.762	29121
819.903	28881
820.043	28843
820.184	28637
820.324	28694
820.465	28755
820.605	28801
820.746	28736
820.886	28630
821.026	28634
821.167	28717
821.307	28683
821.447	28664
821.588	28653
821.728	28485
821.868	28177
822.008	28120
822.149	28055
822.289	28204
822.429	27895
822.569	27934
822.709	27835
822.849	27694
822.99	27671
823.13	27587
823.27	27667
823.41	27325
823.55	27306
823.69	27386
823.83	27530
823.97	27283
824.11	27283
824.25	27294
824.389	27157
824.529	27348
824.669	27374
824.809	27355
824.949	27264
825.089	27420
825.228	27526
825.368	27116
825.508	27074
825.648	27135
825.787	27081
825.927	27233
826.067	27249
826.206	27119
826.346	27188
826.485	27325
826.625	27142
826.765	27230
826.904	27222
827.044	27070
827.183	26914
827.323	26838
827.462	26921
827.601	26937
827.741	26834
827.88	26921
828.02	26758
828.159	26864
828.298	26705
828.437	26937
828.577	26739
828.716	27001
828.855	26705
828.994	26453
829.134	26644
829.273	26598
829.412	26541
829.551	26621
829.69	26438
829.829	26579
829.968	26693
830.107	26541
830.246	26499
830.385	26571
830.524	26522
830.663	26301
830.802	26347
830.941	26240
831.08	26073
831.219	26313
831.357	26229
831.496	26313
831.635	26218
831.774	26142
831.913	26134
832.051	25986
832.19	26008
832.329	26107
832.467	25769
832.606	25719
832.744	25803
832.883	25738
833.022	25902
833.16	25757
833.299	25856
833.437	25951
833.576	25955
833.714	25765
833.852	25951
833.991	26005
834.129	26039
834.267	25822
834.406	25909
834.544	25940
834.682	25822
834.821	25803
834.959	25966
835.097	25864
835.235	25978
835.373	25803
835.511	25887
835.65	25700
835.788	25700
835.926	25658
836.064	25605
836.202	25635
836.34	25715
836.478	25746
836.615	25772
836.753	25628
836.891	25635
837.029	25662
837.167	25578
837.305	25605
837.443	25590
837.58	25487
837.718	25738
837.856	25578
837.993	25502
838.131	25521
838.269	25457
838.406	25457
838.544	25384
838.681	25293
838.819	25114
838.956	24996
839.094	25072
839.231	25091
839.369	25228
839.506	25430
839.643	25232
839.781	24981
839.918	25038
840.055	25027
840.193	25072
840.33	24890
840.467	24894
840.604	24852
840.742	25206
840.879	24726
841.016	24837
841.153	24696
841.29	25053
841.427	24852
841.564	24985
841.701	24779
841.838	24829
841.975	24734
842.112	24871
842.249	24798
842.385	24623
842.522	24741
842.659	24905
842.796	24760
842.933	24650
843.069	24654
843.206	24582
843.343	24688
843.479	24669
843.616	24563
843.752	24361
843.889	24376
844.025	24525
844.162	24376
844.298	24483
844.435	24486
844.571	24448
844.708	24422
844.844	24528
844.98	24467
845.117	24563
845.253	24452
845.389	24330
845.525	24213
845.661	24235
845.798	24152
845.934	24186
846.07	24144
846.206	24228
846.342	24243
846.478	24034
846.614	23946
846.75	23836
846.886	23927
847.022	23885
847.158	23859
847.294	23946
847.429	23824
847.565	23760
847.701	24144
847.837	23558
847.972	23429
848.108	23676
848.244	23619
848.379	23573
848.515	23562
848.65	23463
848.786	23482
848.921	23539
849.057	23577
849.192	23627
849.328	23459
849.463	23509
849.598	23353
849.734	23349
849.869	23246
850.004	23193
850.14	23303
850.275	23235
850.41	23105
850.545	23143
850.68	23159
850.815	23265
850.95	23178
851.085	23448
851.22	23220
851.355	23136
851.49	23105
851.625	23208
851.76	23204
851.895	23147
852.03	23071
852.165	23383
852.299	23280
852.434	23235
852.569	23391
852.703	23098
852.838	23242
852.973	23280
853.107	23318
853.242	23170
853.376	23052
853.511	22934
853.645	22984
853.78	23117
853.914	23041
854.048	22980
854.183	23052
854.317	23197
854.451	23254
854.585	22965
854.72	22984
854.854	23185
854.988	22946
855.122	23010
855.256	22885
855.39	23033
855.524	23105
855.658	23113
855.792	23025
855.926	23067
856.06	23090
856.194	23113
856.327	23025
856.461	22930
856.595	23018
856.729	23117
856.862	23102
856.996	22953
857.13	23159
857.263	23105
857.397	23086
857.53	22995
857.664	23132
857.797	23056
857.931	23216
858.064	22965
858.197	23113
858.331	23071
858.464	22892
858.597	22911
858.731	23018
858.864	23056
858.997	22927
859.13	23010
859.263	23029
859.396	23136
859.529	23064
859.662	23056
859.795	22923
859.928	22961
860.061	23220
860.194	23193
860.327	23006
860.46	23025
860.592	23250
860.725	23151
860.858	23166
860.99	22927
861.123	23105
861.256	22904
861.388	22984
861.521	23745
861.653	22847
861.786	22793
861.918	22946
862.05	22885
862.183	22892
862.315	22911
862.447	22938
862.58	22999
862.712	22793
862.844	22729
862.976	22831
863.108	22839
863.24	23204
863.372	22710
863.504	22687
863.636	22683
863.768	22713
863.9	22771
864.032	22630
864.164	22725
864.296	22710
864.428	22713
864.559	22744
864.691	22923
864.823	22782
864.954	22828
865.086	22660
865.217	22679
865.349	22531
865.48	22630
865.612	22561
865.743	22721
865.875	22649
866.006	22565
866.137	22500
866.269	22592
866.4	22592
866.531	22455
866.662	22523
866.793	22535
866.924	22508
867.055	22546
867.186	22664
867.317	22580
867.448	22421
867.579	22440
867.71	22379
867.841	22352
867.972	22504
868.103	22580
868.233	22580
868.364	22554
868.495	22573
868.625	22873
868.756	22729
868.886	22675
869.017	22774
869.147	22858
869.278	22904
869.408	22900
869.539	22706
869.669	22828
869.799	22793
869.929	22995
870.06	22801
870.19	23166
870.32	23105
870.45	22938
870.58	23056
870.71	23185
870.84	23273
870.97	23136
871.1	23124
871.23	23315
871.36	23307
871.489	23132
871.619	23277
871.749	23349
871.879	23315
872.008	23577
872.138	23322
872.267	23490
872.397	23033
872.526	23064
872.656	23242
872.785	23208
872.915	23311
873.044	23509
873.173	23421
873.303	23463
873.432	23410
873.561	23421
873.69	23410
873.819	23376
873.948	23520
874.077	23353
874.206	23235
874.335	23337
874.464	23455
874.593	23463
874.722	23585
874.851	23547
874.979	23600
875.108	23638
875.237	23486
875.365	23554
875.494	23566
875.623	23653
875.751	23672
875.88	23562
876.008	23687
876.136	23764
876.265	23992
876.393	24117
876.521	24030
876.65	23874
876.778	23904
876.906	23870
877.034	23897
877.162	23920
877.29	23980
877.418	23843
877.546	23843
877.674	23950
877.802	23821
877.93	23821
878.058	23958
878.185	23866
878.313	23855
878.441	23843
878.568	23737
878.696	23805
878.824	23973
878.951	23813
879.079	24129
879.206	24323
879.333	24072
879.461	23931
879.588	23999
879.715	23999
879.842	24133
879.97	23954
880.097	23813
880.224	23722
880.351	23798
880.478	23676
880.605	23596
880.732	23821
880.859	23923
880.986	23745
881.112	23790
881.239	23577
881.366	23360
881.493	23292
881.619	23337
881.746	23273
881.872	23322
881.999	23334
882.125	23231
882.252	23292
882.378	23212
882.505	23349
882.631	23178
882.757	23014
882.883	23083
883.01	22965
883.136	22881
883.262	22710
883.388	22812
883.514	22957
883.64	22835
883.766	22900
883.892	22679
884.018	22771
884.143	22850
884.269	22961
884.395	22675
884.52	22649
884.646	22740
884.772	22569
884.897	22363
885.023	22550
885.148	22721
885.274	22740
885.399	22679
885.524	22554
885.65	22736
885.775	22584
885.9	22489
886.025	22755
886.15	22596
886.275	22538
886.4	22405
886.525	22500
886.65	22611
886.775	22417
886.9	22649
887.025	22672
887.149	22481
887.274	22352
887.399	22166
887.523	22421
887.648	22318
887.773	22188
887.897	22417
888.021	22344
888.146	22284
888.27	22497
888.395	22421
888.519	22440
888.643	22322
888.767	22382
888.891	22238
889.015	22082
889.139	22166
889.263	22116
889.387	22158
889.511	22246
889.635	22158
889.759	22044
889.883	22059
890.006	22154
890.13	22154
890.254	22025
890.377	22086
890.501	21945
890.624	21907
890.748	21880
890.871	21781
890.995	21625
891.118	21633
891.241	21724
891.364	21675
891.488	21713
891.611	21698
891.734	21629
891.857	21873
891.98	21724
892.103	21641
892.226	21603
892.349	21435
892.471	21447
892.594	21652
892.717	21637
892.839	21519
892.962	21492
893.085	21610
893.207	21496
893.33	21363
893.452	21401
893.575	21428
893.697	21492
893.819	21644
893.941	21762
894.064	21644
894.186	21424
894.308	21504
894.43	21561
894.552	21652
894.674	21629
894.796	21412
894.918	21401
895.04	21420
895.161	21538
895.283	21496
895.405	21397
895.526	21374
895.648	21439
895.769	21572
895.891	21523
896.012	21572
896.134	21561
896.255	21473
896.376	21454
896.498	21447
896.619	21466
896.74	21477
896.861	21633
896.982	21633
897.103	21956
897.224	21739
897.345	21660
897.466	21686
897.587	21743
897.708	21656
897.828	21781
897.949	21595
898.07	21458
898.19	21709
898.311	21717
898.431	21732
898.552	21698
898.672	21701
898.792	21743
898.913	21736
899.033	21511
899.153	21542
899.273	21420
899.393	21420
899.513	21462
899.633	21386
899.753	21359
899.873	21405
899.993	21420
900.113	21389
900.232	21325
900.352	21272
900.472	21279
900.591	21077
900.711	21275
900.83	21119
900.95	21336
901.069	21233
901.189	21116
901.308	20982
901.427	20670
901.546	20727
901.665	20800
901.784	20758
901.904	20686
902.023	20469
902.141	20328
902.26	20149
902.379	20351
902.498	20206
902.617	20145
902.735	20309
902.854	20176
902.973	20176
903.091	19887
903.21	19894
903.328	19803
903.446	19757
903.565	19674
903.683	19658
903.801	19544
903.919	19670
904.038	19666
904.156	19544
904.274	19616
904.392	19499
904.51	19327
904.627	19453
904.745	19502
904.863	19457
904.981	19415
905.098	19122
905.216	19206
905.334	19198
905.451	19190
905.569	19076
905.686	18939
905.803	19107
905.921	18848
906.038	19012
906.155	18909
906.272	18753
906.389	18817
906.506	18620
906.623	18616
906.74	18601
906.857	18506
906.974	18608
907.091	18703
907.208	18776
907.324	18646
907.441	18563
907.557	18380
907.674	18369
907.79	18292
907.907	18346
908.023	18292
908.139	18346
908.256	18258
908.372	18243
908.488	18369
908.604	18034
908.72	17992
908.836	17999
908.952	18041
909.068	18095
909.184	18095
909.3	18011
909.415	18053
909.531	17992
909.647	17832
909.762	17748
909.878	17786
909.993	17729
910.108	17771
910.224	17661
910.339	17718
910.454	17676
910.57	17486
910.685	17425
910.8	17798
910.915	17802
911.03	17490
911.145	17284
911.259	17383
911.374	17318
911.489	17193
911.604	17216
911.718	17029
911.833	17067
911.947	16938
912.062	16816
912.176	17056
912.291	17132
912.405	17105
912.519	17147
912.633	17216
912.748	17056
912.862	17029
912.976	16927
913.09	16839
913.204	16869
913.318	16744
913.431	16942
913.545	16885
913.659	16896
913.772	16885
913.886	16721
914	16596
914.113	16778
914.226	16767
914.34	16599
914.453	16550
914.566	16664
914.68	16474
914.793	16516
914.906	16322
915.019	16169
915.132	16154
915.245	16128
915.358	16226
915.47	16154
915.583	16185
915.696	16246
915.809	16344
915.921	16341
916.034	16196
916.146	16223
916.259	16093
916.371	16112
916.483	16154
916.595	15964
916.708	16002
916.82	15937
916.932	16040
917.044	15895
917.156	15895
917.268	15808
917.38	15789
917.491	15743
917.603	15861
917.715	15884
917.826	16048
917.938	15736
918.049	15709
918.161	15644
918.272	15918
918.384	15915
918.495	15857
918.606	15591
918.717	15488
918.828	15564
918.939	15568
919.05	15507
919.161	15610
919.272	15348
919.383	15443
919.494	15587
919.604	15698
919.715	15462
919.826	15439
919.936	15382
920.047	15519
920.157	15386
920.267	15618
920.378	15496
920.488	15408
920.598	15720
920.708	15842
920.818	15644
920.928	15572
921.038	15770
921.148	15690
921.258	15435
921.368	15367
921.477	15237
921.587	15135
921.697	15104
921.806	15222
921.916	15020
922.025	14807
922.134	14876
922.244	14864
922.353	14815
922.462	14648
922.571	14735
922.68	14526
922.789	14564
922.898	14522
923.007	14393
923.116	14522
923.224	14492
923.333	14530
923.442	14339
923.55	14294
923.659	14278
923.767	14366
923.876	14336
923.984	14298
924.092	14210
924.201	14252
924.309	14145
924.417	14130
924.525	14081
924.633	14069
924.741	14849
924.849	13909
924.956	14001
925.064	13856
925.172	13757
925.279	13845
925.387	13879
925.494	13852
925.602	13974
925.709	13887
925.816	13632
925.924	13780
926.031	13830
926.138	13830
926.245	13765
926.352	13616
926.459	13788
926.566	13780
926.673	13647
926.779	13658
926.886	13510
926.993	13403
927.099	13384
927.206	13426
927.312	13327
927.419	13457
927.525	13441
927.631	13480
927.737	13251
927.843	13198
927.95	13110
928.056	13217
928.162	13225
928.267	13179
928.373	13841
928.479	13202
928.585	13061
928.69	13095
928.796	13141
928.901	13031
929.007	12954
929.112	13057
929.218	13008
929.323	13000
929.428	12920
929.533	12989
929.638	12802
929.743	12798
929.848	12833
929.953	12859
930.058	12730
930.163	12498
930.267	12506
930.372	12700
930.477	12559
930.581	12787
930.685	12574
930.79	12380
930.894	12464
930.998	12350
931.103	12517
931.207	12148
931.311	12072
931.415	11988
931.519	11783
931.623	11668
