Data from test_V78500241_828.txt Node
Date: Fri Mar 25 15:47:32 CST 2022
User: usil
Spectrometer: V785-0024
Trigger mode: 0
Integration Time (sec): 4.000000E-1
Scans to average: 1
Nonlinearity correction enabled: false
Boxcar width: 0
Storing dark spectrum: false
XAxis mode: Wavelengths
Number of Pixels in Spectrum: 1024
>>>>>Begin Spectral Data<<<<<
801.071	27652
801.214	27504
801.356	27363
801.499	27233
801.641	27294
801.783	27211
801.926	27226
802.068	27146
802.211	27180
802.353	27104
802.496	26876
802.638	26826
802.78	26880
802.923	26640
803.065	26743
803.208	26872
803.35	26773
803.492	26994
803.635	26868
803.777	26777
803.919	27036
804.061	27374
804.204	27157
804.346	26906
804.488	26910
804.63	27020
804.773	26899
804.915	26975
805.057	27096
805.199	27055
805.341	27176
805.483	27207
805.626	27203
805.768	26990
805.91	27222
806.052	27108
806.194	27112
806.336	27298
806.478	27195
806.62	27100
806.762	27252
806.904	27355
807.046	27690
807.188	27595
807.33	27564
807.472	27599
807.614	27500
807.756	27454
807.898	27317
808.04	27310
808.182	27435
808.324	27488
808.465	27382
808.607	27720
808.749	27736
808.891	27861
809.033	28082
809.174	27842
809.316	27797
809.458	27701
809.6	27846
809.741	27857
809.883	27994
810.025	28093
810.166	28044
810.308	28078
810.45	28010
810.591	28078
810.733	27732
810.875	27732
811.016	27641
811.158	27732
811.299	27945
811.441	27926
811.582	28067
811.724	27892
811.865	27827
812.007	27808
812.148	27538
812.29	27838
812.431	27880
812.573	28036
812.714	28116
812.855	28371
812.997	28451
813.138	28519
813.279	28550
813.421	28432
813.562	28257
813.703	28238
813.845	28059
813.986	27671
814.127	27633
814.268	27485
814.41	27595
814.551	27424
814.692	27496
814.833	27545
814.974	27431
815.115	27561
815.256	27458
815.397	27397
815.539	27351
815.68	27230
815.821	27241
815.962	27298
816.103	27230
816.244	27230
816.385	26940
816.526	27051
816.666	26853
816.807	26697
816.948	26830
817.089	26895
817.23	26762
817.371	26868
817.512	26735
817.653	26735
817.793	26606
817.934	26876
818.075	26788
818.216	26796
818.356	26735
818.497	26632
818.638	26514
818.778	26590
818.919	26575
819.06	26408
819.2	26655
819.341	26807
819.481	26727
819.622	26735
819.762	27230
819.903	27051
820.043	27005
820.184	26933
820.324	26842
820.465	26979
820.605	26807
820.746	26849
820.886	26590
821.026	26800
821.167	26830
821.307	26891
821.447	26739
821.588	26587
821.728	26541
821.868	26488
822.008	26252
822.149	26062
822.289	26202
822.429	25970
822.569	25814
822.709	25917
822.849	25830
822.99	25868
823.13	25795
823.27	25727
823.41	25430
823.55	25487
823.69	25571
823.83	25521
823.97	25483
824.11	25388
824.25	25316
824.389	25400
824.529	25567
824.669	25308
824.809	25567
824.949	25514
825.089	25537
825.228	25415
825.368	25240
825.508	25247
825.648	25171
825.787	25426
825.927	25297
826.067	25103
826.206	25232
826.346	25392
826.485	25236
826.625	25331
826.765	25316
826.904	25320
827.044	25061
827.183	24981
827.323	24817
827.462	25023
827.601	24977
827.741	24856
827.88	24985
828.02	24943
828.159	24958
828.298	24989
828.437	25042
828.577	24901
828.716	25023
828.855	24768
828.994	24646
829.134	24795
829.273	24578
829.412	24608
829.551	24616
829.69	24650
829.829	24715
829.968	24684
830.107	24639
830.246	24681
830.385	24601
830.524	24483
830.663	24441
830.802	24327
830.941	24304
831.08	24216
831.219	24361
831.357	24342
831.496	24521
831.635	24346
831.774	24197
831.913	24163
832.051	24072
832.19	24038
832.329	23942
832.467	24068
832.606	23840
832.744	23980
832.883	23874
833.022	23999
833.16	23855
833.299	23973
833.437	23958
833.576	23885
833.714	24007
833.852	24125
833.991	24060
834.129	24171
834.267	24057
834.406	24098
834.544	24018
834.682	24106
834.821	24117
834.959	24144
835.097	23954
835.235	24079
835.373	23999
835.511	23908
835.65	23790
835.788	23733
835.926	23627
836.064	23630
836.202	23649
836.34	23775
836.478	23954
836.615	23843
836.753	23870
836.891	23805
837.029	23950
837.167	23676
837.305	23748
837.443	23623
837.58	23589
837.718	23687
837.856	23699
837.993	23642
838.131	23627
838.269	23524
838.406	23486
838.544	23425
838.681	23356
838.819	23391
838.956	23105
839.094	23079
839.231	23193
839.369	23227
839.506	23459
839.643	23410
839.781	23231
839.918	23086
840.055	23064
840.193	23162
840.33	23185
840.467	22961
840.604	23147
840.742	23330
840.879	22881
841.016	22927
841.153	22991
841.29	23048
841.427	22972
841.564	23121
841.701	23098
841.838	23018
841.975	22877
842.112	22889
842.249	22908
842.385	22889
842.522	23060
842.659	22911
842.796	22744
842.933	22790
843.069	22641
843.206	22660
843.343	22778
843.479	22717
843.616	22790
843.752	22462
843.889	22538
844.025	22656
844.162	22561
844.298	22626
844.435	22451
844.571	22516
844.708	22542
844.844	22824
844.98	22668
845.117	22626
845.253	22557
845.389	22424
845.525	22409
845.661	22394
845.798	22341
845.934	22230
846.07	22310
846.206	22257
846.342	22344
846.478	22344
846.614	22280
846.75	21956
846.886	21911
847.022	22181
847.158	22086
847.294	22207
847.429	22010
847.565	21907
847.701	22322
847.837	21835
847.972	21743
848.108	21987
848.244	21873
848.379	21648
848.515	21583
848.65	21580
848.786	21591
848.921	21629
849.057	21720
849.192	21865
849.328	21819
849.463	21644
849.598	21644
849.734	21629
849.869	21469
850.004	21416
850.14	21412
850.275	21367
850.41	21306
850.545	21294
850.68	21264
850.815	21370
850.95	21386
851.085	21523
851.22	21572
851.355	21447
851.49	21408
851.625	21397
851.76	21287
851.895	21291
852.03	21340
852.165	21408
852.299	21393
852.434	21485
852.569	21393
852.703	21504
852.838	21553
852.973	21629
853.107	21424
853.242	21332
853.376	21180
853.511	21169
853.645	21218
853.78	21245
853.914	21241
854.048	21260
854.183	21298
854.317	21378
854.451	21355
854.585	21249
854.72	21203
854.854	21302
854.988	21207
855.122	21272
855.256	21123
855.39	21222
855.524	21283
855.658	21176
855.792	21226
855.926	21218
856.06	21256
856.194	21348
856.327	21169
856.461	21188
856.595	21192
856.729	21211
856.862	21363
856.996	21245
857.13	21249
857.263	21310
857.397	21336
857.53	21218
857.664	21275
857.797	21386
857.931	21317
858.064	21363
858.197	21336
858.331	21199
858.464	21066
858.597	21180
858.731	21256
858.864	21070
858.997	21180
859.13	21287
859.263	21199
859.396	21252
859.529	21074
859.662	21169
859.795	21344
859.928	21256
860.061	21256
860.194	21500
860.327	21131
860.46	21161
860.592	21260
860.725	21405
860.858	21389
860.99	21241
861.123	21131
861.256	21230
861.388	21218
861.521	21907
861.653	21116
861.786	20910
861.918	21104
862.05	21081
862.183	21154
862.315	21218
862.447	21199
862.58	21142
862.712	20982
862.844	20929
862.976	21108
863.108	20838
863.24	21332
863.372	20902
863.504	20967
863.636	20933
863.768	20948
863.9	20963
864.032	20979
864.164	20906
864.296	20883
864.428	20902
864.559	21017
864.691	20994
864.823	21043
864.954	20891
865.086	20887
865.217	20842
865.349	20769
865.48	20857
865.612	20830
865.743	21028
865.875	20830
866.006	20845
866.137	20796
866.269	20845
866.4	20941
866.531	20667
866.662	20785
866.793	20682
866.924	20845
867.055	20861
867.186	20819
867.317	20705
867.448	20625
867.579	20773
867.71	20644
867.841	20750
867.972	20724
868.103	20754
868.233	20800
868.364	20674
868.495	20937
868.625	21017
868.756	21039
868.886	21009
869.017	21100
869.147	21233
869.278	21108
869.408	20906
869.539	21051
869.669	21066
869.799	21020
869.929	21047
870.06	21096
870.19	21321
870.32	21313
870.45	21268
870.58	21344
870.71	21447
870.84	21473
870.97	21496
871.1	21447
871.23	21507
871.36	21587
871.489	21622
871.619	21526
871.749	21523
871.879	21618
872.008	21625
872.138	21549
872.267	21393
872.397	21462
872.526	21443
872.656	21420
872.785	21367
872.915	21629
873.044	21736
873.173	21694
873.303	21629
873.432	21637
873.561	21743
873.69	21618
873.819	21633
873.948	21667
874.077	21614
874.206	21660
874.335	21656
874.464	21778
874.593	21861
874.722	21770
874.851	21808
874.979	21854
875.108	21903
875.237	21915
875.365	21629
875.494	21888
875.623	21915
875.751	21797
875.88	21903
876.008	21964
876.136	22002
876.265	22268
876.393	22303
876.521	22322
876.65	22295
876.778	22185
876.906	22166
877.034	22128
877.162	22276
877.29	22173
877.418	22242
877.546	22204
877.674	22063
877.802	22158
877.93	22215
878.058	22154
878.185	22002
878.313	22226
878.441	22158
878.568	22021
878.696	22158
878.824	22143
878.951	22280
879.079	22318
879.206	22516
879.333	22462
879.461	22181
879.588	22272
879.715	22360
879.842	22390
879.97	22314
880.097	21930
880.224	21964
880.351	21956
880.478	22097
880.605	22013
880.732	21975
880.859	22265
880.986	22010
881.112	21991
881.239	21850
881.366	21698
881.493	21618
881.619	21644
881.746	21713
881.872	21732
881.999	21564
882.125	21504
882.252	21606
882.378	21511
882.505	21595
882.631	21389
882.757	21447
882.883	21241
883.01	21329
883.136	21226
883.262	21211
883.388	21074
883.514	21332
883.64	21359
883.766	21161
883.892	21180
884.018	20975
884.143	21146
884.269	21344
884.395	20918
884.52	20838
884.646	20857
884.772	20864
884.897	20883
885.023	20857
885.148	21074
885.274	20998
885.399	20963
885.524	20921
885.65	20906
885.775	21047
885.9	20937
886.025	21089
886.15	21051
886.275	20967
886.4	20910
886.525	20944
886.65	20811
886.775	20823
886.9	20982
887.025	21127
887.149	20899
887.274	20887
887.399	20678
887.523	20708
887.648	20670
887.773	20648
887.897	20682
888.021	20678
888.146	20705
888.27	20830
888.395	20819
888.519	20731
888.643	20705
888.767	20769
888.891	20651
889.015	20427
889.139	20598
889.263	20484
889.387	20598
889.511	20682
889.635	20556
889.759	20469
889.883	20556
890.006	20442
890.13	20606
890.254	20339
890.377	20488
890.501	20252
890.624	20259
890.748	20229
890.871	20100
890.995	20016
891.118	20065
891.241	20164
891.364	20046
891.488	20183
891.611	20119
891.734	19974
891.857	20149
891.98	20103
892.103	20092
892.226	20149
892.349	20107
892.471	19913
892.594	20077
892.717	20088
892.839	19913
892.962	19986
893.085	19955
893.207	19902
893.33	19906
893.452	19909
893.575	19978
893.697	19982
893.819	20149
893.941	20180
894.064	20103
894.186	19875
894.308	19936
894.43	20191
894.552	20237
894.674	19909
894.796	19830
894.918	20027
895.04	19951
895.161	20088
895.283	20027
895.405	19967
895.526	19951
895.648	19970
895.769	19833
895.891	20062
896.012	20077
896.134	19993
896.255	20058
896.376	19989
896.498	20065
896.619	19978
896.74	19944
896.861	20012
896.982	20400
897.103	20396
897.224	20225
897.345	20267
897.466	20183
897.587	20275
897.708	20347
897.828	20210
897.949	20263
898.07	20088
898.19	20092
898.311	20290
898.431	20161
898.552	20214
898.672	20259
898.792	20278
898.913	20328
899.033	20069
899.153	20065
899.273	19890
899.393	19970
899.513	19932
899.633	19925
899.753	19928
899.873	19963
899.993	19936
900.113	19940
900.232	19997
900.352	19883
900.472	19811
900.591	19849
900.711	19712
900.83	19693
900.95	19746
901.069	19769
901.189	19616
901.308	19339
901.427	19255
901.546	19343
901.665	19327
901.784	19282
901.904	19160
902.023	19141
902.141	18977
902.26	18829
902.379	18954
902.498	18863
902.617	18848
902.735	18924
902.854	18738
902.973	18658
903.091	18483
903.21	18551
903.328	18608
903.446	18498
903.565	18292
903.683	18273
903.801	18300
903.919	18399
904.038	18353
904.156	18121
904.274	18155
904.392	18060
904.51	18045
904.627	18144
904.745	18121
904.863	18235
904.981	17893
905.098	17775
905.216	17912
905.334	17847
905.451	17733
905.569	17783
905.686	17878
905.803	17863
905.921	17577
906.038	17718
906.155	17558
906.272	17486
906.389	17528
906.506	17364
906.623	17379
906.74	17261
906.857	17102
906.974	17162
907.091	17334
907.208	17436
907.324	17471
907.441	17292
907.557	17121
907.674	17075
907.79	16927
907.907	17014
908.023	17143
908.139	17060
908.256	16873
908.372	16885
908.488	16934
908.604	16809
908.72	16755
908.836	16740
908.952	16721
909.068	16656
909.184	16847
909.3	16713
909.415	16755
909.531	16729
909.647	16459
909.762	16394
909.878	16466
909.993	16417
910.108	16409
910.224	16417
910.339	16421
910.454	16242
910.57	16211
910.685	16147
910.8	16462
910.915	16512
911.03	16147
911.145	16185
911.259	15960
911.374	16135
911.489	15930
911.604	15838
911.718	15804
911.833	15926
911.947	15762
912.062	15652
912.176	15789
912.291	15827
912.405	15895
912.519	15937
912.633	15979
912.748	15835
912.862	15797
912.976	15637
913.09	15519
913.204	15610
913.318	15519
913.431	15759
913.545	15698
913.659	15705
913.772	15606
913.886	15435
914	15367
914.113	15538
914.226	15488
914.34	15408
914.453	15344
914.566	15408
914.68	15226
914.793	15287
914.906	15135
915.019	15013
915.132	15116
915.245	14971
915.358	14982
915.47	15039
915.583	15024
915.696	15093
915.809	15233
915.921	15138
916.034	15039
916.146	14933
916.259	14880
916.371	14994
916.483	14944
916.595	14880
916.708	14883
916.82	14842
916.932	14785
917.044	14765
917.156	14762
917.268	14754
917.38	14720
917.491	14686
917.603	14670
917.715	14815
917.826	14716
917.938	14594
918.049	14461
918.161	14621
918.272	14686
918.384	14731
918.495	14651
918.606	14552
918.717	14484
918.828	14454
918.939	14419
919.05	14351
919.161	14461
919.272	14358
919.383	14355
919.494	14427
919.604	14583
919.715	14419
919.826	14259
919.936	14404
920.047	14480
920.157	14381
920.267	14712
920.378	14366
920.488	14332
920.598	14530
920.708	14606
920.818	14492
920.928	14541
921.038	14648
921.148	14746
921.258	14385
921.368	14221
921.477	14107
921.587	14172
921.697	14077
921.806	14191
921.916	13959
922.025	13879
922.134	13719
922.244	13772
922.353	13852
922.462	13689
922.571	13609
922.68	13483
922.789	13460
922.898	13502
923.007	13476
923.116	13426
923.224	13422
923.333	13419
923.442	13316
923.55	13320
923.659	13274
923.767	13369
923.876	13164
923.984	13213
924.092	13069
924.201	13183
924.309	13114
924.417	13164
924.525	13175
924.633	13179
924.741	14046
924.849	12951
924.956	13000
925.064	12954
925.172	12821
925.279	12844
925.387	12840
925.494	12852
925.602	12916
925.709	12966
925.816	12692
925.924	12772
926.031	12913
926.138	12772
926.245	12817
926.352	12749
926.459	12810
926.566	12817
926.673	12776
926.779	12559
926.886	12559
926.993	12536
927.099	12414
927.206	12338
927.312	12403
927.419	12460
927.525	12445
927.631	12365
927.737	12285
927.843	12296
927.95	12235
928.056	12213
928.162	12228
928.267	12323
928.373	12909
928.479	12239
928.585	12091
928.69	12148
928.796	12201
928.901	12121
929.007	11958
929.112	11923
929.218	12064
929.323	11977
929.428	11904
929.533	12095
929.638	11916
929.743	11878
929.848	12019
929.953	11980
930.058	11920
930.163	11623
930.267	11661
930.372	11870
930.477	11596
930.581	11817
930.685	11733
930.79	11562
930.894	11615
930.998	11562
931.103	11676
931.207	11349
931.311	11235
931.415	11155
931.519	10968
931.623	10991
