Data from test_V78500241_719.txt Node
Date: Fri Mar 25 15:46:46 CST 2022
User: usil
Spectrometer: V785-0024
Trigger mode: 0
Integration Time (sec): 4.000000E-1
Scans to average: 1
Nonlinearity correction enabled: false
Boxcar width: 0
Storing dark spectrum: false
XAxis mode: Wavelengths
Number of Pixels in Spectrum: 1024
>>>>>Begin Spectral Data<<<<<
801.071	27953
801.214	27998
801.356	27682
801.499	27633
801.641	27523
801.783	27629
801.926	27724
802.068	27701
802.211	27351
802.353	27485
802.496	27123
802.638	27302
802.78	27302
802.923	27283
803.065	27161
803.208	27241
803.35	27298
803.492	27378
803.635	27431
803.777	27393
803.919	27644
804.061	27854
804.204	27389
804.346	27504
804.488	27329
804.63	27492
804.773	27264
804.915	27386
805.057	27591
805.199	27439
805.341	27534
805.483	27690
805.626	27629
805.768	27477
805.91	27610
806.052	27519
806.194	27576
806.336	27797
806.478	27652
806.62	27701
806.762	27838
806.904	27918
807.046	28352
807.188	28090
807.33	28029
807.472	27956
807.614	27975
807.756	27956
807.898	27797
808.04	27941
808.182	27914
808.324	27857
808.465	27816
808.607	28234
808.749	28337
808.891	28382
809.033	28447
809.174	28360
809.316	28219
809.458	28459
809.6	28280
809.741	28291
809.883	28405
810.025	28478
810.166	28603
810.308	28470
810.45	28485
810.591	28405
810.733	28348
810.875	28223
811.016	28223
811.158	28268
811.299	28432
811.441	28504
811.582	28447
811.724	28371
811.865	28135
812.007	28318
812.148	28333
812.29	28261
812.431	28459
812.573	28649
812.714	28660
812.855	28752
812.997	28934
813.138	29010
813.279	28972
813.421	28763
813.562	28740
813.703	28675
813.845	28474
813.986	28166
814.127	28166
814.268	27975
814.41	28067
814.551	27964
814.692	27998
814.833	27983
814.974	27918
815.115	27991
815.256	27854
815.397	27884
815.539	27793
815.68	27614
815.821	27739
815.962	27724
816.103	27720
816.244	27553
816.385	27576
816.526	27553
816.666	27272
816.807	27321
816.948	27367
817.089	27416
817.23	27256
817.371	27344
817.512	27298
817.653	27363
817.793	27252
817.934	27203
818.075	27348
818.216	27332
818.356	27199
818.497	27180
818.638	27096
818.778	27226
818.919	26937
819.06	27093
819.2	27302
819.341	27230
819.481	27351
819.622	27279
819.762	27663
819.903	27660
820.043	27481
820.184	27294
820.324	27496
820.465	27496
820.605	27378
820.746	27454
820.886	27154
821.026	27313
821.167	27355
821.307	27435
821.447	27180
821.588	27264
821.728	27142
821.868	26929
822.008	26731
822.149	26785
822.289	26735
822.429	26488
822.569	26446
822.709	26385
822.849	26256
822.99	26229
823.13	26309
823.27	26164
823.41	25993
823.55	25974
823.69	26172
823.83	26027
823.97	26035
824.11	25879
824.25	26012
824.389	25864
824.529	25978
824.669	25909
824.809	26054
824.949	25822
825.089	26092
825.228	25936
825.368	25826
825.508	25738
825.648	25833
825.787	25776
825.927	25856
826.067	25715
826.206	25727
826.346	25845
826.485	25791
826.625	25776
826.765	25883
826.904	25791
827.044	25537
827.183	25499
827.323	25491
827.462	25518
827.601	25449
827.741	25426
827.88	25441
828.02	25373
828.159	25434
828.298	25434
828.437	25510
828.577	25358
828.716	25578
828.855	25365
828.994	25141
829.134	25251
829.273	25240
829.412	25263
829.551	25126
829.69	25179
829.829	25278
829.968	25266
830.107	25396
830.246	25145
830.385	25137
830.524	25012
830.663	25034
830.802	24989
830.941	24825
831.08	24730
831.219	24783
831.357	24768
831.496	25061
831.635	24703
831.774	24749
831.913	24612
832.051	24604
832.19	24612
832.329	24639
832.467	24486
832.606	24365
832.744	24414
832.883	24475
833.022	24395
833.16	24441
833.299	24448
833.437	24452
833.576	24540
833.714	24475
833.852	24650
833.991	24597
834.129	24593
834.267	24711
834.406	24505
834.544	24494
834.682	24547
834.821	24570
834.959	24616
835.097	24540
835.235	24570
835.373	24559
835.511	24536
835.65	24414
835.788	24433
835.926	24163
836.064	24144
836.202	24235
836.34	24410
836.478	24471
836.615	24357
836.753	24323
836.891	24342
837.029	24429
837.167	24266
837.305	24186
837.443	24133
837.58	24197
837.718	24220
837.856	24228
837.993	24194
838.131	24213
838.269	24072
838.406	24117
838.544	24022
838.681	23889
838.819	23821
838.956	23539
839.094	23687
839.231	23737
839.369	23794
839.506	24026
839.643	23882
839.781	23642
839.918	23714
840.055	23710
840.193	23653
840.33	23577
840.467	23668
840.604	23543
840.742	23889
840.879	23395
841.016	23490
841.153	23482
841.29	23646
841.427	23627
841.564	23710
841.701	23554
841.838	23497
841.975	23516
842.112	23433
842.249	23440
842.385	23372
842.522	23410
842.659	23391
842.796	23349
842.933	23318
843.069	23250
843.206	23231
843.343	23360
843.479	23280
843.616	23322
843.752	23044
843.889	23166
844.025	23288
844.162	23044
844.298	23162
844.435	23143
844.571	23056
844.708	23067
844.844	23402
844.98	23147
845.117	23166
845.253	22957
845.389	22900
845.525	23022
845.661	23052
845.798	22790
845.934	22911
846.07	22729
846.206	22889
846.342	23083
846.478	22820
846.614	22679
846.75	22618
846.886	22569
847.022	22706
847.158	22615
847.294	22554
847.429	22584
847.565	22485
847.701	22896
847.837	22249
847.972	22352
848.108	22402
848.244	22325
848.379	22287
848.515	22188
848.65	22105
848.786	22139
848.921	22162
849.057	22181
849.192	22188
849.328	22169
849.463	22120
849.598	22162
849.734	21953
849.869	22017
850.004	21918
850.14	21964
850.275	21831
850.41	21800
850.545	21930
850.68	21804
850.815	22013
850.95	21987
851.085	22021
851.22	22097
851.355	21953
851.49	21915
851.625	21888
851.76	21838
851.895	21743
852.03	21873
852.165	21819
852.299	21945
852.434	22013
852.569	21975
852.703	21922
852.838	21998
852.973	22078
853.107	21926
853.242	21797
853.376	21728
853.511	21492
853.645	21736
853.78	21793
853.914	21679
854.048	21835
854.183	21701
854.317	21724
854.451	21831
854.585	21797
854.72	21747
854.854	21759
854.988	21656
855.122	21713
855.256	21526
855.39	21641
855.524	21823
855.658	21762
855.792	21778
855.926	21804
856.06	21728
856.194	21724
856.327	21781
856.461	21720
856.595	21595
856.729	21720
856.862	21789
856.996	21709
857.13	21747
857.263	21903
857.397	21793
857.53	21732
857.664	21736
857.797	21728
857.931	21880
858.064	21743
858.197	21808
858.331	21728
858.464	21538
858.597	21720
858.731	21709
858.864	21637
858.997	21622
859.13	21709
859.263	21793
859.396	21774
859.529	21720
859.662	21743
859.795	21789
859.928	21793
860.061	21937
860.194	21937
860.327	21880
860.46	21759
860.592	21911
860.725	21838
860.858	21850
860.99	21797
861.123	21724
861.256	21610
861.388	21743
861.521	22253
861.653	21603
861.786	21686
861.918	21671
862.05	21656
862.183	21682
862.315	21694
862.447	21686
862.58	21663
862.712	21492
862.844	21408
862.976	21507
863.108	21412
863.24	21975
863.372	21447
863.504	21500
863.636	21462
863.768	21481
863.9	21420
864.032	21367
864.164	21359
864.296	21439
864.428	21428
864.559	21595
864.691	21485
864.823	21488
864.954	21447
865.086	21439
865.217	21435
865.349	21275
865.48	21283
865.612	21416
865.743	21485
865.875	21344
866.006	21397
866.137	21405
866.269	21268
866.4	21317
866.531	21184
866.662	21256
866.793	21256
866.924	21306
867.055	21233
867.186	21260
867.317	21241
867.448	21154
867.579	21275
867.71	21112
867.841	21192
867.972	21374
868.103	21161
868.233	21195
868.364	21344
868.495	21344
868.625	21500
868.756	21542
868.886	21450
869.017	21481
869.147	21614
869.278	21580
869.408	21583
869.539	21439
869.669	21583
869.799	21538
869.929	21656
870.06	21595
870.19	21880
870.32	21854
870.45	21793
870.58	21865
870.71	22021
870.84	21964
870.97	21846
871.1	21880
871.23	22051
871.36	22185
871.489	22090
871.619	22067
871.749	22025
871.879	22093
872.008	22238
872.138	22070
872.267	22036
872.397	21998
872.526	21880
872.656	21888
872.785	21922
872.915	22120
873.044	22135
873.173	22150
873.303	22188
873.432	22196
873.561	22048
873.69	22051
873.819	22147
873.948	22223
874.077	22090
874.206	22109
874.335	22230
874.464	22238
874.593	22405
874.722	22341
874.851	22432
874.979	22451
875.108	22337
875.237	22272
875.365	22196
875.494	22402
875.623	22447
875.751	22333
875.88	22291
876.008	22474
876.136	22531
876.265	22729
876.393	22904
876.521	22793
876.65	22828
876.778	22706
876.906	22565
877.034	22569
877.162	22748
877.29	22672
877.418	22615
877.546	22698
877.674	22713
877.802	22668
877.93	22664
878.058	22675
878.185	22519
878.313	22653
878.441	22687
878.568	22523
878.696	22634
878.824	22653
878.951	22733
879.079	22858
879.206	22889
879.333	22881
879.461	22698
879.588	22881
879.715	22889
879.842	22976
879.97	22812
880.097	22428
880.224	22592
880.351	22668
880.478	22508
880.605	22440
880.732	22577
880.859	22740
880.986	22512
881.112	22546
881.239	22386
881.366	22280
881.493	22204
881.619	22074
881.746	22021
881.872	22101
881.999	22055
882.125	22059
882.252	22177
882.378	22017
882.505	22169
882.631	21911
882.757	21842
882.883	21945
883.01	21778
883.136	21686
883.262	21701
883.388	21648
883.514	21743
883.64	21686
883.766	21766
883.892	21542
884.018	21580
884.143	21869
884.269	21816
884.395	21477
884.52	21359
884.646	21500
884.772	21306
884.897	21283
885.023	21389
885.148	21595
885.274	21614
885.399	21492
885.524	21355
885.65	21401
885.775	21439
885.9	21401
886.025	21595
886.15	21420
886.275	21424
886.4	21310
886.525	21329
886.65	21370
886.775	21294
886.9	21363
887.025	21641
887.149	21336
887.274	21336
887.399	21104
887.523	21146
887.648	21039
887.773	21074
887.897	21256
888.021	21241
888.146	21077
888.27	21275
888.395	21317
888.519	21245
888.643	21169
888.767	21173
888.891	21127
889.015	21013
889.139	21081
889.263	20891
889.387	21055
889.511	21222
889.635	21074
889.759	20971
889.883	20918
890.006	20895
890.13	21199
890.254	20902
890.377	20963
890.501	20693
890.624	20640
890.748	20735
890.871	20640
890.995	20469
891.118	20457
891.241	20602
891.364	20518
891.488	20670
891.611	20590
891.734	20480
891.857	20720
891.98	20560
892.103	20644
892.226	20526
892.349	20393
892.471	20469
892.594	20495
892.717	20602
892.839	20339
892.962	20495
893.085	20533
893.207	20469
893.33	20256
893.452	20275
893.575	20400
893.697	20396
893.819	20533
893.941	20621
894.064	20670
894.186	20393
894.308	20423
894.43	20412
894.552	20552
894.674	20431
894.796	20347
894.918	20332
895.04	20339
895.161	20400
895.283	20457
895.405	20317
895.526	20465
895.648	20412
895.769	20419
895.891	20511
896.012	20526
896.134	20522
896.255	20415
896.376	20347
896.498	20499
896.619	20503
896.74	20419
896.861	20537
896.982	20739
897.103	20819
897.224	20667
897.345	20590
897.466	20625
897.587	20560
897.708	20781
897.828	20648
897.949	20530
898.07	20495
898.19	20556
898.311	20617
898.431	20530
898.552	20575
898.672	20697
898.792	20720
898.913	20507
899.033	20332
899.153	20438
899.273	20492
899.393	20385
899.513	20511
899.633	20370
899.753	20362
899.873	20290
899.993	20427
900.113	20404
900.232	20301
900.352	20267
900.472	20267
900.591	20172
900.711	20088
900.83	20107
900.95	20309
901.069	20267
901.189	20115
901.308	19849
901.427	19700
901.546	19765
901.665	19666
901.784	19757
901.904	19575
902.023	19415
902.141	19263
902.26	19274
902.379	19278
902.498	19156
902.617	19289
902.735	19274
902.854	19198
902.973	19164
903.091	18932
903.21	18897
903.328	18886
903.446	18871
903.565	18730
903.683	18642
903.801	18661
903.919	18555
904.038	18544
904.156	18475
904.274	18593
904.392	18589
904.51	18464
904.627	18448
904.745	18604
904.863	18483
904.981	18194
905.098	18129
905.216	18224
905.334	18216
905.451	18251
905.569	18133
905.686	18296
905.803	18144
905.921	17889
906.038	18049
906.155	18045
906.272	17824
906.389	17889
906.506	17672
906.623	17646
906.74	17680
906.857	17554
906.974	17520
907.091	17775
907.208	17828
907.324	17718
907.441	17562
907.557	17516
907.674	17360
907.79	17406
907.907	17421
908.023	17452
908.139	17311
908.256	17280
908.372	17318
908.488	17277
908.604	17166
908.72	17128
908.836	17075
908.952	17014
909.068	17170
909.184	17151
909.3	17151
909.415	17166
909.531	17166
909.647	16854
909.762	16812
909.878	16843
909.993	16843
910.108	16805
910.224	16668
910.339	16755
910.454	16683
910.57	16698
910.685	16546
910.8	16805
910.915	16778
911.03	16630
911.145	16405
911.259	16333
911.374	16428
911.489	16280
911.604	16188
911.718	16211
911.833	16204
911.947	16051
912.062	16029
912.176	16143
912.291	16120
912.405	16223
912.519	16287
912.633	16402
912.748	16078
912.862	16105
912.976	15941
913.09	15857
913.204	15911
913.318	15994
913.431	16067
913.545	16082
913.659	15998
913.772	15972
913.886	15857
914	15762
914.113	15823
914.226	15819
914.34	15774
914.453	15641
914.566	15785
914.68	15667
914.793	15622
914.906	15412
915.019	15325
915.132	15291
915.245	15367
915.358	15458
915.47	15340
915.583	15359
915.696	15481
915.809	15408
915.921	15492
916.034	15256
916.146	15302
916.259	15237
916.371	15306
916.483	15260
916.595	15222
916.708	15192
916.82	15188
916.932	15195
917.044	15157
917.156	15077
917.268	14963
917.38	15005
917.491	15009
917.603	14944
917.715	15089
917.826	15055
917.938	14880
918.049	14876
918.161	14914
918.272	15005
918.384	15020
918.495	14925
918.606	14811
918.717	14743
918.828	14800
918.939	14872
919.05	14708
919.161	14804
919.272	14560
919.383	14655
919.494	14792
919.604	15036
919.715	14701
919.826	14629
919.936	14670
920.047	14781
920.157	14750
920.267	14895
920.378	14701
920.488	14644
920.598	14963
920.708	15039
920.818	14864
920.928	14804
921.038	15024
921.148	14956
921.258	14659
921.368	14568
921.477	14560
921.587	14389
921.697	14339
921.806	14499
921.916	14366
922.025	14214
922.134	14157
922.244	14130
922.353	14096
922.462	14054
922.571	13894
922.68	13761
922.789	13708
922.898	13811
923.007	13696
923.116	13700
923.224	13723
923.333	13712
923.442	13636
923.55	13658
923.659	13624
923.767	13719
923.876	13537
923.984	13559
924.092	13510
924.201	13548
924.309	13445
924.417	13552
924.525	13502
924.633	13384
924.741	14412
924.849	13221
924.956	13388
925.064	13160
925.172	13110
925.279	13110
925.387	13232
925.494	13213
925.602	13285
925.709	13274
925.816	13004
925.924	13110
926.031	13255
926.138	13004
926.245	13187
926.352	13053
926.459	13133
926.566	13217
926.673	13000
926.779	12913
926.886	12951
926.993	12779
927.099	12764
927.206	12745
927.312	12715
927.419	12817
927.525	12669
927.631	12791
927.737	12669
927.843	12585
927.95	12631
928.056	12601
928.162	12608
928.267	12669
928.373	13175
928.479	12551
928.585	12334
928.69	12536
928.796	12555
928.901	12388
929.007	12350
929.112	12437
929.218	12365
929.323	12251
929.428	12285
929.533	12475
929.638	12224
929.743	12235
929.848	12201
929.953	12232
930.058	12076
930.163	11859
930.267	12068
930.372	12148
930.477	11927
930.581	12148
930.685	12091
930.79	11866
930.894	11878
930.998	11790
931.103	11931
931.207	11608
931.311	11532
931.415	11345
931.519	11250
931.623	11235
