Data from test_V78500241_2821.txt Node
Date: Fri Mar 25 16:01:20 CST 2022
User: usil
Spectrometer: V785-0024
Trigger mode: 0
Integration Time (sec): 4.000000E-1
Scans to average: 1
Nonlinearity correction enabled: false
Boxcar width: 0
Storing dark spectrum: false
XAxis mode: Wavelengths
Number of Pixels in Spectrum: 1024
>>>>>Begin Spectral Data<<<<<
801.071	29227
801.214	29140
801.356	28938
801.499	28835
801.641	28736
801.783	28744
801.926	28702
802.068	28759
802.211	28767
802.353	28717
802.496	28481
802.638	28554
802.78	28424
802.923	28417
803.065	28447
803.208	28557
803.35	28459
803.492	28691
803.635	28683
803.777	28626
803.919	28805
804.061	29041
804.204	28896
804.346	28630
804.488	28641
804.63	28801
804.773	28637
804.915	28839
805.057	28953
805.199	28736
805.341	28999
805.483	28995
805.626	28953
805.768	28733
805.91	28904
806.052	28866
806.194	28847
806.336	29022
806.478	28991
806.62	28999
806.762	29105
806.904	29136
807.046	29398
807.188	29326
807.33	29349
807.472	29497
807.614	29387
807.756	29223
807.898	29246
808.04	29121
808.182	29174
808.324	29292
808.465	29307
808.607	29463
808.749	29611
808.891	29608
809.033	29790
809.174	29836
809.316	29535
809.458	29653
809.6	29604
809.741	29737
809.883	29760
810.025	29855
810.166	29992
810.308	29988
810.45	29870
810.591	29809
810.733	29718
810.875	29703
811.016	29589
811.158	29535
811.299	29756
811.441	29783
811.582	29809
811.724	29608
811.865	29627
812.007	29745
812.148	29733
812.29	29847
812.431	30030
812.573	29977
812.714	30007
812.855	30262
812.997	30201
813.138	30353
813.279	30349
813.421	30342
813.562	30018
813.703	29821
813.845	29824
813.986	29623
814.127	29387
814.268	29353
814.41	29398
814.551	29417
814.692	29269
814.833	29326
814.974	29402
815.115	29528
815.256	29318
815.397	29334
815.539	29273
815.68	29079
815.821	29151
815.962	29003
816.103	29181
816.244	29056
816.385	29060
816.526	29079
816.666	28607
816.807	28706
816.948	28759
817.089	28736
817.23	28831
817.371	28706
817.512	28607
817.653	28645
817.793	28618
817.934	28611
818.075	28744
818.216	28725
818.356	28733
818.497	28649
818.638	28310
818.778	28356
818.919	28424
819.06	28512
819.2	28615
819.341	28713
819.481	28733
819.622	28824
819.762	29140
819.903	28938
820.043	28873
820.184	28961
820.324	28820
820.465	28896
820.605	28771
820.746	28831
820.886	28679
821.026	28725
821.167	28828
821.307	28828
821.447	28847
821.588	28717
821.728	28535
821.868	28310
822.008	28162
822.149	28219
822.289	28185
822.429	27972
822.569	28025
822.709	27823
822.849	27751
822.99	27534
823.13	27743
823.27	27656
823.41	27576
823.55	27545
823.69	27576
823.83	27644
823.97	27454
824.11	27287
824.25	27249
824.389	27405
824.529	27454
824.669	27393
824.809	27477
824.949	27439
825.089	27530
825.228	27294
825.368	27279
825.508	27188
825.648	27302
825.787	27302
825.927	27530
826.067	27237
826.206	27237
826.346	27218
826.485	27306
826.625	27310
826.765	27462
826.904	27401
827.044	27096
827.183	27036
827.323	27036
827.462	27005
827.601	26944
827.741	26960
827.88	27135
828.02	26956
828.159	26864
828.298	26876
828.437	26906
828.577	26804
828.716	27036
828.855	26982
828.994	26648
829.134	26655
829.273	26693
829.412	26716
829.551	26568
829.69	26556
829.829	26708
829.968	26693
830.107	26765
830.246	26765
830.385	26655
830.524	26629
830.663	26549
830.802	26339
830.941	26145
831.08	26183
831.219	26339
831.357	26362
831.496	26389
831.635	26309
831.774	26164
831.913	26081
832.051	26054
832.19	26107
832.329	26183
832.467	25902
832.606	25963
832.744	25883
832.883	25955
833.022	25856
833.16	25765
833.299	26035
833.437	25970
833.576	25944
833.714	25917
833.852	25986
833.991	25947
834.129	26077
834.267	26122
834.406	26012
834.544	26031
834.682	25989
834.821	25864
834.959	26286
835.097	25951
835.235	26088
835.373	26016
835.511	26008
835.65	25970
835.788	25826
835.926	25662
836.064	25586
836.202	25731
836.34	25780
836.478	25890
836.615	25898
836.753	25788
836.891	25845
837.029	25780
837.167	25575
837.305	25822
837.443	25753
837.58	25738
837.718	25666
837.856	25632
837.993	25670
838.131	25620
838.269	25567
838.406	25483
838.544	25518
838.681	25221
838.819	25179
838.956	25145
839.094	25038
839.231	25228
839.369	25217
839.506	25521
839.643	25274
839.781	25187
839.918	24985
840.055	25099
840.193	25072
840.33	25057
840.467	24935
840.604	25057
840.742	25168
840.879	24916
841.016	24935
841.153	24878
841.29	25008
841.427	24852
841.564	25072
841.701	24928
841.838	25053
841.975	24951
842.112	24810
842.249	24859
842.385	24825
842.522	24954
842.659	24943
842.796	24726
842.933	24768
843.069	24639
843.206	24589
843.343	24715
843.479	24783
843.616	24616
843.752	24559
843.889	24608
844.025	24650
844.162	24532
844.298	24505
844.435	24429
844.571	24597
844.708	24502
844.844	24509
844.98	24696
845.117	24646
845.253	24353
845.389	24418
845.525	24505
845.661	24414
845.798	24277
845.934	24369
846.07	24243
846.206	24205
846.342	24327
846.478	24342
846.614	24026
846.75	23931
846.886	23950
847.022	23984
847.158	24076
847.294	23904
847.429	23961
847.565	23942
847.701	24186
847.837	23737
847.972	23634
848.108	23733
848.244	23783
848.379	23531
848.515	23436
848.65	23482
848.786	23497
848.921	23528
849.057	23798
849.192	23722
849.328	23592
849.463	23539
849.598	23433
849.734	23303
849.869	23303
850.004	23417
850.14	23387
850.275	23307
850.41	23178
850.545	23242
850.68	23200
850.815	23330
850.95	23258
851.085	23486
851.22	23406
851.355	23303
851.49	23322
851.625	23273
851.76	23277
851.895	23181
852.03	23178
852.165	23345
852.299	23303
852.434	23402
852.569	23356
852.703	23322
852.838	23239
852.973	23395
853.107	23535
853.242	23223
853.376	23060
853.511	23018
853.645	23155
853.78	23174
853.914	23254
854.048	23044
854.183	23037
854.317	23140
854.451	23284
854.585	23185
854.72	23181
854.854	23337
854.988	23159
855.122	23121
855.256	22965
855.39	23265
855.524	23296
855.658	23181
855.792	23159
855.926	23200
856.06	23242
856.194	23189
856.327	22991
856.461	23109
856.595	22953
856.729	23155
856.862	23235
856.996	23174
857.13	23231
857.263	23136
857.397	23235
857.53	23147
857.664	23155
857.797	23197
857.931	23220
858.064	23033
858.197	23364
858.331	23105
858.464	22999
858.597	23132
858.731	23181
858.864	23258
858.997	23140
859.13	23193
859.263	23136
859.396	23223
859.529	23102
859.662	23048
859.795	23121
859.928	23159
860.061	23227
860.194	23330
860.327	23288
860.46	23200
860.592	23174
860.725	23254
860.858	23200
860.99	23136
861.123	23083
861.256	23151
861.388	23105
861.521	23885
861.653	23018
861.786	22850
861.918	22976
862.05	23128
862.183	23090
862.315	22995
862.447	23022
862.58	23064
862.712	22949
862.844	22847
862.976	22885
863.108	22854
863.24	23246
863.372	22793
863.504	22786
863.636	22847
863.768	22877
863.9	22729
864.032	22854
864.164	22755
864.296	22816
864.428	23083
864.559	22923
864.691	22850
864.823	22793
864.954	22908
865.086	22752
865.217	22725
865.349	22664
865.48	22698
865.612	22694
865.743	22733
865.875	22816
866.006	22733
866.137	22668
866.269	22691
866.4	22660
866.531	22599
866.662	22702
866.793	22588
866.924	22618
867.055	22599
867.186	22733
867.317	22466
867.448	22516
867.579	22672
867.71	22599
867.841	22535
867.972	22577
868.103	22679
868.233	22542
868.364	22542
868.495	22767
868.625	22797
868.756	22778
868.886	22805
869.017	22820
869.147	23003
869.278	22957
869.408	22938
869.539	22824
869.669	22858
869.799	22934
869.929	23124
870.06	22953
870.19	23136
870.32	23048
870.45	23318
870.58	23258
870.71	23493
870.84	23376
870.97	23220
871.1	23200
871.23	23387
871.36	23509
871.489	23414
871.619	23444
871.749	23471
871.879	23410
872.008	23638
872.138	23425
872.267	23535
872.397	23277
872.526	23376
872.656	23284
872.785	23185
872.915	23444
873.044	23539
873.173	23566
873.303	23471
873.432	23531
873.561	23543
873.69	23482
873.819	23474
873.948	23657
874.077	23486
874.206	23436
874.335	23623
874.464	23501
874.593	23665
874.722	23589
874.851	23547
874.979	23680
875.108	23748
875.237	23638
875.365	23528
875.494	23672
875.623	23817
875.751	23642
875.88	23760
876.008	23847
876.136	23840
876.265	23935
876.393	24254
876.521	24015
876.65	24102
876.778	23958
876.906	23988
877.034	23958
877.162	24041
877.29	23961
877.418	23999
877.546	24068
877.674	24091
877.802	23969
877.93	24053
878.058	24011
878.185	23870
878.313	23965
878.441	23828
878.568	23889
878.696	23927
878.824	24117
878.951	24106
879.079	24167
879.206	24209
879.333	24194
879.461	24057
879.588	24060
879.715	24155
879.842	24281
879.97	24174
880.097	23897
880.224	23863
880.351	23939
880.478	23821
880.605	23874
880.732	23923
880.859	24060
880.986	23973
881.112	23733
881.239	23687
881.366	23444
881.493	23482
881.619	23417
881.746	23440
881.872	23387
881.999	23356
882.125	23296
882.252	23455
882.378	23296
882.505	23421
882.631	23258
882.757	23048
882.883	23132
883.01	22984
883.136	23006
883.262	22900
883.388	23048
883.514	23041
883.64	23189
883.766	22923
883.892	22755
884.018	22923
884.143	22968
884.269	23075
884.395	22862
884.52	22725
884.646	22675
884.772	22596
884.897	22489
885.023	22596
885.148	22797
885.274	22748
885.399	22649
885.524	22660
885.65	22687
885.775	22634
885.9	22637
886.025	22869
886.15	22622
886.275	22664
886.4	22500
886.525	22630
886.65	22664
886.775	22592
886.9	22812
887.025	22885
887.149	22698
887.274	22409
887.399	22554
887.523	22436
887.648	22413
887.773	22318
887.897	22478
888.021	22462
888.146	22356
888.27	22592
888.395	22478
888.519	22432
888.643	22371
888.767	22443
888.891	22356
889.015	22257
889.139	22287
889.263	22257
889.387	22249
889.511	22478
889.635	22226
889.759	22287
889.883	22143
890.006	22192
890.13	22333
890.254	22029
890.377	22101
890.501	21907
890.624	21975
890.748	22025
890.871	21793
890.995	21778
891.118	21720
891.241	21747
891.364	21785
891.488	21846
891.611	21865
891.734	21720
891.857	21812
891.98	21762
892.103	21766
892.226	21739
892.349	21679
892.471	21561
892.594	21481
892.717	21694
892.839	21606
892.962	21656
893.085	21770
893.207	21743
893.33	21488
893.452	21587
893.575	21724
893.697	21618
893.819	21838
893.941	21823
894.064	21800
894.186	21618
894.308	21595
894.43	21724
894.552	21675
894.674	21583
894.796	21511
894.918	21534
895.04	21561
895.161	21583
895.283	21682
895.405	21439
895.526	21641
895.648	21606
895.769	21564
895.891	21648
896.012	21793
896.134	21633
896.255	21622
896.376	21542
896.498	21439
896.619	21663
896.74	21431
896.861	21603
896.982	21915
897.103	22021
897.224	21884
897.345	21759
897.466	21679
897.587	21701
897.708	21953
897.828	21804
897.949	21698
898.07	21553
898.19	21595
898.311	21781
898.431	21759
898.552	21793
898.672	21762
898.792	21850
898.913	21705
899.033	21663
899.153	21686
899.273	21450
899.393	21500
899.513	21492
899.633	21515
899.753	21606
899.873	21534
899.993	21306
900.113	21416
900.232	21542
900.352	21405
900.472	21195
900.591	21344
900.711	21287
900.83	21272
900.95	21367
901.069	21367
901.189	21180
901.308	20925
901.427	20823
901.546	20902
901.665	20777
901.784	20807
901.904	20727
902.023	20556
902.141	20415
902.26	20336
902.379	20298
902.498	20290
902.617	20339
902.735	20339
902.854	20377
902.973	20271
903.091	19959
903.21	19925
903.328	19944
903.446	19909
903.565	19750
903.683	19696
903.801	19540
903.919	19670
904.038	19742
904.156	19533
904.274	19628
904.392	19457
904.51	19491
904.627	19518
904.745	19514
904.863	19556
904.981	19297
905.098	19141
905.216	19240
905.334	19228
905.451	19232
905.569	19164
905.686	19206
905.803	19179
905.921	18875
906.038	19004
906.155	19129
906.272	18821
906.389	18901
906.506	18715
906.623	18738
906.74	18696
906.857	18597
906.974	18604
907.091	18760
907.208	18787
907.324	18764
907.441	18646
907.557	18384
907.674	18437
907.79	18346
907.907	18365
908.023	18384
908.139	18410
908.256	18334
908.372	18194
908.488	18220
908.604	18102
908.72	18163
908.836	18213
908.952	18057
909.068	18091
909.184	18171
909.3	18019
909.415	18114
909.531	18076
909.647	17855
909.762	17824
909.878	17855
909.993	17741
910.108	17832
910.224	17745
910.339	17752
910.454	17668
910.57	17627
910.685	17482
910.8	17817
910.915	17718
911.03	17611
911.145	17520
911.259	17387
911.374	17482
911.489	17326
911.604	17360
911.718	17178
911.833	17189
911.947	17083
912.062	16790
912.176	17143
912.291	17159
912.405	17132
912.519	17326
912.633	17337
912.748	17090
912.862	17010
912.976	16957
913.09	16809
913.204	16824
913.318	17113
913.431	17056
913.545	16980
913.659	17018
913.772	16793
913.886	16778
914	16702
914.113	16812
914.226	16847
914.34	16694
914.453	16542
914.566	16850
914.68	16603
914.793	16451
914.906	16405
915.019	16386
915.132	16314
915.245	16188
915.358	16257
915.47	16325
915.583	16276
915.696	16291
915.809	16352
915.921	16363
916.034	16234
916.146	16135
916.259	16101
916.371	16310
916.483	16166
916.595	16055
916.708	16063
916.82	16093
916.932	15998
917.044	16032
917.156	16032
917.268	15873
917.38	15926
917.491	15876
917.603	15937
917.715	15922
917.826	15884
917.938	15778
918.049	15671
918.161	15736
918.272	15960
918.384	15911
918.495	15770
918.606	15713
918.717	15549
918.828	15606
918.939	15614
919.05	15507
919.161	15485
919.272	15344
919.383	15340
919.494	15587
919.604	15808
919.715	15614
919.826	15488
919.936	15572
920.047	15671
920.157	15557
920.267	15812
920.378	15568
920.488	15458
920.598	15682
920.708	15869
920.818	15641
920.928	15625
921.038	15850
921.148	15663
921.258	15526
921.368	15408
921.477	15222
921.587	15226
921.697	15097
921.806	15241
921.916	15173
922.025	14891
922.134	14952
922.244	14887
922.353	14811
922.462	14838
922.571	14781
922.68	14621
922.789	14473
922.898	14507
923.007	14488
923.116	14617
923.224	14507
923.333	14419
923.442	14415
923.55	14351
923.659	14419
923.767	14328
923.876	14282
923.984	14355
924.092	14168
924.201	14298
924.309	14263
924.417	14191
924.525	14180
924.633	14225
924.741	15028
924.849	13951
924.956	14142
925.064	13986
925.172	13791
925.279	13807
925.387	13856
925.494	13807
925.602	13936
925.709	13871
925.816	13791
925.924	13852
926.031	13883
926.138	13784
926.245	13940
926.352	13761
926.459	13944
926.566	13830
926.673	13742
926.779	13628
926.886	13594
926.993	13445
927.099	13460
927.206	13377
927.312	13274
927.419	13381
927.525	13464
927.631	13464
927.737	13240
927.843	13198
927.95	13190
928.056	13221
928.162	13247
928.267	13228
928.373	13772
928.479	13266
928.585	13114
928.69	13213
928.796	13251
928.901	13095
929.007	12951
929.112	13061
929.218	13065
929.323	13004
929.428	12958
929.533	13027
929.638	12939
929.743	12840
929.848	12951
929.953	12833
930.058	12757
930.163	12547
930.267	12589
930.372	12726
930.477	12509
930.581	12768
930.685	12669
930.79	12437
930.894	12536
930.998	12418
931.103	12585
931.207	12171
931.311	12148
931.415	12057
931.519	11855
931.623	11824
