Data from test_V78500241_3736.txt Node
Date: Fri Mar 25 16:07:40 CST 2022
User: usil
Spectrometer: V785-0024
Trigger mode: 0
Integration Time (sec): 4.000000E-1
Scans to average: 1
Nonlinearity correction enabled: false
Boxcar width: 0
Storing dark spectrum: false
XAxis mode: Wavelengths
Number of Pixels in Spectrum: 1024
>>>>>Begin Spectral Data<<<<<
801.071	28249
801.214	28265
801.356	27808
801.499	27873
801.641	27778
801.783	27876
801.926	27850
802.068	27724
802.211	27652
802.353	27747
802.496	27466
802.638	27549
802.78	27310
802.923	27363
803.065	27355
803.208	27298
803.35	27348
803.492	27500
803.635	27656
803.777	27439
803.919	27629
804.061	28128
804.204	27591
804.346	27405
804.488	27466
804.63	27713
804.773	27504
804.915	27694
805.057	27720
805.199	27553
805.341	27766
805.483	27937
805.626	27652
805.768	27694
805.91	27717
806.052	27819
806.194	27770
806.336	27972
806.478	27778
806.62	27899
806.762	27884
806.904	28101
807.046	28337
807.188	28219
807.33	28177
807.472	28242
807.614	28291
807.756	28223
807.898	27983
808.04	27941
808.182	28010
808.324	28067
808.465	28158
808.607	28192
808.749	28440
808.891	28687
809.033	28706
809.174	28386
809.316	28531
809.458	28504
809.6	28291
809.741	28660
809.883	28713
810.025	28759
810.166	28744
810.308	28782
810.45	28805
810.591	28744
810.733	28493
810.875	28466
811.016	28390
811.158	28246
811.299	28763
811.441	28523
811.582	28691
811.724	28481
811.865	28531
812.007	28577
812.148	28489
812.29	28550
812.431	28592
812.573	28828
812.714	28930
812.855	29048
812.997	29223
813.138	29105
813.279	29181
813.421	28949
813.562	28847
813.703	28790
813.845	28782
813.986	28371
814.127	28181
814.268	28219
814.41	28207
814.551	28207
814.692	28287
814.833	28135
814.974	28166
815.115	28120
815.256	28013
815.397	27975
815.539	27987
815.68	27934
815.821	27869
815.962	28032
816.103	27888
816.244	27956
816.385	27755
816.526	27682
816.666	27496
816.807	27439
816.948	27454
817.089	27629
817.23	27545
817.371	27386
817.512	27401
817.653	27431
817.793	27184
817.934	27412
818.075	27545
818.216	27340
818.356	27477
818.497	27157
818.638	27192
818.778	27226
818.919	27180
819.06	27435
819.2	27351
819.341	27355
819.481	27370
819.622	27667
819.762	27781
819.903	27641
820.043	27724
820.184	27591
820.324	27507
820.465	27652
820.605	27587
820.746	27481
820.886	27485
821.026	27507
821.167	27515
821.307	27625
821.447	27469
821.588	27325
821.728	27207
821.868	27100
822.008	26971
822.149	26963
822.289	26853
822.429	26594
822.569	26598
822.709	26579
822.849	26537
822.99	26343
823.13	26404
823.27	26408
823.41	26237
823.55	26172
823.69	26362
823.83	26195
823.97	26111
824.11	26126
824.25	26073
824.389	26130
824.529	26176
824.669	26043
824.809	26229
824.949	26119
825.089	26058
825.228	26058
825.368	25811
825.508	25849
825.648	26126
825.787	25947
825.927	26043
826.067	25932
826.206	25879
826.346	26077
826.485	25894
826.625	26001
826.765	26130
826.904	26016
827.044	25613
827.183	25635
827.323	25605
827.462	25791
827.601	25639
827.741	25575
827.88	25677
828.02	25449
828.159	25685
828.298	25681
828.437	25658
828.577	25746
828.716	25803
828.855	25605
828.994	25274
829.134	25312
829.273	25346
829.412	25343
829.551	25270
829.69	25381
829.829	25453
829.968	25369
830.107	25426
830.246	25400
830.385	25247
830.524	25251
830.663	25141
830.802	25080
830.941	24916
831.08	24897
831.219	24966
831.357	25084
831.496	25156
831.635	25019
831.774	25050
831.913	24817
832.051	24776
832.19	24639
832.329	24753
832.467	24707
832.606	24551
832.744	24563
832.883	24658
833.022	24684
833.16	24661
833.299	24639
833.437	24593
833.576	24741
833.714	24559
833.852	24791
833.991	24753
834.129	24757
834.267	24734
834.406	24753
834.544	24840
834.682	24753
834.821	24631
834.959	24897
835.097	24661
835.235	24772
835.373	24627
835.511	24627
835.65	24544
835.788	24544
835.926	24338
836.064	24323
836.202	24334
836.34	24494
836.478	24635
836.615	24525
836.753	24391
836.891	24566
837.029	24525
837.167	24521
837.305	24388
837.443	24361
837.58	24281
837.718	24483
837.856	24391
837.993	24216
838.131	24300
838.269	24140
838.406	24152
838.544	24220
838.681	24076
838.819	23920
838.956	23996
839.094	23866
839.231	24030
839.369	23946
839.506	24361
839.643	24106
839.781	23840
839.918	23684
840.055	23847
840.193	23840
840.33	23722
840.467	23790
840.604	23786
840.742	23927
840.879	23573
841.016	23649
841.153	23642
841.29	23916
841.427	23802
841.564	23699
841.701	23775
841.838	23627
841.975	23615
842.112	23642
842.249	23570
842.385	23493
842.522	23775
842.659	23627
842.796	23528
842.933	23535
843.069	23425
843.206	23509
843.343	23592
843.479	23520
843.616	23558
843.752	23307
843.889	23223
844.025	23395
844.162	23261
844.298	23280
844.435	23208
844.571	23155
844.708	23246
844.844	23387
844.98	23512
845.117	23455
845.253	23326
845.389	23128
845.525	23151
845.661	23067
845.798	23010
845.934	23056
846.07	23037
846.206	23071
846.342	23181
846.478	22972
846.614	22946
846.75	22683
846.886	22767
847.022	22869
847.158	22717
847.294	22752
847.429	22816
847.565	22843
847.701	23048
847.837	22557
847.972	22512
848.108	22577
848.244	22508
848.379	22390
848.515	22226
848.65	22272
848.786	22344
848.921	22394
849.057	22447
849.192	22367
849.328	22352
849.463	22303
849.598	22356
849.734	22112
849.869	22128
850.004	22124
850.14	22200
850.275	22067
850.41	22097
850.545	22044
850.68	22139
850.815	22223
850.95	22143
851.085	22246
851.22	22211
851.355	22177
851.49	22196
851.625	22055
851.76	22029
851.895	21972
852.03	21998
852.165	22013
852.299	22105
852.434	22162
852.569	22006
852.703	22128
852.838	22204
852.973	22200
853.107	22200
853.242	22032
853.376	21972
853.511	21797
853.645	21972
853.78	21979
853.914	21941
854.048	21850
854.183	21869
854.317	21831
854.451	22192
854.585	21968
854.72	21888
854.854	22006
854.988	21793
855.122	21975
855.256	21876
855.39	21899
855.524	22006
855.658	21968
855.792	22078
855.926	21941
856.06	21956
856.194	21960
856.327	21945
856.461	21793
856.595	21865
856.729	21861
856.862	21953
856.996	21945
857.13	21903
857.263	22048
857.397	21953
857.53	21975
857.664	22055
857.797	22025
857.931	21968
858.064	21979
858.197	22086
858.331	21930
858.464	21899
858.597	21808
858.731	21819
858.864	22059
858.997	21854
859.13	21979
859.263	21937
859.396	21930
859.529	21991
859.662	21865
859.795	21907
859.928	21968
860.061	22044
860.194	22192
860.327	21998
860.46	21907
860.592	22029
860.725	22150
860.858	22112
860.99	21922
861.123	21762
861.256	21838
861.388	21945
861.521	22493
861.653	21736
861.786	21701
861.918	21911
862.05	21865
862.183	21857
862.315	21994
862.447	21865
862.58	21895
862.712	21542
862.844	21530
862.976	21766
863.108	21713
863.24	22124
863.372	21561
863.504	21629
863.636	21701
863.768	21561
863.9	21686
864.032	21492
864.164	21466
864.296	21698
864.428	21713
864.559	21698
864.691	21762
864.823	21660
864.954	21652
865.086	21534
865.217	21428
865.349	21511
865.48	21622
865.612	21583
865.743	21637
865.875	21420
866.006	21507
866.137	21488
866.269	21336
866.4	21530
866.531	21332
866.662	21401
866.793	21340
866.924	21450
867.055	21564
867.186	21545
867.317	21450
867.448	21298
867.579	21481
867.71	21439
867.841	21412
867.972	21462
868.103	21435
868.233	21511
868.364	21401
868.495	21530
868.625	21595
868.756	21759
868.886	21580
869.017	21705
869.147	21781
869.278	21800
869.408	21705
869.539	21789
869.669	21846
869.799	21618
869.929	21720
870.06	21831
870.19	21987
870.32	21975
870.45	22070
870.58	22013
870.71	22234
870.84	22253
870.97	22188
871.1	21964
871.23	22280
871.36	22447
871.489	22219
871.619	22329
871.749	22322
871.879	22257
872.008	22436
872.138	22223
872.267	22268
872.397	22044
872.526	22234
872.656	22215
872.785	22154
872.915	22390
873.044	22417
873.173	22325
873.303	22459
873.432	22405
873.561	22451
873.69	22261
873.819	22329
873.948	22432
874.077	22409
874.206	22238
874.335	22291
874.464	22337
874.593	22531
874.722	22417
874.851	22550
874.979	22584
875.108	22592
875.237	22573
875.365	22360
875.494	22440
875.623	22637
875.751	22599
875.88	22538
876.008	22729
876.136	22626
876.265	22927
876.393	23079
876.521	22915
876.65	22991
876.778	22881
876.906	22915
877.034	22862
877.162	22946
877.29	22873
877.418	22911
877.546	22957
877.674	22911
877.802	22915
877.93	22885
878.058	22892
878.185	22767
878.313	22748
878.441	22885
878.568	22759
878.696	22702
878.824	22854
878.951	22881
879.079	23048
879.206	23197
879.333	23006
879.461	22911
879.588	22881
879.715	23037
879.842	23227
879.97	22953
880.097	22622
880.224	22653
880.351	22816
880.478	22649
880.605	22691
880.732	22637
880.859	23037
880.986	22740
881.112	22816
881.239	22675
881.366	22341
881.493	22440
881.619	22303
881.746	22276
881.872	22325
881.999	22120
882.125	22192
882.252	22356
882.378	22280
882.505	22318
882.631	22196
882.757	21926
882.883	21998
883.01	21998
883.136	22002
883.262	21823
883.388	21880
883.514	21994
883.64	22006
883.766	21770
883.892	21717
884.018	21743
884.143	21949
884.269	21983
884.395	21656
884.52	21576
884.646	21583
884.772	21603
884.897	21561
885.023	21599
885.148	21705
885.274	21705
885.399	21785
885.524	21606
885.65	21629
885.775	21561
885.9	21519
886.025	21698
886.15	21564
886.275	21530
886.4	21469
886.525	21603
886.65	21473
886.775	21511
886.9	21709
887.025	21842
887.149	21526
887.274	21397
887.399	21408
887.523	21401
887.648	21370
887.773	21279
887.897	21279
888.021	21336
888.146	21279
888.27	21405
888.395	21374
888.519	21424
888.643	21367
888.767	21526
888.891	21161
889.015	21173
889.139	21317
889.263	21119
889.387	21367
889.511	21450
889.635	21252
889.759	21112
889.883	21066
890.006	21131
890.13	21332
890.254	21104
890.377	21108
890.501	20925
890.624	20788
890.748	21013
890.871	20853
890.995	20644
891.118	20590
891.241	20708
891.364	20777
891.488	20781
891.611	20678
891.734	20686
891.857	20708
891.98	20731
892.103	20788
892.226	20667
892.349	20678
892.471	20488
892.594	20720
892.717	20674
892.839	20579
892.962	20640
893.085	20667
893.207	20636
893.33	20503
893.452	20629
893.575	20636
893.697	20663
893.819	20807
893.941	20914
894.064	20716
894.186	20598
894.308	20488
894.43	20644
894.552	20746
894.674	20659
894.796	20476
894.918	20625
895.04	20625
895.161	20712
895.283	20602
895.405	20602
895.526	20689
895.648	20606
895.769	20663
895.891	20549
896.012	20648
896.134	20712
896.255	20739
896.376	20571
896.498	20530
896.619	20689
896.74	20526
896.861	20750
896.982	20804
897.103	21169
897.224	20895
897.345	20686
897.466	20746
897.587	20849
897.708	20906
897.828	20842
897.949	20693
898.07	20678
898.19	20781
898.311	20918
898.431	20705
898.552	20708
898.672	20971
898.792	20842
898.913	20800
899.033	20762
899.153	20644
899.273	20537
899.393	20621
899.513	20571
899.633	20461
899.753	20632
899.873	20533
899.993	20629
900.113	20537
900.232	20560
900.352	20423
900.472	20313
900.591	20305
900.711	20370
900.83	20183
900.95	20488
901.069	20423
901.189	20229
901.308	19909
901.427	19947
901.546	19955
901.665	19875
901.784	19898
901.904	19742
902.023	19814
902.141	19548
902.26	19510
902.379	19495
902.498	19381
902.617	19422
902.735	19483
902.854	19373
902.973	19285
903.091	19091
903.21	19137
903.328	19069
903.446	18954
903.565	19061
903.683	18844
903.801	18715
903.919	18871
904.038	18787
904.156	18673
904.274	18703
904.392	18665
904.51	18616
904.627	18566
904.745	18627
904.863	18711
904.981	18540
905.098	18334
905.216	18330
905.334	18441
905.451	18437
905.569	18224
905.686	18353
905.803	18220
905.921	18125
906.038	18194
906.155	18095
906.272	17931
906.389	18060
906.506	17824
906.623	17847
906.74	17798
906.857	17684
906.974	17726
907.091	17885
907.208	17923
907.324	17866
907.441	17676
907.557	17505
907.674	17547
907.79	17505
907.907	17547
908.023	17520
908.139	17512
908.256	17459
908.372	17501
908.488	17349
908.604	17322
908.72	17204
908.836	17280
908.952	17265
909.068	17200
909.184	17391
909.3	17208
909.415	17326
909.531	17235
909.647	16999
909.762	16991
909.878	16866
909.993	17006
910.108	16881
910.224	16843
910.339	16923
910.454	16866
910.57	16725
910.685	16653
910.8	17041
910.915	16900
911.03	16812
911.145	16592
911.259	16580
911.374	16504
911.489	16512
911.604	16447
911.718	16291
911.833	16246
911.947	16169
912.062	16086
912.176	16303
912.291	16360
912.405	16276
912.519	16497
912.633	16500
912.748	16257
912.862	16246
912.976	16314
913.09	15953
913.204	16112
913.318	16177
913.431	16226
913.545	16162
913.659	16223
913.772	15994
913.886	15880
914	15854
914.113	16006
914.226	15994
914.34	15994
914.453	15720
914.566	16006
914.68	15759
914.793	15652
914.906	15553
915.019	15466
915.132	15431
915.245	15397
915.358	15515
915.47	15526
915.583	15439
915.696	15511
915.809	15622
915.921	15564
916.034	15443
916.146	15405
916.259	15310
916.371	15523
916.483	15420
916.595	15336
916.708	15344
916.82	15408
916.932	15256
917.044	15321
917.156	15226
917.268	15070
917.38	15161
917.491	15184
917.603	15180
917.715	15264
917.826	15222
917.938	15097
918.049	14990
918.161	15074
918.272	15272
918.384	15222
918.495	15077
918.606	14895
918.717	14880
918.828	14952
918.939	14982
919.05	14838
919.161	14781
919.272	14705
919.383	14678
919.494	14880
919.604	15028
919.715	14941
919.826	14754
919.936	14823
920.047	14906
920.157	14834
920.267	15024
920.378	14902
920.488	14731
920.598	15036
920.708	15112
920.818	14998
920.928	14910
921.038	15066
921.148	15017
921.258	14769
921.368	14682
921.477	14541
921.587	14594
921.697	14518
921.806	14541
921.916	14408
922.025	14183
922.134	14191
922.244	14168
922.353	14256
922.462	14050
922.571	14081
922.68	13849
922.789	13879
922.898	13871
923.007	13750
923.116	13868
923.224	13932
923.333	13830
923.442	13780
923.55	13715
923.659	13639
923.767	13750
923.876	13594
923.984	13750
924.092	13662
924.201	13666
924.309	13582
924.417	13571
924.525	13457
924.633	13438
924.741	14366
924.849	13365
924.956	13396
925.064	13343
925.172	13168
925.279	13297
925.387	13274
925.494	13259
925.602	13426
925.709	13221
925.816	13232
925.924	13206
926.031	13301
926.138	13164
926.245	13228
926.352	13114
926.459	13221
926.566	13320
926.673	13194
926.779	13008
926.886	12958
926.993	12901
927.099	12890
927.206	12734
927.312	12840
927.419	12871
927.525	12745
927.631	12867
927.737	12745
927.843	12658
927.95	12578
928.056	12563
928.162	12658
928.267	12711
928.373	13263
928.479	12673
928.585	12517
928.69	12612
928.796	12616
928.901	12521
929.007	12357
929.112	12513
929.218	12490
929.323	12338
929.428	12410
929.533	12467
929.638	12334
929.743	12270
929.848	12277
929.953	12270
930.058	12194
930.163	12011
930.267	11996
930.372	12121
930.477	11874
930.581	12277
930.685	12045
930.79	11916
930.894	11939
930.998	12007
931.103	11999
931.207	11608
931.311	11562
931.415	11429
931.519	11284
931.623	11246
