Data from test_V78500241_627.txt Node
Date: Fri Mar 25 15:46:08 CST 2022
User: usil
Spectrometer: V785-0024
Trigger mode: 0
Integration Time (sec): 4.000000E-1
Scans to average: 1
Nonlinearity correction enabled: false
Boxcar width: 0
Storing dark spectrum: false
XAxis mode: Wavelengths
Number of Pixels in Spectrum: 1024
>>>>>Begin Spectral Data<<<<<
801.071	27854
801.214	28078
801.356	27720
801.499	27800
801.641	27667
801.783	27576
801.926	27599
802.068	27553
802.211	27481
802.353	27622
802.496	27237
802.638	27195
802.78	27321
802.923	27241
803.065	27138
803.208	27173
803.35	27344
803.492	27481
803.635	27492
803.777	27291
803.919	27443
804.061	27690
804.204	27393
804.346	27325
804.488	27233
804.63	27443
804.773	27405
804.915	27317
805.057	27599
805.199	27576
805.341	27663
805.483	27610
805.626	27667
805.768	27507
805.91	27625
806.052	27583
806.194	27564
806.336	27800
806.478	27466
806.62	27473
806.762	27804
806.904	27846
807.046	28070
807.188	28010
807.33	28002
807.472	28128
807.614	27895
807.756	27956
807.898	27930
808.04	27884
808.182	27789
808.324	27987
808.465	27827
808.607	28059
808.749	28272
808.891	28284
809.033	28565
809.174	28310
809.316	28204
809.458	28310
809.6	28143
809.741	28360
809.883	28432
810.025	28436
810.166	28386
810.308	28569
810.45	28314
810.591	28337
810.733	28120
810.875	28173
811.016	28249
811.158	28173
811.299	28329
811.441	28257
811.582	28455
811.724	28162
811.865	28215
812.007	28291
812.148	28181
812.29	28329
812.431	28287
812.573	28615
812.714	28656
812.855	28854
812.997	28881
813.138	28984
813.279	28888
813.421	28995
813.562	28828
813.703	28672
813.845	28493
813.986	28150
814.127	27861
814.268	27892
814.41	27888
814.551	27918
814.692	28044
814.833	27823
814.974	27972
815.115	28013
815.256	27880
815.397	27827
815.539	27945
815.68	27736
815.821	27671
815.962	27686
816.103	27576
816.244	27599
816.385	27511
816.526	27614
816.666	27310
816.807	27173
816.948	27272
817.089	27192
817.23	27283
817.371	27249
817.512	27119
817.653	27294
817.793	27146
817.934	27252
818.075	27313
818.216	27332
818.356	27313
818.497	27138
818.638	26960
818.778	26986
818.919	26975
819.06	26990
819.2	27039
819.341	27264
819.481	27268
819.622	27386
819.762	27614
819.903	27511
820.043	27583
820.184	27348
820.324	27336
820.465	27568
820.605	27340
820.746	27287
820.886	27211
821.026	27348
821.167	27298
821.307	27416
821.447	27157
821.588	27249
821.728	27131
821.868	26887
822.008	26746
822.149	26659
822.289	26575
822.429	26598
822.569	26324
822.709	26415
822.849	26183
822.99	26187
823.13	26218
823.27	26202
823.41	26084
823.55	26115
823.69	26046
823.83	25906
823.97	25978
824.11	25868
824.25	25753
824.389	25837
824.529	25845
824.669	25799
824.809	26035
824.949	25860
825.089	26020
825.228	25944
825.368	25700
825.508	25708
825.648	25738
825.787	25704
825.927	25753
826.067	25731
826.206	25765
826.346	25769
826.485	25788
826.625	25643
826.765	25803
826.904	25582
827.044	25537
827.183	25476
827.323	25415
827.462	25438
827.601	25400
827.741	25438
827.88	25445
828.02	25293
828.159	25362
828.298	25510
828.437	25495
828.577	25304
828.716	25613
828.855	25346
828.994	25072
829.134	25175
829.273	25270
829.412	25099
829.551	24985
829.69	25141
829.829	25164
829.968	25133
830.107	25046
830.246	25057
830.385	24966
830.524	25019
830.663	25031
830.802	24783
830.941	24734
831.08	24673
831.219	24692
831.357	24814
831.496	24916
831.635	24681
831.774	24642
831.913	24532
832.051	24505
832.19	24407
832.329	24502
832.467	24460
832.606	24456
832.744	24346
832.883	24391
833.022	24315
833.16	24445
833.299	24319
833.437	24433
833.576	24467
833.714	24452
833.852	24544
833.991	24445
834.129	24502
834.267	24486
834.406	24369
834.544	24456
834.682	24311
834.821	24445
834.959	24593
835.097	24429
835.235	24422
835.373	24433
835.511	24498
835.65	24300
835.788	24315
835.926	24140
836.064	23973
836.202	24026
836.34	24388
836.478	24327
836.615	24304
836.753	24346
836.891	24361
837.029	24353
837.167	24125
837.305	24205
837.443	24216
837.58	24152
837.718	24220
837.856	24022
837.993	24083
838.131	24106
838.269	23973
838.406	23935
838.544	23710
838.681	23710
838.819	23695
838.956	23524
839.094	23627
839.231	23764
839.369	23756
839.506	23935
839.643	23840
839.781	23680
839.918	23657
840.055	23497
840.193	23551
840.33	23653
840.467	23547
840.604	23558
840.742	23783
840.879	23372
841.016	23543
841.153	23326
841.29	23516
841.427	23372
841.564	23490
841.701	23395
841.838	23421
841.975	23376
842.112	23463
842.249	23410
842.385	23239
842.522	23436
842.659	23387
842.796	23353
842.933	23147
843.069	23200
843.206	23200
843.343	23227
843.479	23235
843.616	23322
843.752	23048
843.889	23025
844.025	23079
844.162	23006
844.298	23071
844.435	23010
844.571	22927
844.708	23166
844.844	23185
844.98	23102
845.117	23109
845.253	22896
845.389	22873
845.525	22835
845.661	22999
845.798	22812
845.934	22843
846.07	22824
846.206	22885
846.342	22793
846.478	22744
846.614	22584
846.75	22474
846.886	22470
847.022	22519
847.158	22470
847.294	22481
847.429	22535
847.565	22394
847.701	22816
847.837	22405
847.972	22200
848.108	22242
848.244	22459
848.379	22036
848.515	22017
848.65	22154
848.786	22044
848.921	22070
849.057	22188
849.192	22135
849.328	22265
849.463	22025
849.598	21960
849.734	21998
849.869	21895
850.004	21854
850.14	21941
850.275	21808
850.41	21793
850.545	21884
850.68	21762
850.815	21759
850.95	21762
851.085	22070
851.22	21926
851.355	21857
851.49	21819
851.625	21831
851.76	21831
851.895	21728
852.03	21778
852.165	21816
852.299	21968
852.434	21953
852.569	21873
852.703	21789
852.838	21835
852.973	21907
853.107	21930
853.242	21736
853.376	21705
853.511	21542
853.645	21545
853.78	21625
853.914	21663
854.048	21652
854.183	21625
854.317	21709
854.451	21907
854.585	21682
854.72	21599
854.854	21793
854.988	21701
855.122	21637
855.256	21511
855.39	21720
855.524	21545
855.658	21751
855.792	21606
855.926	21644
856.06	21701
856.194	21694
856.327	21576
856.461	21599
856.595	21610
856.729	21625
856.862	21747
856.996	21690
857.13	21629
857.263	21819
857.397	21762
857.53	21644
857.664	21614
857.797	21789
857.931	21816
858.064	21698
858.197	21751
858.331	21667
858.464	21644
858.597	21485
858.731	21663
858.864	21720
858.997	21587
859.13	21720
859.263	21667
859.396	21694
859.529	21595
859.662	21671
859.795	21580
859.928	21633
860.061	21880
860.194	21888
860.327	21686
860.46	21591
860.592	21778
860.725	21766
860.858	21789
860.99	21538
861.123	21595
861.256	21751
861.388	21637
861.521	22363
861.653	21526
861.786	21454
861.918	21572
862.05	21545
862.183	21576
862.315	21511
862.447	21618
862.58	21583
862.712	21397
862.844	21454
862.976	21393
863.108	21458
863.24	21808
863.372	21222
863.504	21351
863.636	21256
863.768	21386
863.9	21329
864.032	21306
864.164	21370
864.296	21298
864.428	21462
864.559	21492
864.691	21416
864.823	21321
864.954	21408
865.086	21150
865.217	21351
865.349	21138
865.48	21241
865.612	21245
865.743	21329
865.875	21188
866.006	21344
866.137	21313
866.269	21218
866.4	21260
866.531	21203
866.662	21116
866.793	21123
866.924	21169
867.055	21119
867.186	21077
867.317	21203
867.448	21157
867.579	21214
867.71	21093
867.841	21024
867.972	21157
868.103	21081
868.233	21100
868.364	21123
868.495	21260
868.625	21340
868.756	21564
868.886	21336
869.017	21443
869.147	21412
869.278	21549
869.408	21511
869.539	21370
869.669	21492
869.799	21469
869.929	21397
870.06	21469
870.19	21694
870.32	21595
870.45	21728
870.58	21629
870.71	21880
870.84	21831
870.97	21926
871.1	21869
871.23	22013
871.36	22021
871.489	21926
871.619	22032
871.749	21918
871.879	21994
872.008	22109
872.138	21994
872.267	22116
872.397	21827
872.526	21808
872.656	21827
872.785	21736
872.915	21888
873.044	22109
873.173	21949
873.303	22032
873.432	22059
873.561	22055
873.69	22147
873.819	22086
873.948	22101
874.077	22090
874.206	22006
874.335	21998
874.464	22162
874.593	22265
874.722	22246
874.851	22192
874.979	22238
875.108	22428
875.237	22162
875.365	22192
875.494	22207
875.623	22352
875.751	22306
875.88	22287
876.008	22417
876.136	22451
876.265	22653
876.393	22828
876.521	22805
876.65	22748
876.778	22702
876.906	22546
877.034	22542
877.162	22485
877.29	22405
877.418	22550
877.546	22615
877.674	22752
877.802	22755
877.93	22668
878.058	22512
878.185	22504
878.313	22622
878.441	22630
878.568	22443
878.696	22512
878.824	22664
878.951	22710
879.079	22862
879.206	22877
879.333	22763
879.461	22664
879.588	22664
879.715	22847
879.842	22911
879.97	22649
880.097	22504
880.224	22402
880.351	22417
880.478	22443
880.605	22402
880.732	22382
880.859	22706
880.986	22466
881.112	22409
881.239	22314
881.366	22090
881.493	22051
881.619	21945
881.746	22032
881.872	21991
881.999	21899
882.125	21953
882.252	21972
882.378	21934
882.505	21983
882.631	21850
882.757	21819
882.883	21816
883.01	21656
883.136	21580
883.262	21542
883.388	21568
883.514	21781
883.64	21720
883.766	21633
883.892	21382
884.018	21618
884.143	21496
884.269	21728
884.395	21473
884.52	21447
884.646	21256
884.772	21378
884.897	21256
885.023	21416
885.148	21435
885.274	21576
885.399	21389
885.524	21298
885.65	21329
885.775	21332
885.9	21306
886.025	21420
886.15	21412
886.275	21180
886.4	21222
886.525	21275
886.65	21310
886.775	21268
886.9	21370
887.025	21511
887.149	21386
887.274	21180
887.399	21112
887.523	21104
887.648	21066
887.773	21055
887.897	21146
888.021	21020
888.146	21028
888.27	21154
888.395	21192
888.519	21138
888.643	21074
888.767	21150
888.891	21066
889.015	20899
889.139	20944
889.263	20823
889.387	21089
889.511	21131
889.635	20956
889.759	20823
889.883	20941
890.006	21001
890.13	20971
890.254	20769
890.377	20868
890.501	20651
890.624	20659
890.748	20625
890.871	20533
890.995	20476
891.118	20419
891.241	20511
891.364	20522
891.488	20568
891.611	20355
891.734	20518
891.857	20499
891.98	20427
892.103	20583
892.226	20507
892.349	20332
892.471	20347
892.594	20419
892.717	20415
892.839	20286
892.962	20286
893.085	20412
893.207	20381
893.33	20298
893.452	20286
893.575	20423
893.697	20328
893.819	20495
893.941	20476
894.064	20541
894.186	20347
894.308	20180
894.43	20377
894.552	20457
894.674	20412
894.796	20271
894.918	20339
895.04	20275
895.161	20412
895.283	20438
895.405	20305
895.526	20244
895.648	20309
895.769	20404
895.891	20389
896.012	20507
896.134	20301
896.255	20377
896.376	20256
896.498	20415
896.619	20438
896.74	20336
896.861	20415
896.982	20686
897.103	20807
897.224	20640
897.345	20564
897.466	20476
897.587	20579
897.708	20682
897.828	20602
897.949	20457
898.07	20412
898.19	20522
898.311	20678
898.431	20495
898.552	20507
898.672	20739
898.792	20613
898.913	20613
899.033	20511
899.153	20415
899.273	20191
899.393	20400
899.513	20393
899.633	20309
899.753	20252
899.873	20317
899.993	20278
900.113	20183
900.232	20370
900.352	20298
900.472	20168
900.591	20115
900.711	20111
900.83	20096
900.95	20161
901.069	20233
901.189	20039
901.308	19814
901.427	19601
901.546	19746
901.665	19700
901.784	19616
901.904	19590
902.023	19381
902.141	19278
902.26	19145
902.379	19312
902.498	19240
902.617	19152
902.735	19179
902.854	19270
902.973	19171
903.091	18814
903.21	18859
903.328	18825
903.446	18707
903.565	18646
903.683	18559
903.801	18521
903.919	18540
904.038	18525
904.156	18506
904.274	18475
904.392	18403
904.51	18475
904.627	18365
904.745	18410
904.863	18403
904.981	18186
905.098	18148
905.216	18060
905.334	18129
905.451	18003
905.569	18076
905.686	18019
905.803	18038
905.921	17882
906.038	18011
906.155	17927
906.272	17741
906.389	17786
906.506	17638
906.623	17680
906.74	17604
906.857	17417
906.974	17478
907.091	17775
907.208	17707
907.324	17497
907.441	17501
907.557	17303
907.674	17372
907.79	17307
907.907	17239
908.023	17414
908.139	17277
908.256	17395
908.372	17185
908.488	17117
908.604	17128
908.72	16957
908.836	17010
908.952	16942
909.068	17048
909.184	17246
909.3	17223
909.415	17056
909.531	16919
909.647	16755
909.762	16694
909.878	16767
909.993	16850
910.108	16683
910.224	16611
910.339	16736
910.454	16569
910.57	16634
910.685	16466
910.8	16793
910.915	16618
911.03	16489
911.145	16508
911.259	16333
911.374	16306
911.489	16344
911.604	16139
911.718	16109
911.833	16040
911.947	15937
912.062	15804
912.176	16090
912.291	16207
912.405	16059
912.519	16261
912.633	16246
912.748	16181
912.862	16040
912.976	15994
913.09	15667
913.204	15831
913.318	15915
913.431	15953
913.545	15915
913.659	16013
913.772	15762
913.886	15648
914	15701
914.113	15751
914.226	15819
914.34	15732
914.453	15553
914.566	15686
914.68	15542
914.793	15599
914.906	15332
915.019	15287
915.132	15199
915.245	15256
915.358	15306
915.47	15287
915.583	15264
915.696	15275
915.809	15378
915.921	15534
916.034	15275
916.146	15199
916.259	15157
916.371	15249
916.483	15245
916.595	15100
916.708	15173
916.82	15142
916.932	15032
917.044	15058
917.156	15085
917.268	14925
917.38	14918
917.491	14986
917.603	14956
917.715	15039
917.826	15020
917.938	14845
918.049	14746
918.161	14944
918.272	15066
918.384	15001
918.495	14914
918.606	14674
918.717	14727
918.828	14731
918.939	14716
919.05	14602
919.161	14689
919.272	14492
919.383	14590
919.494	14735
919.604	14872
919.715	14746
919.826	14667
919.936	14682
920.047	14701
920.157	14705
920.267	14842
920.378	14644
920.488	14587
920.598	14849
920.708	14975
920.818	14754
920.928	14712
921.038	14925
921.148	14929
921.258	14686
921.368	14442
921.477	14461
921.587	14400
921.697	14210
921.806	14423
921.916	14263
922.025	14065
922.134	13959
922.244	13993
922.353	14039
922.462	13970
922.571	13932
922.68	13715
922.789	13655
922.898	13708
923.007	13628
923.116	13658
923.224	13738
923.333	13651
923.442	13529
923.55	13563
923.659	13518
923.767	13548
923.876	13384
923.984	13582
924.092	13392
924.201	13468
924.309	13419
924.417	13346
924.525	13369
924.633	13426
924.741	14107
924.849	13149
924.956	13206
925.064	13152
925.172	13110
925.279	13057
925.387	13107
925.494	13145
925.602	13152
925.709	13145
925.816	13042
925.924	13152
926.031	13095
926.138	13038
926.245	13076
926.352	13004
926.459	13057
926.566	13152
926.673	12947
926.779	12821
926.886	12783
926.993	12722
927.099	12711
927.206	12631
927.312	12601
927.419	12707
927.525	12563
927.631	12726
927.737	12532
927.843	12437
927.95	12441
928.056	12403
928.162	12460
928.267	12445
928.373	13023
928.479	12471
928.585	12338
928.69	12433
928.796	12372
928.901	12308
929.007	12155
929.112	12418
929.218	12289
929.323	12273
929.428	12266
929.533	12262
929.638	12155
929.743	12106
929.848	12167
929.953	12114
930.058	12019
930.163	11847
930.267	11916
930.372	11965
930.477	11885
930.581	12011
930.685	11851
930.79	11790
930.894	11821
930.998	11665
931.103	11939
931.207	11482
931.311	11379
931.415	11273
931.519	11136
931.623	11121
