Data from test_V78500241_3488.txt Node
Date: Fri Mar 25 16:05:57 CST 2022
User: usil
Spectrometer: V785-0024
Trigger mode: 0
Integration Time (sec): 4.000000E-1
Scans to average: 1
Nonlinearity correction enabled: false
Boxcar width: 0
Storing dark spectrum: false
XAxis mode: Wavelengths
Number of Pixels in Spectrum: 1024
>>>>>Begin Spectral Data<<<<<
801.071	28965
801.214	28991
801.356	28725
801.499	28679
801.641	28592
801.783	28596
801.926	28592
802.068	28630
802.211	28649
802.353	28413
802.496	28303
802.638	28360
802.78	28314
802.923	28249
803.065	28188
803.208	28287
803.35	28428
803.492	28588
803.635	28561
803.777	28466
803.919	28569
804.061	28885
804.204	28497
804.346	28417
804.488	28512
804.63	28519
804.773	28489
804.915	28630
805.057	28618
805.199	28596
805.341	28679
805.483	28774
805.626	28573
805.768	28691
805.91	28767
806.052	28763
806.194	28683
806.336	28767
806.478	28755
806.62	28744
806.762	28812
806.904	29048
807.046	29261
807.188	29048
807.33	29269
807.472	29334
807.614	29128
807.756	29105
807.898	29029
808.04	29018
808.182	28904
808.324	28934
808.465	29166
808.607	29185
808.749	29440
808.891	29581
809.033	29665
809.174	29509
809.316	29311
809.458	29596
809.6	29459
809.741	29417
809.883	29554
810.025	29684
810.166	29691
810.308	29589
810.45	29756
810.591	29589
810.733	29554
810.875	29551
811.016	29471
811.158	29197
811.299	29577
811.441	29661
811.582	29577
811.724	29524
811.865	29535
812.007	29417
812.148	29516
812.29	29554
812.431	29558
812.573	29786
812.714	29935
812.855	30060
812.997	30102
813.138	30209
813.279	30022
813.421	29950
813.562	29965
813.703	29805
813.845	29836
813.986	29444
814.127	29410
814.268	29265
814.41	29326
814.551	29311
814.692	29204
814.833	29155
814.974	29136
815.115	29151
815.256	29113
815.397	29159
815.539	29052
815.68	28995
815.821	29010
815.962	28934
816.103	28919
816.244	28904
816.385	28828
816.526	28847
816.666	28630
816.807	28512
816.948	28596
817.089	28653
817.23	28462
817.371	28535
817.512	28443
817.653	28645
817.793	28550
817.934	28466
818.075	28531
818.216	28546
818.356	28470
818.497	28360
818.638	28249
818.778	28440
818.919	28268
819.06	28303
819.2	28379
819.341	28504
819.481	28588
819.622	28767
819.762	28953
819.903	28805
820.043	28641
820.184	28797
820.324	28611
820.465	28729
820.605	28740
820.746	28645
820.886	28607
821.026	28729
821.167	28592
821.307	28607
821.447	28554
821.588	28455
821.728	28478
821.868	28116
822.008	28063
822.149	28006
822.289	28143
822.429	27812
822.569	27732
822.709	27759
822.849	27637
822.99	27519
823.13	27660
823.27	27488
823.41	27447
823.55	27298
823.69	27332
823.83	27340
823.97	27408
824.11	27272
824.25	27051
824.389	27104
824.529	27321
824.669	27237
824.809	27355
824.949	27230
825.089	27283
825.228	27325
825.368	27108
825.508	27055
825.648	26979
825.787	27051
825.927	27218
826.067	26998
826.206	27055
826.346	27039
826.485	27104
826.625	27112
826.765	27077
826.904	27157
827.044	26842
827.183	26773
827.323	26857
827.462	26906
827.601	26921
827.741	26750
827.88	26804
828.02	26617
828.159	26686
828.298	26834
828.437	26811
828.577	26712
828.716	26849
828.855	26651
828.994	26465
829.134	26431
829.273	26552
829.412	26492
829.551	26324
829.69	26438
829.829	26427
829.968	26552
830.107	26552
830.246	26412
830.385	26446
830.524	26248
830.663	26275
830.802	26301
830.941	25955
831.08	26031
831.219	26168
831.357	26168
831.496	26286
831.635	26176
831.774	26183
831.913	25963
832.051	25986
832.19	25845
832.329	25940
832.467	25757
832.606	25738
832.744	25666
832.883	25681
833.022	25643
833.16	25704
833.299	25734
833.437	25795
833.576	25894
833.714	25921
833.852	25841
833.991	25864
834.129	25875
834.267	25814
834.406	25944
834.544	25868
834.682	25871
834.821	25818
834.959	25928
835.097	25780
835.235	25803
835.373	25757
835.511	25898
835.65	25556
835.788	25597
835.926	25628
836.064	25464
836.202	25438
836.34	25689
836.478	25784
836.615	25635
836.753	25655
836.891	25670
837.029	25635
837.167	25533
837.305	25521
837.443	25457
837.58	25514
837.718	25651
837.856	25499
837.993	25301
838.131	25297
838.269	25316
838.406	25297
838.544	25304
838.681	25095
838.819	25012
838.956	24920
839.094	25031
839.231	25046
839.369	25046
839.506	25168
839.643	25266
839.781	24886
839.918	24871
840.055	24878
840.193	24798
840.33	24791
840.467	24932
840.604	24856
840.742	25000
840.879	24593
841.016	24730
841.153	24734
841.29	24886
841.427	24700
841.564	24954
841.701	24700
841.838	24578
841.975	24779
842.112	24623
842.249	24673
842.385	24429
842.522	24665
842.659	24589
842.796	24631
842.933	24616
843.069	24589
843.206	24513
843.343	24547
843.479	24563
843.616	24544
843.752	24391
843.889	24338
844.025	24464
844.162	24391
844.298	24391
844.435	24323
844.571	24395
844.708	24308
844.844	24456
844.98	24418
845.117	24251
845.253	24201
845.389	24315
845.525	24239
845.661	24232
845.798	24117
845.934	24194
846.07	24022
846.206	24072
846.342	24197
846.478	24045
846.614	23859
846.75	23764
846.886	23741
847.022	23980
847.158	23802
847.294	23859
847.429	23760
847.565	23722
847.701	24022
847.837	23528
847.972	23657
848.108	23577
848.244	23722
848.379	23383
848.515	23368
848.65	23387
848.786	23417
848.921	23387
849.057	23531
849.192	23509
849.328	23364
849.463	23421
849.598	23402
849.734	23246
849.869	23193
850.004	23075
850.14	23265
850.275	23170
850.41	22991
850.545	23083
850.68	23113
850.815	23162
850.95	23117
851.085	23318
851.22	23239
851.355	23140
851.49	23128
851.625	23117
851.76	23083
851.895	23105
852.03	23086
852.165	23113
852.299	23185
852.434	23193
852.569	23159
852.703	23124
852.838	23124
852.973	23356
853.107	23193
853.242	23124
853.376	22862
853.511	22999
853.645	22984
853.78	23033
853.914	22930
854.048	22934
854.183	22908
854.317	23006
854.451	23151
854.585	23014
854.72	23037
854.854	23185
854.988	22915
855.122	22919
855.256	22763
855.39	22987
855.524	23071
855.658	23075
855.792	22957
855.926	23071
856.06	22999
856.194	23052
856.327	23025
856.461	22984
856.595	22927
856.729	22946
856.862	22991
856.996	22889
857.13	23041
857.263	23079
857.397	22946
857.53	22999
857.664	22991
857.797	23041
857.931	23071
858.064	23086
858.197	23128
858.331	22904
858.464	23048
858.597	22782
858.731	22949
858.864	22934
858.997	22759
859.13	22904
859.263	23010
859.396	23159
859.529	22915
859.662	22748
859.795	22847
859.928	22968
860.061	23140
860.194	23079
860.327	23086
860.46	23003
860.592	23014
860.725	23159
860.858	23079
860.99	22892
861.123	22889
861.256	22911
861.388	23018
861.521	23615
861.653	22706
861.786	22710
861.918	22828
862.05	22828
862.183	22942
862.315	22869
862.447	22820
862.58	22866
862.712	22713
862.844	22596
862.976	22782
863.108	22675
863.24	23022
863.372	22607
863.504	22717
863.636	22702
863.768	22774
863.9	22637
864.032	22596
864.164	22725
864.296	22759
864.428	22759
864.559	22850
864.691	22740
864.823	22771
864.954	22641
865.086	22569
865.217	22557
865.349	22542
865.48	22531
865.612	22569
865.743	22752
865.875	22470
866.006	22580
866.137	22569
866.269	22550
866.4	22500
866.531	22481
866.662	22390
866.793	22481
866.924	22478
867.055	22478
867.186	22500
867.317	22519
867.448	22360
867.579	22462
867.71	22409
867.841	22344
867.972	22443
868.103	22531
868.233	22672
868.364	22497
868.495	22421
868.625	22733
868.756	22835
868.886	22717
869.017	22683
869.147	22786
869.278	22881
869.408	22702
869.539	22675
869.669	22694
869.799	22748
869.929	22858
870.06	22778
870.19	23071
870.32	22984
870.45	23025
870.58	23109
870.71	23330
870.84	23174
870.97	23052
871.1	23056
871.23	23200
871.36	23269
871.489	23204
871.619	23151
871.749	23360
871.879	23337
872.008	23452
872.138	23334
872.267	23341
872.397	23071
872.526	23109
872.656	23143
872.785	23060
872.915	23296
873.044	23501
873.173	23330
873.303	23429
873.432	23311
873.561	23467
873.69	23356
873.819	23395
873.948	23497
874.077	23280
874.206	23311
874.335	23364
874.464	23463
874.593	23455
874.722	23474
874.851	23463
874.979	23543
875.108	23608
875.237	23478
875.365	23448
875.494	23471
875.623	23642
875.751	23589
875.88	23482
876.008	23604
876.136	23748
876.265	23935
876.393	24098
876.521	23927
876.65	23935
876.778	23916
876.906	23737
877.034	23832
877.162	23996
877.29	23885
877.418	23958
877.546	23874
877.674	23920
877.802	23916
877.93	23973
878.058	23805
878.185	23733
878.313	23767
878.441	23950
878.568	23638
878.696	23764
878.824	23847
878.951	24003
879.079	24068
879.206	24076
879.333	24174
879.461	23950
879.588	23942
879.715	24018
879.842	24095
879.97	23908
880.097	23630
880.224	23710
880.351	23779
880.478	23699
880.605	23703
880.732	23722
880.859	23893
880.986	23718
881.112	23672
881.239	23505
881.366	23467
881.493	23261
881.619	23246
881.746	23204
881.872	23292
881.999	23311
882.125	23220
882.252	23292
882.378	23265
882.505	23258
882.631	23140
882.757	22968
882.883	22889
883.01	22908
883.136	22858
883.262	22877
883.388	22759
883.514	22953
883.64	22915
883.766	22805
883.892	22752
884.018	22675
884.143	22805
884.269	22908
884.395	22626
884.52	22436
884.646	22557
884.772	22535
884.897	22508
885.023	22710
885.148	22561
885.274	22767
885.399	22691
885.524	22542
885.65	22516
885.775	22622
885.9	22618
886.025	22675
886.15	22626
886.275	22417
886.4	22436
886.525	22440
886.65	22447
886.775	22466
886.9	22577
887.025	22733
887.149	22519
887.274	22348
887.399	22287
887.523	22424
887.648	22253
887.773	22261
887.897	22447
888.021	22265
888.146	22131
888.27	22398
888.395	22379
888.519	22386
888.643	22291
888.767	22436
888.891	22131
889.015	22120
889.139	22166
889.263	22021
889.387	22226
889.511	22257
889.635	22158
889.759	21975
889.883	22074
890.006	22090
890.13	22059
890.254	22067
890.377	21972
890.501	21835
890.624	21800
890.748	21926
890.871	21701
890.995	21561
891.118	21439
891.241	21747
891.364	21694
891.488	21911
891.611	21663
891.734	21709
891.857	21736
891.98	21728
892.103	21679
892.226	21523
892.349	21587
892.471	21420
892.594	21515
892.717	21545
892.839	21507
892.962	21561
893.085	21515
893.207	21428
893.33	21344
893.452	21332
893.575	21504
893.697	21500
893.819	21694
893.941	21717
894.064	21622
894.186	21355
894.308	21469
894.43	21618
894.552	21633
894.674	21606
894.796	21374
894.918	21454
895.04	21462
895.161	21580
895.283	21500
895.405	21397
895.526	21519
895.648	21481
895.769	21462
895.891	21405
896.012	21507
896.134	21439
896.255	21412
896.376	21348
896.498	21454
896.619	21511
896.74	21332
896.861	21637
896.982	21827
897.103	21918
897.224	21682
897.345	21599
897.466	21580
897.587	21739
897.708	21819
897.828	21622
897.949	21660
898.07	21450
898.19	21686
898.311	21633
898.431	21580
898.552	21656
898.672	21781
898.792	21709
898.913	21606
899.033	21644
899.153	21561
899.273	21336
899.393	21298
899.513	21264
899.633	21306
899.753	21431
899.873	21264
899.993	21466
900.113	21291
900.232	21466
900.352	21355
900.472	21207
900.591	21176
900.711	21119
900.83	21062
900.95	21283
901.069	21268
901.189	21043
901.308	20785
901.427	20686
901.546	20750
901.665	20693
901.784	20686
901.904	20602
902.023	20461
902.141	20248
902.26	20336
902.379	20252
902.498	20229
902.617	20081
902.735	20168
902.854	20176
902.973	20119
903.091	19795
903.21	19807
903.328	19849
903.446	19818
903.565	19681
903.683	19643
903.801	19537
903.919	19647
904.038	19533
904.156	19430
904.274	19483
904.392	19403
904.51	19438
904.627	19392
904.745	19533
904.863	19476
904.981	19152
905.098	19015
905.216	19080
905.334	19050
905.451	19027
905.569	19000
905.686	19050
905.803	19137
905.921	18890
906.038	18932
906.155	18802
906.272	18726
906.389	18905
906.506	18608
906.623	18635
906.74	18578
906.857	18422
906.974	18475
907.091	18673
907.208	18681
907.324	18597
907.441	18429
907.557	18426
907.674	18289
907.79	18334
907.907	18304
908.023	18311
908.139	18372
908.256	18239
908.372	18216
908.488	18155
908.604	18136
908.72	18049
908.836	17984
908.952	18095
909.068	18015
909.184	18102
909.3	18022
909.415	18136
909.531	17973
909.647	17707
909.762	17840
909.878	17657
909.993	17623
910.108	17680
910.224	17638
910.339	17687
910.454	17562
910.57	17455
910.685	17398
910.8	17623
910.915	17619
911.03	17535
911.145	17353
911.259	17200
911.374	17258
911.489	17216
911.604	17208
911.718	16885
911.833	16949
911.947	16980
912.062	16778
912.176	17022
912.291	16938
912.405	16911
912.519	17296
912.633	17185
912.748	16999
912.862	16980
912.976	16839
913.09	16710
913.204	16763
913.318	16828
913.431	16839
913.545	16961
913.659	16923
913.772	16733
913.886	16637
914	16607
914.113	16656
914.226	16691
914.34	16687
914.453	16470
914.566	16637
914.68	16508
914.793	16584
914.906	16295
915.019	16200
915.132	16078
915.245	16177
915.358	16219
915.47	16131
915.583	16223
915.696	16116
915.809	16276
915.921	16284
916.034	16158
916.146	16154
916.259	16055
916.371	16105
916.483	16074
916.595	16025
916.708	15979
916.82	16010
916.932	15903
917.044	15941
917.156	15854
917.268	15766
917.38	15865
917.491	15835
917.603	15690
917.715	15895
917.826	15838
917.938	15709
918.049	15648
918.161	15694
918.272	15850
918.384	15793
918.495	15755
918.606	15538
918.717	15526
918.828	15572
918.939	15644
919.05	15534
919.161	15614
919.272	15363
919.383	15287
919.494	15534
919.604	15641
919.715	15530
919.826	15405
919.936	15481
920.047	15511
920.157	15511
920.267	15682
920.378	15568
920.488	15359
920.598	15553
920.708	15876
920.818	15667
920.928	15679
921.038	15675
921.148	15793
921.258	15534
921.368	15321
921.477	15138
921.587	15252
921.697	15135
921.806	15192
921.916	14982
922.025	14876
922.134	14868
922.244	14773
922.353	14682
922.462	14705
922.571	14644
922.68	14511
922.789	14476
922.898	14480
923.007	14419
923.116	14454
923.224	14442
923.333	14507
923.442	14286
923.55	14252
923.659	14263
923.767	14313
923.876	14206
923.984	14294
924.092	14145
924.201	14164
924.309	14237
924.417	14199
924.525	14153
924.633	14100
924.741	14864
924.849	13909
924.956	14024
925.064	13849
925.172	13803
925.279	13818
925.387	13826
925.494	13738
925.602	14043
925.709	13807
925.816	13685
925.924	13681
926.031	13826
926.138	13750
926.245	13814
926.352	13616
926.459	13712
926.566	13769
926.673	13700
926.779	13597
926.886	13624
926.993	13396
927.099	13354
927.206	13278
927.312	13346
927.419	13339
927.525	13327
927.631	13285
927.737	13270
927.843	13107
927.95	13004
928.056	13190
928.162	13190
928.267	13266
928.373	13757
928.479	13343
928.585	12943
928.69	13084
928.796	13072
928.901	12996
929.007	12844
929.112	13027
929.218	12897
929.323	12897
929.428	12848
929.533	12920
929.638	12928
929.743	12890
929.848	12840
929.953	12802
930.058	12642
930.163	12513
930.267	12506
930.372	12734
930.477	12448
930.581	12738
930.685	12547
930.79	12346
930.894	12467
930.998	12372
931.103	12521
931.207	12182
931.311	12053
931.415	11999
931.519	11805
931.623	11767
