Data from test_V78500241_1592.txt Node
Date: Fri Mar 25 15:52:49 CST 2022
User: usil
Spectrometer: V785-0024
Trigger mode: 0
Integration Time (sec): 4.000000E-1
Scans to average: 1
Nonlinearity correction enabled: false
Boxcar width: 0
Storing dark spectrum: false
XAxis mode: Wavelengths
Number of Pixels in Spectrum: 1024
>>>>>Begin Spectral Data<<<<<
801.071	28322
801.214	28284
801.356	27998
801.499	27972
801.641	28036
801.783	27835
801.926	27926
802.068	27705
802.211	27770
802.353	27816
802.496	27496
802.638	27492
802.78	27549
802.923	27477
803.065	27363
803.208	27416
803.35	27580
803.492	27618
803.635	27652
803.777	27557
803.919	27595
804.061	28067
804.204	27648
804.346	27690
804.488	27717
804.63	27618
804.773	27507
804.915	27762
805.057	27835
805.199	27656
805.341	27850
805.483	27880
805.626	27850
805.768	27816
805.91	27934
806.052	27819
806.194	27873
806.336	28017
806.478	27865
806.62	27816
806.762	27956
806.904	28166
807.046	28386
807.188	28341
807.33	28219
807.472	28379
807.614	28303
807.756	28215
807.898	28112
808.04	28116
808.182	28082
808.324	28238
808.465	28166
808.607	28348
808.749	28436
808.891	28531
809.033	28637
809.174	28565
809.316	28462
809.458	28554
809.6	28451
809.741	28687
809.883	28664
810.025	28763
810.166	28759
810.308	28972
810.45	28744
810.591	28793
810.733	28527
810.875	28341
811.016	28474
811.158	28367
811.299	28546
811.441	28755
811.582	28740
811.724	28481
811.865	28409
812.007	28382
812.148	28481
812.29	28474
812.431	28740
812.573	28805
812.714	28984
812.855	29113
812.997	28995
813.138	29277
813.279	29185
813.421	29094
813.562	29022
813.703	28919
813.845	28774
813.986	28432
814.127	28257
814.268	28082
814.41	28253
814.551	28082
814.692	28173
814.833	28067
814.974	28150
815.115	28112
815.256	28101
815.397	28147
815.539	28044
815.68	27892
815.821	27869
815.962	28090
816.103	28067
816.244	27880
816.385	27751
816.526	27728
816.666	27793
816.807	27500
816.948	27542
817.089	27488
817.23	27473
817.371	27389
817.512	27526
817.653	27439
817.793	27439
817.934	27523
818.075	27481
818.216	27477
818.356	27462
818.497	27306
818.638	27192
818.778	27279
818.919	27374
819.06	27275
819.2	27458
819.341	27515
819.481	27481
819.622	27576
819.762	27789
819.903	27759
820.043	27720
820.184	27622
820.324	27751
820.465	27701
820.605	27538
820.746	27526
820.886	27553
821.026	27549
821.167	27568
821.307	27797
821.447	27648
821.588	27469
821.728	27245
821.868	27100
822.008	27055
822.149	27005
822.289	27081
822.429	26712
822.569	26560
822.709	26625
822.849	26514
822.99	26518
823.13	26503
823.27	26431
823.41	26370
823.55	26240
823.69	26286
823.83	26275
823.97	26282
824.11	26229
824.25	26157
824.389	26138
824.529	26221
824.669	26180
824.809	26313
824.949	26206
825.089	26218
825.228	26092
825.368	25997
825.508	25909
825.648	26218
825.787	26031
825.927	26092
826.067	25944
826.206	25966
826.346	26191
826.485	26046
826.625	26008
826.765	26164
826.904	26050
827.044	25814
827.183	25799
827.323	25677
827.462	25788
827.601	25700
827.741	25613
827.88	25791
828.02	25651
828.159	25662
828.298	25746
828.437	25784
828.577	25734
828.716	25586
828.855	25662
828.994	25407
829.134	25506
829.273	25346
829.412	25460
829.551	25426
829.69	25384
829.829	25312
829.968	25464
830.107	25476
830.246	25426
830.385	25388
830.524	25206
830.663	25312
830.802	25103
830.941	25034
831.08	25027
831.219	25088
831.357	25065
831.496	25228
831.635	25046
831.774	24932
831.913	24932
832.051	24966
832.19	24878
832.329	24814
832.467	24776
832.606	24703
832.744	24578
832.883	24715
833.022	24631
833.16	24848
833.299	24764
833.437	24692
833.576	24749
833.714	24677
833.852	24814
833.991	24787
834.129	24852
834.267	24856
834.406	24745
834.544	24848
834.682	24863
834.821	24620
834.959	24886
835.097	24639
835.235	24833
835.373	24791
835.511	24696
835.65	24555
835.788	24559
835.926	24498
836.064	24254
836.202	24494
836.34	24593
836.478	24593
836.615	24627
836.753	24467
836.891	24631
837.029	24642
837.167	24547
837.305	24639
837.443	24384
837.58	24369
837.718	24563
837.856	24464
837.993	24357
838.131	24471
838.269	24155
838.406	24300
838.544	24251
838.681	24091
838.819	23996
838.956	23992
839.094	23859
839.231	23912
839.369	24095
839.506	24308
839.643	24159
839.781	23866
839.918	23809
840.055	23908
840.193	23912
840.33	23707
840.467	23828
840.604	23855
840.742	24110
840.879	23783
841.016	23649
841.153	23680
841.29	24022
841.427	23680
841.564	23767
841.701	23809
841.838	23760
841.975	23573
842.112	23783
842.249	23554
842.385	23596
842.522	23726
842.659	23627
842.796	23547
842.933	23547
843.069	23585
843.206	23524
843.343	23623
843.479	23566
843.616	23448
843.752	23292
843.889	23265
844.025	23406
844.162	23204
844.298	23364
844.435	23372
844.571	23315
844.708	23391
844.844	23436
844.98	23501
845.117	23402
845.253	23189
845.389	23128
845.525	23231
845.661	23311
845.798	22987
845.934	23044
846.07	23132
846.206	23083
846.342	23200
846.478	23124
846.614	22835
846.75	22691
846.886	22717
847.022	22774
847.158	22793
847.294	22831
847.429	22828
847.565	22725
847.701	23044
847.837	22489
847.972	22580
848.108	22615
848.244	22535
848.379	22432
848.515	22375
848.65	22310
848.786	22432
848.921	22299
849.057	22466
849.192	22500
849.328	22462
849.463	22375
849.598	22325
849.734	22196
849.869	22276
850.004	22120
850.14	22090
850.275	22128
850.41	22021
850.545	22158
850.68	22074
850.815	22154
850.95	22078
851.085	22261
851.22	22234
851.355	22181
851.49	22101
851.625	22173
851.76	22070
851.895	22013
852.03	22063
852.165	22063
852.299	22261
852.434	22211
852.569	22158
852.703	22124
852.838	22303
852.973	22261
853.107	22185
853.242	21979
853.376	21892
853.511	21869
853.645	22055
853.78	21987
853.914	21941
854.048	21869
854.183	21983
854.317	22109
854.451	22109
854.585	22013
854.72	21869
854.854	22032
854.988	21945
855.122	21869
855.256	21789
855.39	21945
855.524	22070
855.658	21953
855.792	21838
855.926	21892
856.06	21934
856.194	22063
856.327	21945
856.461	21953
856.595	21846
856.729	21892
856.862	22086
856.996	21888
857.13	22036
857.263	21972
857.397	22101
857.53	21998
857.664	22002
857.797	21960
857.931	22036
858.064	22010
858.197	21956
858.331	21922
858.464	21892
858.597	21926
858.731	21880
858.864	21842
858.997	21941
859.13	21937
859.263	21861
859.396	21998
859.529	21922
859.662	21804
859.795	21838
859.928	21880
860.061	22135
860.194	22067
860.327	21953
860.46	21979
860.592	22082
860.725	22086
860.858	22032
860.99	22059
861.123	21941
861.256	21899
861.388	21945
861.521	22554
861.653	21747
861.786	21682
861.918	21770
862.05	21880
862.183	21865
862.315	21892
862.447	21983
862.58	21880
862.712	21564
862.844	21568
862.976	21701
863.108	21755
863.24	22147
863.372	21603
863.504	21728
863.636	21633
863.768	21705
863.9	21675
864.032	21633
864.164	21644
864.296	21652
864.428	21732
864.559	21694
864.691	21739
864.823	21667
864.954	21610
865.086	21675
865.217	21591
865.349	21492
865.48	21629
865.612	21542
865.743	21625
865.875	21469
866.006	21564
866.137	21523
866.269	21481
866.4	21545
866.531	21378
866.662	21462
866.793	21496
866.924	21595
867.055	21504
867.186	21462
867.317	21564
867.448	21374
867.579	21367
867.71	21408
867.841	21511
867.972	21401
868.103	21473
868.233	21420
868.364	21523
868.495	21557
868.625	21701
868.756	21789
868.886	21622
869.017	21595
869.147	21736
869.278	21819
869.408	21667
869.539	21682
869.669	21728
869.799	21717
869.929	21759
870.06	21903
870.19	22051
870.32	21941
870.45	22006
870.58	22109
870.71	22154
870.84	22109
870.97	22135
871.1	22135
871.23	22261
871.36	22276
871.489	22242
871.619	22325
871.749	22432
871.879	22284
872.008	22352
872.138	22207
872.267	22329
872.397	22181
872.526	22116
872.656	22135
872.785	22059
872.915	22348
873.044	22474
873.173	22394
873.303	22295
873.432	22398
873.561	22371
873.69	22230
873.819	22367
873.948	22440
874.077	22382
874.206	22169
874.335	22268
874.464	22337
874.593	22622
874.722	22554
874.851	22580
874.979	22615
875.108	22561
875.237	22493
875.365	22500
875.494	22500
875.623	22607
875.751	22466
875.88	22679
876.008	22645
876.136	22675
876.265	22976
876.393	23006
876.521	23041
876.65	22984
876.778	22930
876.906	22866
877.034	22824
877.162	22843
877.29	22782
877.418	22946
877.546	22904
877.674	22835
877.802	22869
877.93	22854
878.058	22847
878.185	22729
878.313	22908
878.441	22885
878.568	22850
878.696	22824
878.824	22965
878.951	23003
879.079	23105
879.206	23132
879.333	23147
879.461	22934
879.588	23083
879.715	23056
879.842	23064
879.97	22957
880.097	22759
880.224	22733
880.351	22748
880.478	22854
880.605	22824
880.732	22752
880.859	22938
880.986	22611
881.112	22721
881.239	22653
881.366	22481
881.493	22421
881.619	22272
881.746	22375
881.872	22234
881.999	22303
882.125	22242
882.252	22249
882.378	22287
882.505	22344
882.631	22097
882.757	21903
882.883	21998
883.01	21968
883.136	21983
883.262	21816
883.388	21759
883.514	21964
883.64	21941
883.766	21899
883.892	21751
884.018	21842
884.143	21934
884.269	22120
884.395	21747
884.52	21606
884.646	21679
884.772	21477
884.897	21519
885.023	21507
885.148	21682
885.274	21781
885.399	21739
885.524	21515
885.65	21633
885.775	21667
885.9	21553
886.025	21572
886.15	21675
886.275	21580
886.4	21447
886.525	21618
886.65	21549
886.775	21511
886.9	21656
887.025	21652
887.149	21545
887.274	21370
887.399	21386
887.523	21359
887.648	21287
887.773	21294
887.897	21469
888.021	21340
888.146	21188
888.27	21378
888.395	21542
888.519	21469
888.643	21424
888.767	21428
888.891	21249
889.015	21237
889.139	21207
889.263	21169
889.387	21214
889.511	21397
889.635	21199
889.759	21077
889.883	21070
890.006	21252
890.13	21317
890.254	21165
890.377	21017
890.501	20960
890.624	20887
890.748	21020
890.871	20864
890.995	20762
891.118	20594
891.241	20781
891.364	20682
891.488	20925
891.611	20655
891.734	20682
891.857	20743
891.98	20708
892.103	20769
892.226	20667
892.349	20587
892.471	20537
892.594	20575
892.717	20746
892.839	20598
892.962	20682
893.085	20632
893.207	20663
893.33	20461
893.452	20533
893.575	20629
893.697	20518
893.819	20781
893.941	20880
894.064	20796
894.186	20511
894.308	20556
894.43	20746
894.552	20682
894.674	20701
894.796	20495
894.918	20640
895.04	20602
895.161	20720
895.283	20579
895.405	20568
895.526	20625
895.648	20602
895.769	20575
895.891	20686
896.012	20686
896.134	20651
896.255	20609
896.376	20526
896.498	20602
896.619	20602
896.74	20613
896.861	20632
896.982	20895
897.103	21070
897.224	20785
897.345	20739
897.466	20785
897.587	20906
897.708	21017
897.828	20765
897.949	20864
898.07	20609
898.19	20743
898.311	20933
898.431	20708
898.552	20830
898.672	20883
898.792	20967
898.913	20750
899.033	20785
899.153	20663
899.273	20499
899.393	20530
899.513	20693
899.633	20625
899.753	20693
899.873	20457
899.993	20575
900.113	20621
900.232	20583
900.352	20499
900.472	20434
900.591	20415
900.711	20438
900.83	20252
900.95	20366
901.069	20526
901.189	20164
901.308	19906
901.427	19875
901.546	19852
901.665	19993
901.784	19849
901.904	19765
902.023	19586
902.141	19476
902.26	19457
902.379	19518
902.498	19480
902.617	19365
902.735	19529
902.854	19369
902.973	19278
903.091	19198
903.21	19137
903.328	19019
903.446	18989
903.565	18905
903.683	18954
903.801	18661
903.919	18814
904.038	18852
904.156	18589
904.274	18700
904.392	18578
904.51	18490
904.627	18654
904.745	18688
904.863	18711
904.981	18502
905.098	18327
905.216	18300
905.334	18281
905.451	18334
905.569	18289
905.686	18319
905.803	18197
905.921	18133
906.038	18144
906.155	18121
906.272	17992
906.389	18060
906.506	17840
906.623	17779
906.74	17847
906.857	17691
906.974	17741
907.091	17851
907.208	18030
907.324	17882
907.441	17623
907.557	17562
907.674	17638
907.79	17497
907.907	17509
908.023	17630
908.139	17600
908.256	17410
908.372	17410
908.488	17417
908.604	17265
908.72	17254
908.836	17383
908.952	17269
909.068	17261
909.184	17383
909.3	17204
909.415	17356
909.531	17296
909.647	17003
909.762	16923
909.878	16976
909.993	16934
910.108	16965
910.224	16889
910.339	16915
910.454	16801
910.57	16831
910.685	16710
910.8	17033
910.915	16908
911.03	16740
911.145	16554
911.259	16580
911.374	16538
911.489	16561
911.604	16344
911.718	16299
911.833	16291
911.947	16226
912.062	16162
912.176	16238
912.291	16325
912.405	16367
912.519	16413
912.633	16462
912.748	16360
912.862	16230
912.976	16112
913.09	16078
913.204	16013
913.318	16067
913.431	16082
913.545	16207
913.659	16246
913.772	16044
913.886	15979
914	15972
914.113	15956
914.226	15964
914.34	15994
914.453	15869
914.566	15884
914.68	15781
914.793	15739
914.906	15500
915.019	15488
915.132	15515
915.245	15370
915.358	15530
915.47	15572
915.583	15504
915.696	15488
915.809	15625
915.921	15610
916.034	15431
916.146	15374
916.259	15287
916.371	15431
916.483	15348
916.595	15298
916.708	15332
916.82	15332
916.932	15279
917.044	15359
917.156	15291
917.268	15203
917.38	15188
917.491	15127
917.603	15112
917.715	15199
917.826	15245
917.938	15062
918.049	14910
918.161	15093
918.272	15237
918.384	15203
918.495	15081
918.606	15005
918.717	14864
918.828	14941
918.939	14963
919.05	14785
919.161	14845
919.272	14708
919.383	14731
919.494	14948
919.604	15058
919.715	14838
919.826	14826
919.936	14842
920.047	14895
920.157	14800
920.267	15195
920.378	14910
920.488	14891
920.598	14982
920.708	15184
920.818	14952
920.928	15085
921.038	15192
921.148	15173
921.258	14716
921.368	14674
921.477	14606
921.587	14644
921.697	14400
921.806	14556
921.916	14461
922.025	14271
922.134	14290
922.244	14115
922.353	14351
922.462	14058
922.571	14111
922.68	14008
922.789	13921
922.898	13917
923.007	13909
923.116	13932
923.224	13852
923.333	13963
923.442	13696
923.55	13746
923.659	13742
923.767	13784
923.876	13761
923.984	13750
924.092	13571
924.201	13590
924.309	13609
924.417	13643
924.525	13529
924.633	13502
924.741	14389
924.849	13392
924.956	13510
925.064	13270
925.172	13304
925.279	13247
925.387	13422
925.494	13263
925.602	13464
925.709	13324
925.816	13263
925.924	13251
926.031	13278
926.138	13069
926.245	13297
926.352	13168
926.459	13259
926.566	13320
926.673	13160
926.779	13038
926.886	13080
926.993	12954
927.099	12829
927.206	12859
927.312	12722
927.419	12852
927.525	12821
927.631	12867
927.737	12707
927.843	12642
927.95	12616
928.056	12540
928.162	12665
928.267	12722
928.373	13301
928.479	12806
928.585	12494
928.69	12631
928.796	12608
928.901	12544
929.007	12437
929.112	12528
929.218	12509
929.323	12437
929.428	12418
929.533	12521
929.638	12308
929.743	12308
929.848	12353
929.953	12372
930.058	12190
930.163	12003
930.267	12060
930.372	12243
930.477	12034
930.581	12262
930.685	12095
930.79	11916
930.894	11942
930.998	11855
931.103	11958
931.207	11729
931.311	11661
931.415	11493
931.519	11288
931.623	11318
