Data from test_V78500241_2835.txt Node
Date: Fri Mar 25 16:01:26 CST 2022
User: usil
Spectrometer: V785-0024
Trigger mode: 0
Integration Time (sec): 4.000000E-1
Scans to average: 1
Nonlinearity correction enabled: false
Boxcar width: 0
Storing dark spectrum: false
XAxis mode: Wavelengths
Number of Pixels in Spectrum: 1024
>>>>>Begin Spectral Data<<<<<
801.071	28942
801.214	29033
801.356	28592
801.499	28706
801.641	28538
801.783	28611
801.926	28542
802.068	28363
802.211	28409
802.353	28337
802.496	28280
802.638	28074
802.78	28188
802.923	28200
803.065	28128
803.208	28196
803.35	28204
803.492	28398
803.635	28451
803.777	28306
803.919	28356
804.061	28755
804.204	28470
804.346	28371
804.488	28394
804.63	28599
804.773	28261
804.915	28371
805.057	28630
805.199	28375
805.341	28557
805.483	28542
805.626	28569
805.768	28485
805.91	28607
806.052	28584
806.194	28519
806.336	28634
806.478	28694
806.62	28679
806.762	28847
806.904	29029
807.046	29117
807.188	29056
807.33	29064
807.472	29151
807.614	29071
807.756	29037
807.898	28847
808.04	28755
808.182	28949
808.324	28911
808.465	29094
808.607	29250
808.749	29311
808.891	29288
809.033	29528
809.174	29315
809.316	29318
809.458	29151
809.6	29235
809.741	29474
809.883	29440
810.025	29611
810.166	29589
810.308	29646
810.45	29608
810.591	29493
810.733	29334
810.875	29246
811.016	29204
811.158	29174
811.299	29459
811.441	29383
811.582	29440
811.724	29387
811.865	29349
812.007	29250
812.148	29444
812.29	29417
812.431	29547
812.573	29714
812.714	29623
812.855	29809
812.997	29878
813.138	30022
813.279	29992
813.421	29878
813.562	29813
813.703	29589
813.845	29604
813.986	29261
814.127	29128
814.268	29037
814.41	29083
814.551	28892
814.692	29041
814.833	28938
814.974	28942
815.115	29102
815.256	28881
815.397	28892
815.539	28919
815.68	28755
815.821	28763
815.962	28786
816.103	28984
816.244	28710
816.385	28752
816.526	28554
816.666	28508
816.807	28379
816.948	28394
817.089	28440
817.23	28272
817.371	28234
817.512	28348
817.653	28192
817.793	28223
817.934	28238
818.075	28337
818.216	28409
818.356	28253
818.497	28204
818.638	28082
818.778	28059
818.919	28177
819.06	28131
819.2	28253
819.341	28379
819.481	28344
819.622	28504
819.762	28710
819.903	28565
820.043	28531
820.184	28474
820.324	28443
820.465	28599
820.605	28379
820.746	28481
820.886	28424
821.026	28375
821.167	28519
821.307	28508
821.447	28310
821.588	28249
821.728	28211
821.868	28063
822.008	27793
822.149	27880
822.289	27876
822.429	27462
822.569	27435
822.709	27447
822.849	27275
822.99	27393
823.13	27439
823.27	27298
823.41	27043
823.55	27085
823.69	27283
823.83	27100
823.97	27077
824.11	26895
824.25	26986
824.389	26933
824.529	27036
824.669	27150
824.809	27108
824.949	27043
825.089	27131
825.228	27032
825.368	26857
825.508	26758
825.648	26895
825.787	26914
825.927	26845
826.067	26815
826.206	26800
826.346	26937
826.485	26918
826.625	26910
826.765	26895
826.904	26937
827.044	26621
827.183	26731
827.323	26522
827.462	26735
827.601	26674
827.741	26587
827.88	26785
828.02	26522
828.159	26575
828.298	26598
828.437	26621
828.577	26549
828.716	26594
828.855	26393
828.994	26358
829.134	26355
829.273	26362
829.412	26313
829.551	26237
829.69	26301
829.829	26248
829.968	26343
830.107	26358
830.246	26294
830.385	26240
830.524	26027
830.663	26115
830.802	26046
830.941	25951
831.08	25875
831.219	25959
831.357	25982
831.496	26202
831.635	25959
831.774	25849
831.913	25833
832.051	25635
832.19	25628
832.329	25765
832.467	25632
832.606	25544
832.744	25567
832.883	25552
833.022	25464
833.16	25677
833.299	25750
833.437	25521
833.576	25708
833.714	25681
833.852	25689
833.991	25791
834.129	25734
834.267	25666
834.406	25639
834.544	25715
834.682	25639
834.821	25571
834.959	25814
835.097	25632
835.235	25651
835.373	25575
835.511	25575
835.65	25559
835.788	25495
835.926	25419
836.064	25350
836.202	25152
836.34	25559
836.478	25559
836.615	25445
836.753	25441
836.891	25518
837.029	25552
837.167	25377
837.305	25438
837.443	25324
837.58	25297
837.718	25346
837.856	25259
837.993	25213
838.131	25213
838.269	25072
838.406	25251
838.544	25110
838.681	24935
838.819	24894
838.956	24859
839.094	24768
839.231	24772
839.369	24821
839.506	25126
839.643	25015
839.781	24642
839.918	24688
840.055	24700
840.193	24646
840.33	24700
840.467	24669
840.604	24760
840.742	24985
840.879	24604
841.016	24521
841.153	24509
841.29	24745
841.427	24650
841.564	24741
841.701	24540
841.838	24593
841.975	24490
842.112	24525
842.249	24536
842.385	24452
842.522	24601
842.659	24376
842.796	24353
842.933	24380
843.069	24327
843.206	24433
843.343	24597
843.479	24315
843.616	24357
843.752	24201
843.889	24182
844.025	24277
844.162	24171
844.298	24117
844.435	24140
844.571	24186
844.708	24235
844.844	24338
844.98	24209
845.117	24350
845.253	24079
845.389	23961
845.525	24102
845.661	24205
845.798	24015
845.934	23863
846.07	23916
846.206	23878
846.342	24049
846.478	23805
846.614	23775
846.75	23585
846.886	23596
847.022	23657
847.158	23710
847.294	23733
847.429	23657
847.565	23642
847.701	23847
847.837	23345
847.972	23322
848.108	23326
848.244	23379
848.379	23311
848.515	23216
848.65	23143
848.786	23102
848.921	23269
849.057	23212
849.192	23311
849.328	23132
849.463	23147
849.598	23181
849.734	23220
849.869	22965
850.004	22927
850.14	22927
850.275	23037
850.41	22896
850.545	22854
850.68	22961
850.815	22984
850.95	23029
851.085	23124
851.22	22999
851.355	22896
851.49	22866
851.625	22987
851.76	22991
851.895	22713
852.03	22984
852.165	22759
852.299	23006
852.434	23155
852.569	23105
852.703	22904
852.838	23022
852.973	23220
853.107	23044
853.242	22946
853.376	22771
853.511	22672
853.645	22679
853.78	22915
853.914	22850
854.048	22778
854.183	22828
854.317	22946
854.451	23022
854.585	22847
854.72	22729
854.854	23018
854.988	22706
855.122	22892
855.256	22645
855.39	22691
855.524	22824
855.658	22847
855.792	22896
855.926	22759
856.06	22831
856.194	22736
856.327	22782
856.461	22812
856.595	22721
856.729	22774
856.862	22942
856.996	22843
857.13	22816
857.263	22797
857.397	22976
857.53	22679
857.664	22793
857.797	22790
857.931	22923
858.064	22820
858.197	22946
858.331	22797
858.464	22774
858.597	22710
858.731	22702
858.864	22698
858.997	22763
859.13	22911
859.263	22869
859.396	22801
859.529	22733
859.662	22683
859.795	22641
859.928	22755
860.061	23052
860.194	22991
860.327	22805
860.46	22831
860.592	22953
860.725	22961
860.858	22938
860.99	22843
861.123	22774
861.256	22752
861.388	22755
861.521	23558
861.653	22679
861.786	22542
861.918	22710
862.05	22691
862.183	22759
862.315	22656
862.447	22706
862.58	22702
862.712	22523
862.844	22577
862.976	22603
863.108	22523
863.24	22862
863.372	22421
863.504	22386
863.636	22554
863.768	22489
863.9	22497
864.032	22382
864.164	22375
864.296	22344
864.428	22592
864.559	22584
864.691	22485
864.823	22462
864.954	22360
865.086	22466
865.217	22466
865.349	22394
865.48	22276
865.612	22413
865.743	22508
865.875	22329
866.006	22360
866.137	22394
866.269	22325
866.4	22375
866.531	22299
866.662	22291
866.793	22314
866.924	22310
867.055	22314
867.186	22352
867.317	22329
867.448	22265
867.579	22200
867.71	22242
867.841	22234
867.972	22329
868.103	22242
868.233	22382
868.364	22306
868.495	22356
868.625	22626
868.756	22542
868.886	22451
869.017	22561
869.147	22713
869.278	22630
869.408	22569
869.539	22523
869.669	22497
869.799	22462
869.929	22721
870.06	22710
870.19	22835
870.32	22850
870.45	22778
870.58	22812
870.71	23033
870.84	23022
870.97	22938
871.1	22919
871.23	23155
871.36	23037
871.489	22946
871.619	23090
871.749	23022
871.879	23265
872.008	23220
872.138	23212
872.267	23109
872.397	22968
872.526	22930
872.656	23029
872.785	22923
872.915	23094
873.044	23136
873.173	23185
873.303	23299
873.432	23239
873.561	23345
873.69	23170
873.819	23124
873.948	23162
874.077	23098
874.206	23124
874.335	23162
874.464	23223
874.593	23322
874.722	23372
874.851	23395
874.979	23406
875.108	23520
875.237	23326
875.365	23341
875.494	23436
875.623	23467
875.751	23288
875.88	23261
876.008	23512
876.136	23581
876.265	23809
876.393	23836
876.521	23779
876.65	23977
876.778	23726
876.906	23707
877.034	23672
877.162	23649
877.29	23657
877.418	23817
877.546	23661
877.674	23707
877.802	23649
877.93	23634
878.058	23509
878.185	23547
878.313	23615
878.441	23634
878.568	23577
878.696	23608
878.824	23608
878.951	23756
879.079	23893
879.206	24030
879.333	23866
879.461	23646
879.588	23760
879.715	23935
879.842	23965
879.97	23699
880.097	23452
880.224	23547
880.351	23589
880.478	23459
880.605	23520
880.732	23604
880.859	23668
880.986	23463
881.112	23501
881.239	23372
881.366	23250
881.493	23193
881.619	23010
881.746	23098
881.872	23014
881.999	23083
882.125	22953
882.252	22995
882.378	23064
882.505	23113
882.631	22774
882.757	22736
882.883	22911
883.01	22706
883.136	22664
883.262	22523
883.388	22649
883.514	22630
883.64	22824
883.766	22592
883.892	22466
884.018	22504
884.143	22687
884.269	22710
884.395	22386
884.52	22295
884.646	22440
884.772	22272
884.897	22390
885.023	22276
885.148	22516
885.274	22554
885.399	22329
885.524	22329
885.65	22379
885.775	22246
885.9	22371
886.025	22447
886.15	22344
886.275	22268
886.4	22158
886.525	22341
886.65	22432
886.775	22215
886.9	22398
887.025	22561
887.149	22485
887.274	22059
887.399	22040
887.523	22204
887.648	21994
887.773	22109
887.897	22268
888.021	22230
888.146	22051
888.27	22166
888.395	22234
888.519	22044
888.643	22128
888.767	22055
888.891	22067
889.015	21979
889.139	22090
889.263	21949
889.387	21979
889.511	21975
889.635	21987
889.759	21819
889.883	21941
890.006	21956
890.13	21972
890.254	21888
890.377	21945
890.501	21717
890.624	21481
890.748	21717
890.871	21614
890.995	21439
891.118	21332
891.241	21561
891.364	21542
891.488	21606
891.611	21397
891.734	21507
891.857	21511
891.98	21481
892.103	21348
892.226	21447
892.349	21348
892.471	21298
892.594	21405
892.717	21408
892.839	21310
892.962	21393
893.085	21397
893.207	21272
893.33	21279
893.452	21272
893.575	21454
893.697	21329
893.819	21481
893.941	21519
894.064	21485
894.186	21176
894.308	21272
894.43	21397
894.552	21519
894.674	21507
894.796	21180
894.918	21291
895.04	21310
895.161	21336
895.283	21351
895.405	21298
895.526	21321
895.648	21237
895.769	21382
895.891	21348
896.012	21329
896.134	21321
896.255	21154
896.376	21218
896.498	21317
896.619	21367
896.74	21157
896.861	21222
896.982	21561
897.103	21774
897.224	21515
897.345	21393
897.466	21526
897.587	21595
897.708	21564
897.828	21485
897.949	21382
898.07	21291
898.19	21492
898.311	21564
898.431	21515
898.552	21393
898.672	21568
898.792	21591
898.913	21538
899.033	21344
899.153	21367
899.273	21150
899.393	21332
899.513	21321
899.633	21249
899.753	21199
899.873	21173
899.993	21211
900.113	21203
900.232	21351
900.352	21230
900.472	21013
900.591	21138
900.711	20967
900.83	20933
900.95	21058
901.069	21169
901.189	20899
901.308	20663
901.427	20431
901.546	20579
901.665	20530
901.784	20495
901.904	20377
902.023	20317
902.141	20187
902.26	20031
902.379	20252
902.498	20027
902.617	19913
902.735	20084
902.854	20077
902.973	19993
903.091	19757
903.21	19753
903.328	19681
903.446	19651
903.565	19540
903.683	19540
903.801	19430
903.919	19396
904.038	19384
904.156	19259
904.274	19297
904.392	19251
904.51	19221
904.627	19293
904.745	19365
904.863	19365
904.981	19084
905.098	18913
905.216	18909
905.334	18951
905.451	19034
905.569	18825
905.686	18856
905.803	18932
905.921	18665
906.038	18897
906.155	18623
906.272	18570
906.389	18642
906.506	18441
906.623	18494
906.74	18479
906.857	18464
906.974	18437
907.091	18574
907.208	18646
907.324	18513
907.441	18319
907.557	18323
907.674	18136
907.79	18117
907.907	18098
908.023	18167
908.139	18224
908.256	18030
908.372	18060
908.488	17980
908.604	17893
908.72	17916
908.836	17939
908.952	17878
909.068	17912
909.184	18026
909.3	17893
909.415	17889
909.531	17840
909.647	17490
909.762	17543
909.878	17604
909.993	17604
910.108	17520
910.224	17448
910.339	17589
910.454	17341
910.57	17395
910.685	17242
910.8	17562
910.915	17516
911.03	17360
911.145	17185
911.259	17235
911.374	17208
911.489	17045
911.604	17041
911.718	16900
911.833	16915
911.947	16752
912.062	16736
912.176	16892
912.291	16782
912.405	16854
912.519	17033
912.633	17006
912.748	16968
912.862	16881
912.976	16729
913.09	16577
913.204	16634
913.318	16706
913.431	16790
913.545	16782
913.659	16748
913.772	16622
913.886	16481
914	16455
914.113	16603
914.226	16497
914.34	16592
914.453	16379
914.566	16409
914.68	16455
914.793	16265
914.906	16181
915.019	16036
915.132	16112
915.245	16017
915.358	15991
915.47	16086
915.583	16036
915.696	16025
915.809	16207
915.921	16086
916.034	15975
916.146	15907
916.259	15850
916.371	16063
916.483	15987
916.595	15819
916.708	15930
916.82	15819
916.932	15720
917.044	15869
917.156	15812
917.268	15610
917.38	15747
917.491	15549
917.603	15682
917.715	15686
917.826	15690
917.938	15469
918.049	15507
918.161	15629
918.272	15800
918.384	15747
918.495	15515
918.606	15336
918.717	15306
918.828	15420
918.939	15332
919.05	15245
919.161	15351
919.272	15142
919.383	15252
919.494	15469
919.604	15606
919.715	15408
919.826	15264
919.936	15317
920.047	15420
920.157	15412
920.267	15576
920.378	15344
920.488	15355
920.598	15450
920.708	15656
920.818	15481
920.928	15473
921.038	15599
921.148	15660
921.258	15226
921.368	15131
921.477	15081
921.587	15074
921.697	14948
921.806	15043
921.916	14921
922.025	14796
922.134	14727
922.244	14693
922.353	14762
922.462	14621
922.571	14492
922.68	14362
922.789	14362
922.898	14339
923.007	14233
923.116	14465
923.224	14263
923.333	14263
923.442	14187
923.55	14225
923.659	14210
923.767	14248
923.876	14084
923.984	14210
924.092	14050
924.201	14062
924.309	14035
924.417	14107
924.525	13909
924.633	13902
924.741	14872
924.849	13746
924.956	13845
925.064	13769
925.172	13696
925.279	13738
925.387	13772
925.494	13677
925.602	13738
925.709	13750
925.816	13586
925.924	13666
926.031	13795
926.138	13620
926.245	13643
926.352	13537
926.459	13651
926.566	13780
926.673	13624
926.779	13480
926.886	13411
926.993	13320
927.099	13251
927.206	13244
927.312	13171
927.419	13297
927.525	13213
927.631	13194
927.737	13187
927.843	13099
927.95	12951
928.056	13091
928.162	13118
928.267	13141
928.373	13731
928.479	13141
928.585	12935
928.69	12970
928.796	13042
928.901	12852
929.007	12913
929.112	12920
929.218	12810
929.323	12783
929.428	12726
929.533	12886
929.638	12730
929.743	12734
929.848	12719
929.953	12700
930.058	12692
930.163	12410
930.267	12391
930.372	12623
930.477	12410
930.581	12566
930.685	12380
930.79	12296
930.894	12372
930.998	12266
931.103	12399
931.207	12015
931.311	11965
931.415	11942
931.519	11657
931.623	11630
