Data from test_V78500241_727.txt Node
Date: Fri Mar 25 15:46:50 CST 2022
User: usil
Spectrometer: V785-0024
Trigger mode: 0
Integration Time (sec): 4.000000E-1
Scans to average: 1
Nonlinearity correction enabled: false
Boxcar width: 0
Storing dark spectrum: false
XAxis mode: Wavelengths
Number of Pixels in Spectrum: 1024
>>>>>Begin Spectral Data<<<<<
801.071	27922
801.214	28006
801.356	27637
801.499	27530
801.641	27473
801.783	27427
801.926	27504
802.068	27496
802.211	27431
802.353	27199
802.496	27142
802.638	27089
802.78	27085
802.923	27001
803.065	27009
803.208	27085
803.35	27123
803.492	27256
803.635	27241
803.777	27184
803.919	27165
804.061	27599
804.204	27500
804.346	27173
804.488	27146
804.63	27332
804.773	27199
804.915	27176
805.057	27401
805.199	27249
805.341	27359
805.483	27492
805.626	27523
805.768	27416
805.91	27572
806.052	27534
806.194	27302
806.336	27576
806.478	27443
806.62	27416
806.762	27473
806.904	27606
807.046	27979
807.188	27793
807.33	27899
807.472	27926
807.614	27835
807.756	27918
807.898	27633
808.04	27507
808.182	27762
808.324	27694
808.465	27724
808.607	27865
808.749	28040
808.891	28230
809.033	28173
809.174	28124
809.316	28120
809.458	28017
809.6	27914
809.741	28200
809.883	28291
810.025	28398
810.166	28348
810.308	28348
810.45	28295
810.591	28276
810.733	28116
810.875	27956
811.016	27960
811.158	27994
811.299	28257
811.441	28287
811.582	28325
811.724	28192
811.865	28040
812.007	27983
812.148	28067
812.29	28112
812.431	28360
812.573	28432
812.714	28615
812.855	28653
812.997	28637
813.138	28782
813.279	28816
813.421	28679
813.562	28580
813.703	28470
813.845	28322
813.986	28051
814.127	27895
814.268	27781
814.41	27823
814.551	27846
814.692	27804
814.833	27808
814.974	27762
815.115	27793
815.256	27667
815.397	27682
815.539	27576
815.68	27549
815.821	27485
815.962	27641
816.103	27572
816.244	27580
816.385	27443
816.526	27317
816.666	27146
816.807	27123
816.948	27138
817.089	27131
817.23	27093
817.371	27074
817.512	27264
817.653	27051
817.793	27112
817.934	26975
818.075	27176
818.216	27100
818.356	27043
818.497	26986
818.638	26910
818.778	26815
818.919	26872
819.06	26807
819.2	26940
819.341	26971
819.481	27112
819.622	27169
819.762	27427
819.903	27321
820.043	27245
820.184	27207
820.324	27188
820.465	27230
820.605	27161
820.746	27165
820.886	26952
821.026	27161
821.167	27150
821.307	27195
821.447	27165
821.588	27184
821.728	26826
821.868	26773
822.008	26590
822.149	26438
822.289	26522
822.429	26370
822.569	26237
822.709	26244
822.849	25974
822.99	26065
823.13	25993
823.27	26058
823.41	25795
823.55	25814
823.69	25822
823.83	25921
823.97	25734
824.11	25753
824.25	25712
824.389	25632
824.529	25643
824.669	25590
824.809	25887
824.949	25845
825.089	25837
825.228	25651
825.368	25563
825.508	25601
825.648	25476
825.787	25742
825.927	25609
826.067	25674
826.206	25521
826.346	25658
826.485	25662
826.625	25548
826.765	25670
826.904	25487
827.044	25244
827.183	25343
827.323	25278
827.462	25263
827.601	25259
827.741	25156
827.88	25388
828.02	25137
828.159	25217
828.298	25240
828.437	25373
828.577	25251
828.716	25289
828.855	25225
828.994	24886
829.134	24787
829.273	25015
829.412	24935
829.551	25000
829.69	25004
829.829	25053
829.968	25046
830.107	24977
830.246	24973
830.385	24871
830.524	24890
830.663	24757
830.802	24555
830.941	24563
831.08	24612
831.219	24646
831.357	24711
831.496	24863
831.635	24677
831.774	24528
831.913	24338
832.051	24426
832.19	24342
832.329	24289
832.467	24167
832.606	24190
832.744	24311
832.883	24251
833.022	24308
833.16	24308
833.299	24273
833.437	24380
833.576	24315
833.714	24357
833.852	24342
833.991	24380
834.129	24403
834.267	24289
834.406	24281
834.544	24445
834.682	24350
834.821	24376
834.959	24570
835.097	24201
835.235	24262
835.373	24338
835.511	24266
835.65	24136
835.788	24091
835.926	24011
836.064	23935
836.202	23996
836.34	24163
836.478	24133
836.615	24174
836.753	24007
836.891	24247
837.029	24174
837.167	24114
837.305	24060
837.443	23939
837.58	23946
837.718	24007
837.856	24015
837.993	23885
838.131	24060
838.269	23897
838.406	23794
838.544	23726
838.681	23657
838.819	23653
838.956	23406
839.094	23436
839.231	23596
839.369	23642
839.506	23832
839.643	23634
839.781	23406
839.918	23299
840.055	23543
840.193	23326
840.33	23387
840.467	23376
840.604	23455
840.742	23642
840.879	23216
841.016	23208
841.153	23197
841.29	23497
841.427	23467
841.564	23315
841.701	23372
841.838	23303
841.975	23322
842.112	23162
842.249	23368
842.385	23132
842.522	23387
842.659	23227
842.796	23113
842.933	23170
843.069	23022
843.206	23166
843.343	23239
843.479	23006
843.616	23094
843.752	22900
843.889	22831
844.025	23075
844.162	22805
844.298	22968
844.435	22873
844.571	22729
844.708	22961
844.844	23056
844.98	22942
845.117	23022
845.253	22801
845.389	22774
845.525	22702
845.661	22763
845.798	22656
845.934	22713
846.07	22672
846.206	22656
846.342	22759
846.478	22679
846.614	22348
846.75	22268
846.886	22417
847.022	22500
847.158	22204
847.294	22325
847.429	22409
847.565	22295
847.701	22489
847.837	22120
847.972	22021
848.108	22135
848.244	22181
848.379	22013
848.515	21915
848.65	21911
848.786	22101
848.921	21956
849.057	22070
849.192	21964
849.328	21987
849.463	21930
849.598	21865
849.734	21895
849.869	21831
850.004	21644
850.14	21728
850.275	21663
850.41	21709
850.545	21671
850.68	21663
850.815	21682
850.95	21743
851.085	21785
851.22	21747
851.355	21618
851.49	21694
851.625	21686
851.76	21557
851.895	21587
852.03	21599
852.165	21671
852.299	21778
852.434	21869
852.569	21713
852.703	21739
852.838	21724
852.973	21747
853.107	21778
853.242	21629
853.376	21576
853.511	21302
853.645	21477
853.78	21770
853.914	21526
854.048	21481
854.183	21450
854.317	21492
854.451	21728
854.585	21492
854.72	21469
854.854	21671
854.988	21428
855.122	21580
855.256	21306
855.39	21534
855.524	21523
855.658	21538
855.792	21614
855.926	21568
856.06	21519
856.194	21568
856.327	21530
856.461	21428
856.595	21389
856.729	21420
856.862	21633
856.996	21564
857.13	21660
857.263	21595
857.397	21538
857.53	21504
857.664	21469
857.797	21500
857.931	21557
858.064	21618
858.197	21614
858.331	21564
858.464	21496
858.597	21287
858.731	21614
858.864	21477
858.997	21473
859.13	21599
859.263	21614
859.396	21625
859.529	21519
859.662	21568
859.795	21500
859.928	21492
860.061	21656
860.194	21766
860.327	21603
860.46	21564
860.592	21629
860.725	21656
860.858	21591
860.99	21549
861.123	21389
861.256	21443
861.388	21545
861.521	22284
861.653	21393
861.786	21382
861.918	21332
862.05	21462
862.183	21382
862.315	21348
862.447	21496
862.58	21386
862.712	21192
862.844	21226
862.976	21195
863.108	21283
863.24	21736
863.372	21161
863.504	21195
863.636	21192
863.768	21294
863.9	21268
864.032	21070
864.164	21310
864.296	21283
864.428	21393
864.559	21336
864.691	21199
864.823	21260
864.954	21249
865.086	21184
865.217	21275
865.349	20914
865.48	21116
865.612	21157
865.743	21275
865.875	21207
866.006	21001
866.137	21036
866.269	21123
866.4	21108
866.531	21043
866.662	21009
866.793	21024
866.924	21085
867.055	21112
867.186	21032
867.317	21013
867.448	20952
867.579	20902
867.71	20948
867.841	20990
867.972	21195
868.103	21024
868.233	21013
868.364	20925
868.495	21169
868.625	21161
868.756	21359
868.886	21173
869.017	21325
869.147	21386
869.278	21443
869.408	21332
869.539	21195
869.669	21507
869.799	21226
869.929	21507
870.06	21393
870.19	21625
870.32	21644
870.45	21629
870.58	21705
870.71	21762
870.84	21751
870.97	21679
871.1	21732
871.23	21827
871.36	21850
871.489	21823
871.619	21903
871.749	21842
871.879	21873
872.008	22010
872.138	21884
872.267	21876
872.397	21751
872.526	21641
872.656	21785
872.785	21819
872.915	21865
873.044	22010
873.173	21903
873.303	21922
873.432	21918
873.561	22029
873.69	21915
873.819	21842
873.948	22036
874.077	21956
874.206	21861
874.335	21835
874.464	21979
874.593	22105
874.722	22147
874.851	22128
874.979	22215
875.108	22158
875.237	22090
875.365	22120
875.494	22070
875.623	22230
875.751	22025
875.88	22242
876.008	22196
876.136	22356
876.265	22535
876.393	22717
876.521	22618
876.65	22577
876.778	22470
876.906	22634
877.034	22493
877.162	22554
877.29	22550
877.418	22428
877.546	22554
877.674	22398
877.802	22398
877.93	22512
878.058	22386
878.185	22424
878.313	22440
878.441	22500
878.568	22314
878.696	22554
878.824	22554
878.951	22653
879.079	22580
879.206	22809
879.333	22656
879.461	22554
879.588	22550
879.715	22713
879.842	22733
879.97	22516
880.097	22379
880.224	22265
880.351	22314
880.478	22413
880.605	22246
880.732	22291
880.859	22485
880.986	22306
881.112	22322
881.239	22120
881.366	22109
881.493	22017
881.619	21911
881.746	21895
881.872	21899
881.999	21926
882.125	21892
882.252	21911
882.378	21854
882.505	22029
882.631	21755
882.757	21701
882.883	21660
883.01	21466
883.136	21454
883.262	21500
883.388	21431
883.514	21572
883.64	21568
883.766	21443
883.892	21389
884.018	21450
884.143	21561
884.269	21629
884.395	21340
884.52	21256
884.646	21245
884.772	21161
884.897	21009
885.023	21207
885.148	21329
885.274	21355
885.399	21344
885.524	21294
885.65	21317
885.775	21176
885.9	21241
886.025	21203
886.15	21264
886.275	21222
886.4	21089
886.525	21355
886.65	21085
886.775	21096
886.9	21329
887.025	21439
887.149	21214
887.274	21043
887.399	20952
887.523	21081
887.648	20811
887.773	20891
887.897	21074
888.021	21036
888.146	20956
888.27	21020
888.395	21043
888.519	21066
888.643	21108
888.767	21062
888.891	20948
889.015	20762
889.139	20891
889.263	20701
889.387	20914
889.511	20979
889.635	20975
889.759	20667
889.883	20762
890.006	20743
890.13	20891
890.254	20613
890.377	20636
890.501	20556
890.624	20533
890.748	20560
890.871	20400
890.995	20275
891.118	20374
891.241	20423
891.364	20400
891.488	20442
891.611	20358
891.734	20415
891.857	20385
891.98	20343
892.103	20450
892.226	20385
892.349	20347
892.471	20259
892.594	20252
892.717	20313
892.839	20290
892.962	20275
893.085	20393
893.207	20282
893.33	20176
893.452	20164
893.575	20347
893.697	20229
893.819	20267
893.941	20404
894.064	20446
894.186	20191
894.308	20225
894.43	20320
894.552	20419
894.674	20404
894.796	20221
894.918	20229
895.04	20229
895.161	20374
895.283	20267
895.405	20248
895.526	20256
895.648	20195
895.769	20324
895.891	20259
896.012	20499
896.134	20271
896.255	20320
896.376	20046
896.498	20290
896.619	20298
896.74	20267
896.861	20282
896.982	20552
897.103	20769
897.224	20533
897.345	20495
897.466	20400
897.587	20404
897.708	20583
897.828	20533
897.949	20423
898.07	20309
898.19	20374
898.311	20457
898.431	20434
898.552	20450
898.672	20541
898.792	20613
898.913	20590
899.033	20530
899.153	20164
899.273	20149
899.393	20100
899.513	20195
899.633	20210
899.753	20103
899.873	20119
899.993	20343
900.113	20176
900.232	20218
900.352	20221
900.472	20096
900.591	19955
900.711	20016
900.83	19841
900.95	20043
901.069	20164
901.189	19803
901.308	19635
901.427	19472
901.546	19445
901.665	19693
901.784	19609
901.904	19468
902.023	19316
902.141	19141
902.26	19107
902.379	19168
902.498	19209
902.617	19084
902.735	19217
902.854	19000
902.973	18958
903.091	18741
903.21	18848
903.328	18688
903.446	18703
903.565	18604
903.683	18490
903.801	18403
903.919	18506
904.038	18448
904.156	18388
904.274	18433
904.392	18239
904.51	18304
904.627	18327
904.745	18460
904.863	18410
904.981	18079
905.098	18015
905.216	17942
905.334	18091
905.451	18026
905.569	18026
905.686	17969
905.803	17882
905.921	17798
906.038	17878
906.155	17908
906.272	17733
906.389	17695
906.506	17490
906.623	17551
906.74	17482
906.857	17376
906.974	17478
907.091	17604
907.208	17710
907.324	17505
907.441	17372
907.557	17379
907.674	17223
907.79	17292
907.907	17269
908.023	17220
908.139	17269
908.256	17128
908.372	17113
908.488	17094
908.604	16961
908.72	17014
908.836	17041
908.952	16968
909.068	16938
909.184	17064
909.3	16946
909.415	16927
909.531	16991
909.647	16755
909.762	16561
909.878	16653
909.993	16668
910.108	16622
910.224	16641
910.339	16679
910.454	16500
910.57	16455
910.685	16443
910.8	16736
910.915	16622
911.03	16523
911.145	16367
911.259	16295
911.374	16207
911.489	16291
911.604	16139
911.718	16010
911.833	16051
911.947	15911
912.062	15888
912.176	16040
912.291	16048
912.405	15956
912.519	16272
912.633	16181
912.748	16044
912.862	16029
912.976	15934
913.09	15663
913.204	15797
913.318	15812
913.431	15804
913.545	15895
913.659	15998
913.772	15675
913.886	15739
914	15629
914.113	15656
914.226	15603
914.34	15671
914.453	15481
914.566	15618
914.68	15450
914.793	15515
914.906	15351
915.019	15195
915.132	15150
915.245	15195
915.358	15245
915.47	15199
915.583	15256
915.696	15268
915.809	15291
915.921	15344
916.034	15165
916.146	15135
916.259	15180
916.371	15176
916.483	15150
916.595	15089
916.708	15043
916.82	14998
916.932	14975
917.044	14891
917.156	14982
917.268	14876
917.38	14845
917.491	14788
917.603	14876
917.715	14960
917.826	15051
917.938	14819
918.049	14735
918.161	14899
918.272	14979
918.384	14994
918.495	14693
918.606	14587
918.717	14533
918.828	14716
918.939	14598
919.05	14583
919.161	14571
919.272	14454
919.383	14473
919.494	14708
919.604	14838
919.715	14541
919.826	14610
919.936	14617
920.047	14613
920.157	14640
920.267	14796
920.378	14640
920.488	14579
920.598	14788
920.708	14956
920.818	14705
920.928	14705
921.038	14872
921.148	14701
921.258	14613
921.368	14480
921.477	14377
921.587	14263
921.697	14263
921.806	14275
921.916	14206
922.025	14077
922.134	13997
922.244	13951
922.353	14012
922.462	13879
922.571	13750
922.68	13658
922.789	13537
922.898	13605
923.007	13514
923.116	13693
923.224	13525
923.333	13605
923.442	13460
923.55	13468
923.659	13616
923.767	13502
923.876	13422
923.984	13495
924.092	13324
924.201	13384
924.309	13384
924.417	13297
924.525	13213
924.633	13217
924.741	14210
924.849	13107
924.956	13301
925.064	13008
925.172	13038
925.279	12973
925.387	13095
925.494	13000
925.602	13076
925.709	13038
925.816	12863
925.924	13000
926.031	13103
926.138	12970
926.245	13088
926.352	12916
926.459	13012
926.566	13114
926.673	12901
926.779	12726
926.886	12692
926.993	12612
927.099	12593
927.206	12513
927.312	12547
927.419	12654
927.525	12456
927.631	12612
927.737	12475
927.843	12509
927.95	12361
928.056	12327
928.162	12376
928.267	12467
928.373	13038
928.479	12486
928.585	12292
928.69	12361
928.796	12410
928.901	12300
929.007	12205
929.112	12311
929.218	12190
929.323	12144
929.428	12228
929.533	12235
929.638	12095
929.743	12129
929.848	12190
929.953	11996
930.058	11954
930.163	11813
930.267	11851
930.372	11889
930.477	11931
930.581	12049
930.685	11859
930.79	11760
930.894	11737
930.998	11589
931.103	11859
931.207	11402
931.311	11440
931.415	11334
931.519	11159
931.623	11067
