Data from test_V78500241_1070.txt Node
Date: Fri Mar 25 15:49:12 CST 2022
User: usil
Spectrometer: V785-0024
Trigger mode: 0
Integration Time (sec): 4.000000E-1
Scans to average: 1
Nonlinearity correction enabled: false
Boxcar width: 0
Storing dark spectrum: false
XAxis mode: Wavelengths
Number of Pixels in Spectrum: 1024
>>>>>Begin Spectral Data<<<<<
801.071	28797
801.214	28565
801.356	28394
801.499	28261
801.641	28200
801.783	28230
801.926	28230
802.068	28143
802.211	28348
802.353	28044
802.496	28063
802.638	28006
802.78	27903
802.923	27770
803.065	27941
803.208	27907
803.35	27922
803.492	27884
803.635	28036
803.777	27956
803.919	28150
804.061	28432
804.204	28196
804.346	28017
804.488	27922
804.63	28040
804.773	27926
804.915	28158
805.057	28295
805.199	28185
805.341	28234
805.483	28246
805.626	28253
805.768	28211
805.91	28280
806.052	28337
806.194	28337
806.336	28519
806.478	28287
806.62	28322
806.762	28436
806.904	28641
807.046	28938
807.188	28702
807.33	28653
807.472	28820
807.614	28736
807.756	28664
807.898	28573
808.04	28531
808.182	28698
808.324	28554
808.465	28706
808.607	28866
808.749	28930
808.891	29136
809.033	29170
809.174	29071
809.316	28900
809.458	29025
809.6	28942
809.741	29193
809.883	29239
810.025	29414
810.166	29277
810.308	29322
810.45	29402
810.591	29223
810.733	29041
810.875	28984
811.016	28843
811.158	28957
811.299	29170
811.441	29288
811.582	29235
811.724	29025
811.865	29147
812.007	28908
812.148	29086
812.29	29174
812.431	29151
812.573	29349
812.714	29535
812.855	29707
812.997	29802
813.138	29843
813.279	29634
813.421	29627
813.562	29471
813.703	29417
813.845	29406
813.986	28919
814.127	28873
814.268	28748
814.41	28790
814.551	28691
814.692	28793
814.833	28607
814.974	28733
815.115	28733
815.256	28675
815.397	28599
815.539	28656
815.68	28607
815.821	28413
815.962	28546
816.103	28516
816.244	28557
816.385	28356
816.526	28268
816.666	28139
816.807	28021
816.948	28116
817.089	27972
817.23	28044
817.371	27869
817.512	28067
817.653	28063
817.793	28051
817.934	28105
818.075	28013
818.216	28143
818.356	27949
818.497	27899
818.638	27682
818.778	27812
818.919	27667
819.06	27854
819.2	27937
819.341	28010
819.481	28036
819.622	28101
819.762	28382
819.903	28375
820.043	28253
820.184	28268
820.324	28051
820.465	28120
820.605	28188
820.746	28188
820.886	28017
821.026	28268
821.167	28185
821.307	28215
821.447	28131
821.588	28055
821.728	27937
821.868	27675
822.008	27576
822.149	27614
822.289	27488
822.429	27317
822.569	27325
822.709	27112
822.849	27104
822.99	27032
823.13	26979
823.27	26963
823.41	27028
823.55	26720
823.69	27028
823.83	26868
823.97	26861
824.11	26750
824.25	26731
824.389	26762
824.529	26838
824.669	26689
824.809	26826
824.949	26792
825.089	26845
825.228	26880
825.368	26617
825.508	26579
825.648	26541
825.787	26640
825.927	26796
826.067	26560
826.206	26594
826.346	26678
826.485	26507
826.625	26659
826.765	26571
826.904	26602
827.044	26328
827.183	26358
827.323	26237
827.462	26313
827.601	26400
827.741	26122
827.88	26278
828.02	26088
828.159	26328
828.298	26366
828.437	26328
828.577	26248
828.716	26286
828.855	26229
828.994	25963
829.134	25951
829.273	25932
829.412	25978
829.551	25925
829.69	25936
829.829	26008
829.968	26180
830.107	26092
830.246	25883
830.385	25936
830.524	25902
830.663	25655
830.802	25620
830.941	25658
831.08	25586
831.219	25734
831.357	25658
831.496	25723
831.635	25552
831.774	25712
831.913	25499
832.051	25377
832.19	25312
832.329	25362
832.467	25282
832.606	25133
832.744	25175
832.883	25278
833.022	25198
833.16	25251
833.299	25346
833.437	25327
833.576	25240
833.714	25350
833.852	25308
833.991	25407
834.129	25422
834.267	25362
834.406	25388
834.544	25320
834.682	25369
834.821	25354
834.959	25544
835.097	25270
835.235	25411
835.373	25270
835.511	25236
835.65	25114
835.788	25236
835.926	25000
836.064	24928
836.202	24962
836.34	25304
836.478	25187
836.615	25179
836.753	25114
836.891	25274
837.029	25183
837.167	25091
837.305	25080
837.443	25012
837.58	25118
837.718	25076
837.856	25027
837.993	24951
838.131	24958
838.269	24932
838.406	24954
838.544	24882
838.681	24658
838.819	24650
838.956	24391
839.094	24551
839.231	24528
839.369	24498
839.506	24875
839.643	24620
839.781	24544
839.918	24372
840.055	24426
840.193	24388
840.33	24330
840.467	24384
840.604	24414
840.742	24555
840.879	24273
841.016	24315
841.153	24422
841.29	24479
841.427	24391
841.564	24353
841.701	24319
841.838	24292
841.975	24178
842.112	24243
842.249	24155
842.385	24034
842.522	24471
842.659	24254
842.796	24117
842.933	24015
843.069	23908
843.206	24167
843.343	24125
843.479	24079
843.616	24098
843.752	23920
843.889	23893
844.025	24117
844.162	23832
844.298	24003
844.435	23764
844.571	23805
844.708	24011
844.844	23977
844.98	24041
845.117	24098
845.253	23946
845.389	23767
845.525	23836
845.661	23729
845.798	23592
845.934	23691
846.07	23444
846.206	23657
846.342	23733
846.478	23554
846.614	23364
846.75	23269
846.886	23288
847.022	23318
847.158	23345
847.294	23356
847.429	23398
847.565	23292
847.701	23505
847.837	23067
847.972	23029
848.108	22968
848.244	23140
848.379	22877
848.515	22816
848.65	23014
848.786	23064
848.921	23003
849.057	22987
849.192	23086
849.328	22862
849.463	22889
849.598	22866
849.734	22820
849.869	22801
850.004	22641
850.14	22698
850.275	22687
850.41	22679
850.545	22691
850.68	22641
850.815	22710
850.95	22596
851.085	22850
851.22	22858
851.355	22611
851.49	22740
851.625	22615
851.76	22702
851.895	22615
852.03	22729
852.165	22698
852.299	22721
852.434	22858
852.569	22664
852.703	22596
852.838	22866
852.973	22873
853.107	22831
853.242	22599
853.376	22459
853.511	22382
853.645	22386
853.78	22675
853.914	22538
854.048	22504
854.183	22489
854.317	22455
854.451	22710
854.585	22470
854.72	22405
854.854	22512
854.988	22451
855.122	22489
855.256	22428
855.39	22459
855.524	22565
855.658	22508
855.792	22470
855.926	22535
856.06	22504
856.194	22656
856.327	22451
856.461	22371
856.595	22398
856.729	22436
856.862	22546
856.996	22531
857.13	22599
857.263	22626
857.397	22607
857.53	22432
857.664	22500
857.797	22649
857.931	22607
858.064	22447
858.197	22618
858.331	22436
858.464	22329
858.597	22344
858.731	22538
858.864	22379
858.997	22318
859.13	22409
859.263	22382
859.396	22592
859.529	22417
859.662	22436
859.795	22504
859.928	22508
860.061	22577
860.194	22725
860.327	22656
860.46	22546
860.592	22603
860.725	22637
860.858	22626
860.99	22443
861.123	22440
861.256	22557
861.388	22519
861.521	23105
861.653	22329
861.786	22253
861.918	22363
862.05	22268
862.183	22432
862.315	22535
862.447	22504
862.58	22360
862.712	22215
862.844	22242
862.976	22200
863.108	22131
863.24	22653
863.372	22325
863.504	22223
863.636	22196
863.768	22211
863.9	22204
864.032	22109
864.164	22147
864.296	22128
864.428	22405
864.559	22147
864.691	22139
864.823	22139
864.954	22169
865.086	22162
865.217	22158
865.349	22059
865.48	21968
865.612	22010
865.743	22211
865.875	22162
866.006	22070
866.137	22112
866.269	22078
866.4	21983
866.531	21956
866.662	22044
866.793	22006
866.924	21994
867.055	22090
867.186	21998
867.317	22036
867.448	22017
867.579	22010
867.71	21907
867.841	21846
867.972	22059
868.103	22074
868.233	22044
868.364	21949
868.495	22032
868.625	22234
868.756	22287
868.886	22154
869.017	22150
869.147	22329
869.278	22280
869.408	22238
869.539	22242
869.669	22344
869.799	22318
869.929	22287
870.06	22329
870.19	22580
870.32	22440
870.45	22626
870.58	22656
870.71	22824
870.84	22694
870.97	22702
871.1	22550
871.23	22820
871.36	22953
871.489	22630
871.619	22725
871.749	22790
871.879	22919
872.008	22919
872.138	22793
872.267	22831
872.397	22797
872.526	22584
872.656	22721
872.785	22755
872.915	22839
873.044	22968
873.173	22911
873.303	22946
873.432	22984
873.561	23003
873.69	22824
873.819	22858
873.948	22831
874.077	22759
874.206	22831
874.335	22892
874.464	22904
874.593	23143
874.722	23022
874.851	23064
874.979	23025
875.108	23075
875.237	23006
875.365	22953
875.494	22938
875.623	23143
875.751	23014
875.88	23018
876.008	23136
876.136	23360
876.265	23474
876.393	23615
876.521	23528
876.65	23585
876.778	23364
876.906	23383
877.034	23322
877.162	23436
877.29	23280
877.418	23459
877.546	23493
877.674	23493
877.802	23474
877.93	23425
878.058	23345
878.185	23296
878.313	23303
878.441	23360
878.568	23227
878.696	23391
878.824	23512
878.951	23455
879.079	23630
879.206	23714
879.333	23520
879.461	23368
879.588	23493
879.715	23592
879.842	23570
879.97	23421
880.097	23242
880.224	23143
880.351	23261
880.478	23235
880.605	23048
880.732	23250
880.859	23467
880.986	23242
881.112	23231
881.239	23090
881.366	22850
881.493	22911
881.619	22786
881.746	22854
881.872	22691
881.999	22782
882.125	22706
882.252	22797
882.378	22664
882.505	22866
882.631	22565
882.757	22504
882.883	22497
883.01	22497
883.136	22421
883.262	22371
883.388	22291
883.514	22466
883.64	22493
883.766	22417
883.892	22310
884.018	22211
884.143	22390
884.269	22382
884.395	22230
884.52	22067
884.646	22032
884.772	22010
884.897	22010
885.023	22017
885.148	22128
885.274	22238
885.399	22211
885.524	22090
885.65	22120
885.775	22093
885.9	22006
886.025	22268
886.15	22078
886.275	21991
886.4	22067
886.525	22002
886.65	22025
886.775	22017
886.9	22124
887.025	22299
887.149	22086
887.274	21876
887.399	21861
887.523	21873
887.648	21797
887.773	21778
887.897	21911
888.021	21785
888.146	21846
888.27	21865
888.395	21994
888.519	21865
888.643	21964
888.767	21835
888.891	21861
889.015	21736
889.139	21713
889.263	21675
889.387	21762
889.511	21850
889.635	21728
889.759	21614
889.883	21557
890.006	21667
890.13	21766
890.254	21405
890.377	21549
890.501	21389
890.624	21431
890.748	21450
890.871	21336
890.995	21161
891.118	21161
891.241	21165
891.364	21154
891.488	21321
891.611	21154
891.734	21230
891.857	21275
891.98	21241
892.103	21268
892.226	21070
892.349	21260
892.471	20921
892.594	21017
892.717	21157
892.839	21074
892.962	21013
893.085	21093
893.207	21081
893.33	20971
893.452	20990
893.575	21192
893.697	21096
893.819	21180
893.941	21138
894.064	21298
894.186	20982
894.308	20975
894.43	21081
894.552	21142
894.674	21039
894.796	20986
894.918	21047
895.04	21013
895.161	21093
895.283	21116
895.405	21005
895.526	21066
895.648	20975
895.769	21089
895.891	21013
896.012	21157
896.134	21127
896.255	21142
896.376	21043
896.498	21020
896.619	21203
896.74	20975
896.861	21176
896.982	21264
897.103	21538
897.224	21272
897.345	21302
897.466	21310
897.587	21306
897.708	21393
897.828	21302
897.949	21195
898.07	21108
898.19	21245
898.311	21241
898.431	21237
898.552	21116
898.672	21211
898.792	21348
898.913	21260
899.033	21070
899.153	21047
899.273	20910
899.393	21028
899.513	21096
899.633	20994
899.753	21039
899.873	20956
899.993	20975
900.113	20899
900.232	20971
900.352	20967
900.472	20800
900.591	20693
900.711	20769
900.83	20735
900.95	20963
901.069	20792
901.189	20701
901.308	20423
901.427	20210
901.546	20221
901.665	20301
901.784	20313
901.904	20115
902.023	20100
902.141	19864
902.26	19925
902.379	19932
902.498	19811
902.617	19807
902.735	19738
902.854	19746
902.973	19708
903.091	19472
903.21	19537
903.328	19506
903.446	19358
903.565	19278
903.683	19396
903.801	19175
903.919	19168
904.038	19190
904.156	19050
904.274	19103
904.392	19015
904.51	18909
904.627	18954
904.745	19099
904.863	19004
904.981	18886
905.098	18688
905.216	18692
905.334	18806
905.451	18753
905.569	18608
905.686	18700
905.803	18677
905.921	18448
906.038	18597
906.155	18589
906.272	18372
906.389	18448
906.506	18216
906.623	18186
906.74	18194
906.857	18121
906.974	18125
907.091	18235
907.208	18357
907.324	18251
907.441	18125
907.557	17961
907.674	18057
907.79	17946
907.907	17946
908.023	17889
908.139	17885
908.256	17885
908.372	17870
908.488	17855
908.604	17703
908.72	17535
908.836	17623
908.952	17543
909.068	17729
909.184	17630
909.3	17634
909.415	17726
909.531	17646
909.647	17349
909.762	17334
909.878	17318
909.993	17345
910.108	17345
910.224	17307
910.339	17220
910.454	17117
910.57	17189
910.685	17147
910.8	17322
910.915	17311
911.03	17166
911.145	17041
911.259	16930
911.374	17029
911.489	16858
911.604	16831
911.718	16554
911.833	16694
911.947	16538
912.062	16558
912.176	16622
912.291	16672
912.405	16767
912.519	16904
912.633	16801
912.748	16702
912.862	16599
912.976	16478
913.09	16379
913.204	16489
913.318	16527
913.431	16546
913.545	16436
913.659	16516
913.772	16421
913.886	16333
914	16272
914.113	16352
914.226	16257
914.34	16219
914.453	16188
914.566	16276
914.68	16223
914.793	16147
914.906	15930
915.019	15880
915.132	15804
915.245	15911
915.358	15953
915.47	15812
915.583	15873
915.696	15857
915.809	16032
915.921	15983
916.034	15827
916.146	15667
916.259	15850
916.371	15785
916.483	15789
916.595	15686
916.708	15717
916.82	15713
916.932	15534
917.044	15679
917.156	15648
917.268	15587
917.38	15538
917.491	15401
917.603	15485
917.715	15538
917.826	15496
917.938	15420
918.049	15291
918.161	15492
918.272	15584
918.384	15519
918.495	15393
918.606	15310
918.717	15180
918.828	15268
918.939	15233
919.05	15154
919.161	15176
919.272	14998
919.383	15085
919.494	15279
919.604	15336
919.715	15268
919.826	15146
919.936	15070
920.047	15249
920.157	15085
920.267	15386
920.378	15192
920.488	15119
920.598	15325
920.708	15462
920.818	15256
920.928	15283
921.038	15454
921.148	15363
921.258	15150
921.368	15020
921.477	14925
921.587	14868
921.697	14735
921.806	14933
921.916	14697
922.025	14610
922.134	14552
922.244	14545
922.353	14533
922.462	14438
922.571	14351
922.68	14225
922.789	14206
922.898	14164
923.007	14161
923.116	14248
923.224	14126
923.333	14130
923.442	14035
923.55	13887
923.659	14043
923.767	14024
923.876	13978
923.984	13982
924.092	13883
924.201	13883
924.309	13986
924.417	13871
924.525	13765
924.633	13837
924.741	14670
924.849	13476
924.956	13685
925.064	13590
925.172	13453
925.279	13502
925.387	13655
925.494	13521
925.602	13704
925.709	13559
925.816	13430
925.924	13506
926.031	13483
926.138	13434
926.245	13571
926.352	13381
926.459	13533
926.566	13552
926.673	13335
926.779	13251
926.886	13339
926.993	13209
927.099	13107
927.206	13050
927.312	13031
927.419	13110
927.525	13091
927.631	13031
927.737	12939
927.843	12905
927.95	12791
928.056	12867
928.162	12951
928.267	12943
928.373	13438
928.479	13015
928.585	12730
928.69	12821
928.796	12932
928.901	12738
929.007	12578
929.112	12749
929.218	12768
929.323	12703
929.428	12509
929.533	12722
929.638	12582
929.743	12555
929.848	12623
929.953	12555
930.058	12464
930.163	12296
930.267	12243
930.372	12437
930.477	12209
930.581	12441
930.685	12350
930.79	12205
930.894	12163
930.998	12152
931.103	12194
931.207	11916
931.311	11824
931.415	11760
931.519	11524
931.623	11497
