Data from test_V78500241_2087.txt Node
Date: Fri Mar 25 15:56:15 CST 2022
User: usil
Spectrometer: V785-0024
Trigger mode: 0
Integration Time (sec): 4.000000E-1
Scans to average: 1
Nonlinearity correction enabled: false
Boxcar width: 0
Storing dark spectrum: false
XAxis mode: Wavelengths
Number of Pixels in Spectrum: 1024
>>>>>Begin Spectral Data<<<<<
801.071	29060
801.214	29117
801.356	28805
801.499	28816
801.641	28748
801.783	28622
801.926	28812
802.068	28733
802.211	28687
802.353	28691
802.496	28451
802.638	28386
802.78	28451
802.923	28428
803.065	28325
803.208	28424
803.35	28504
803.492	28569
803.635	28672
803.777	28497
803.919	28683
804.061	28839
804.204	28900
804.346	28786
804.488	28493
804.63	28713
804.773	28752
804.915	28611
805.057	28877
805.199	28736
805.341	28847
805.483	28923
805.626	28896
805.768	28782
805.91	28752
806.052	28968
806.194	28828
806.336	29185
806.478	28843
806.62	28934
806.762	29033
806.904	29220
807.046	29471
807.188	29360
807.33	29296
807.472	29387
807.614	29395
807.756	29288
807.898	29181
808.04	29296
808.182	29254
808.324	29303
808.465	29284
808.607	29455
808.749	29600
808.891	29687
809.033	29657
809.174	29737
809.316	29646
809.458	29566
809.6	29608
809.741	29703
809.883	29687
810.025	29999
810.166	29950
810.308	29923
810.45	29836
810.591	29836
810.733	29570
810.875	29604
811.016	29520
811.158	29497
811.299	29859
811.441	29767
811.582	29946
811.724	29703
811.865	29646
812.007	29710
812.148	29680
812.29	29756
812.431	29828
812.573	29977
812.714	30064
812.855	30087
812.997	30369
813.138	30426
813.279	30369
813.421	30083
813.562	29958
813.703	29862
813.845	29851
813.986	29516
814.127	29406
814.268	29421
814.41	29402
814.551	29364
814.692	29379
814.833	29383
814.974	29345
815.115	29436
815.256	29166
815.397	29307
815.539	29345
815.68	29121
815.821	29155
815.962	29250
816.103	29193
816.244	29140
816.385	28927
816.526	28919
816.666	28748
816.807	28596
816.948	28862
817.089	28824
817.23	28725
817.371	28668
817.512	28649
817.653	28630
817.793	28527
817.934	28584
818.075	28706
818.216	28679
818.356	28603
818.497	28672
818.638	28466
818.778	28466
818.919	28306
819.06	28664
819.2	28519
819.341	28729
819.481	28767
819.622	28790
819.762	28888
819.903	28927
820.043	28934
820.184	28908
820.324	28740
820.465	28995
820.605	28896
820.746	28755
820.886	28668
821.026	28725
821.167	28748
821.307	28824
821.447	28675
821.588	28584
821.728	28379
821.868	28341
822.008	28150
822.149	28219
822.289	28322
822.429	27823
822.569	27865
822.709	27876
822.849	27720
822.99	27652
823.13	27644
823.27	27663
823.41	27496
823.55	27393
823.69	27496
823.83	27595
823.97	27538
824.11	27336
824.25	27256
824.389	27226
824.529	27382
824.669	27393
824.809	27561
824.949	27386
825.089	27492
825.228	27401
825.368	27051
825.508	27180
825.648	27188
825.787	27355
825.927	27184
826.067	27176
826.206	27138
826.346	27199
826.485	27207
826.625	27135
826.765	27294
826.904	27192
827.044	27127
827.183	26990
827.323	26872
827.462	26971
827.601	27058
827.741	26971
827.88	27081
828.02	26804
828.159	26925
828.298	26864
828.437	26944
828.577	26967
828.716	27074
828.855	26891
828.994	26537
829.134	26590
829.273	26667
829.412	26609
829.551	26579
829.69	26648
829.829	26651
829.968	26720
830.107	26754
830.246	26655
830.385	26579
830.524	26609
830.663	26453
830.802	26374
830.941	26332
831.08	26187
831.219	26324
831.357	26381
831.496	26457
831.635	26187
831.774	26081
831.913	26054
832.051	26024
832.19	25932
832.329	26065
832.467	25955
832.606	25879
832.744	25833
832.883	25784
833.022	25860
833.16	25871
833.299	26039
833.437	25917
833.576	26039
833.714	26039
833.852	26096
833.991	25959
834.129	25959
834.267	26149
834.406	25932
834.544	25963
834.682	26020
834.821	25883
834.959	26073
835.097	25894
835.235	25932
835.373	25947
835.511	25925
835.65	25860
835.788	25757
835.926	25719
836.064	25620
836.202	25605
836.34	25788
836.478	25959
836.615	25628
836.753	25727
836.891	25753
837.029	25883
837.167	25605
837.305	25643
837.443	25578
837.58	25647
837.718	25567
837.856	25575
837.993	25563
838.131	25514
838.269	25441
838.406	25464
838.544	25312
838.681	25148
838.819	25118
838.956	25148
839.094	24977
839.231	25099
839.369	25263
839.506	25388
839.643	25384
839.781	25019
839.918	24943
840.055	25050
840.193	24996
840.33	24992
840.467	24962
840.604	25012
840.742	25312
840.879	24757
841.016	24821
841.153	24734
841.29	25015
841.427	24852
841.564	24856
841.701	24897
841.838	25015
841.975	24764
842.112	24848
842.249	24707
842.385	24859
842.522	25015
842.659	24707
842.796	24745
842.933	24650
843.069	24791
843.206	24734
843.343	24760
843.479	24745
843.616	24696
843.752	24582
843.889	24467
844.025	24627
844.162	24502
844.298	24395
844.435	24452
844.571	24555
844.708	24452
844.844	24696
844.98	24658
845.117	24528
845.253	24471
845.389	24292
845.525	24308
845.661	24262
845.798	24064
845.934	24262
846.07	24144
846.206	24270
846.342	24273
846.478	24136
846.614	24030
846.75	23798
846.886	23927
847.022	23999
847.158	24011
847.294	23851
847.429	24091
847.565	23923
847.701	24136
847.837	23672
847.972	23653
848.108	23729
848.244	23661
848.379	23570
848.515	23486
848.65	23471
848.786	23429
848.921	23459
849.057	23562
849.192	23543
849.328	23653
849.463	23501
849.598	23452
849.734	23406
849.869	23265
850.004	23265
850.14	23269
850.275	23307
850.41	23212
850.545	23136
850.68	23273
850.815	23334
850.95	23277
851.085	23421
851.22	23436
851.355	23269
851.49	23197
851.625	23235
851.76	23250
851.895	23178
852.03	23128
852.165	23322
852.299	23353
852.434	23284
852.569	23326
852.703	23246
852.838	23288
852.973	23455
853.107	23505
853.242	23151
853.376	23083
853.511	22976
853.645	23003
853.78	23113
853.914	23060
854.048	23174
854.183	23014
854.317	23117
854.451	23307
854.585	23044
854.72	23071
854.854	23083
854.988	23041
855.122	23098
855.256	22968
855.39	23060
855.524	23132
855.658	23197
855.792	23143
855.926	23079
856.06	23178
856.194	23246
856.327	22965
856.461	23006
856.595	22938
856.729	23064
856.862	23159
856.996	23113
857.13	23090
857.263	23292
857.397	23079
857.53	23086
857.664	23166
857.797	23162
857.931	23181
858.064	23261
858.197	23220
858.331	23033
858.464	23003
858.597	22999
858.731	23006
858.864	22999
858.997	23056
859.13	23064
859.263	23102
859.396	23117
859.529	22911
859.662	23014
859.795	23003
859.928	23025
860.061	23220
860.194	23288
860.327	23216
860.46	23067
860.592	23185
860.725	23277
860.858	23261
860.99	23006
861.123	22999
861.256	22862
861.388	23109
861.521	23821
861.653	22927
861.786	22835
861.918	22995
862.05	22858
862.183	23033
862.315	22957
862.447	23003
862.58	23052
862.712	22801
862.844	22831
862.976	22805
863.108	22854
863.24	23269
863.372	22847
863.504	22782
863.636	22653
863.768	22881
863.9	22820
864.032	22740
864.164	22672
864.296	22892
864.428	22733
864.559	22968
864.691	22828
864.823	22816
864.954	22733
865.086	22839
865.217	22618
865.349	22557
865.48	22531
865.612	22603
865.743	22900
865.875	22679
866.006	22519
866.137	22596
866.269	22645
866.4	22664
866.531	22679
866.662	22637
866.793	22538
866.924	22535
867.055	22672
867.186	22527
867.317	22497
867.448	22485
867.579	22523
867.71	22561
867.841	22504
867.972	22634
868.103	22523
868.233	22580
868.364	22550
868.495	22675
868.625	22736
868.756	22904
868.886	22759
869.017	22824
869.147	22858
869.278	22961
869.408	22854
869.539	22797
869.669	22923
869.799	22866
869.929	23018
870.06	22934
870.19	23117
870.32	23079
870.45	23067
870.58	23223
870.71	23200
870.84	23223
870.97	23109
871.1	23216
871.23	23368
871.36	23398
871.489	23322
871.619	23379
871.749	23501
871.879	23452
872.008	23436
872.138	23341
872.267	23490
872.397	23307
872.526	23261
872.656	23216
872.785	23269
872.915	23444
873.044	23516
873.173	23368
873.303	23379
873.432	23512
873.561	23573
873.69	23459
873.819	23402
873.948	23524
874.077	23524
874.206	23334
874.335	23368
874.464	23543
874.593	23634
874.722	23642
874.851	23539
874.979	23657
875.108	23733
875.237	23600
875.365	23474
875.494	23604
875.623	23714
875.751	23653
875.88	23707
876.008	23764
876.136	23836
876.265	23999
876.393	24159
876.521	24106
876.65	24026
876.778	23942
876.906	23870
877.034	23901
877.162	23942
877.29	23912
877.418	23965
877.546	23904
877.674	23950
877.802	23889
877.93	23977
878.058	23870
878.185	23904
878.313	23809
878.441	23912
878.568	23809
878.696	23920
878.824	23969
878.951	24034
879.079	24011
879.206	24243
879.333	24190
879.461	23965
879.588	24102
879.715	24076
879.842	24178
879.97	23927
880.097	23802
880.224	23665
880.351	23836
880.478	23798
880.605	23729
880.732	23741
880.859	24038
880.986	23882
881.112	23737
881.239	23661
881.366	23471
881.493	23497
881.619	23356
881.746	23360
881.872	23265
881.999	23368
882.125	23258
882.252	23379
882.378	23277
882.505	23436
882.631	23246
882.757	23090
882.883	23098
883.01	22984
883.136	22824
883.262	22710
883.388	22752
883.514	22923
883.64	23048
883.766	22972
883.892	22828
884.018	22778
884.143	22991
884.269	23056
884.395	22634
884.52	22713
884.646	22691
884.772	22459
884.897	22398
885.023	22672
885.148	22786
885.274	22664
885.399	22634
885.524	22615
885.65	22607
885.775	22561
885.9	22660
886.025	22668
886.15	22729
886.275	22767
886.4	22470
886.525	22535
886.65	22615
886.775	22451
886.9	22809
887.025	22839
887.149	22641
887.274	22276
887.399	22485
887.523	22325
887.648	22402
887.773	22272
887.897	22421
888.021	22440
888.146	22310
888.27	22424
888.395	22519
888.519	22287
888.643	22219
888.767	22440
888.891	22318
889.015	22147
889.139	22211
889.263	22131
889.387	22306
889.511	22493
889.635	22230
889.759	22078
889.883	22112
890.006	22188
890.13	22204
890.254	22044
890.377	22128
890.501	21972
890.624	21739
890.748	21975
890.871	21808
890.995	21743
891.118	21603
891.241	21701
891.364	21778
891.488	21915
891.611	21755
891.734	21739
891.857	21789
891.98	21667
892.103	21656
892.226	21675
892.349	21599
892.471	21538
892.594	21736
892.717	21709
892.839	21511
892.962	21519
893.085	21625
893.207	21622
893.33	21549
893.452	21542
893.575	21595
893.697	21549
893.819	21671
893.941	21781
894.064	21690
894.186	21477
894.308	21515
894.43	21587
894.552	21641
894.674	21606
894.796	21561
894.918	21435
895.04	21519
895.161	21660
895.283	21591
895.405	21408
895.526	21580
895.648	21416
895.769	21580
895.891	21557
896.012	21576
896.134	21549
896.255	21553
896.376	21511
896.498	21663
896.619	21743
896.74	21363
896.861	21633
896.982	21899
897.103	21964
897.224	21732
897.345	21770
897.466	21739
897.587	21705
897.708	21892
897.828	21701
897.949	21690
898.07	21557
898.19	21751
898.311	21781
898.431	21781
898.552	21793
898.672	21736
898.792	21739
898.913	21686
899.033	21603
899.153	21618
899.273	21329
899.393	21454
899.513	21504
899.633	21306
899.753	21564
899.873	21252
899.993	21405
900.113	21306
900.232	21412
900.352	21344
900.472	21199
900.591	21195
900.711	21116
900.83	21222
900.95	21367
901.069	21313
901.189	21123
901.308	20838
901.427	20769
901.546	20823
901.665	20754
901.784	20807
901.904	20731
902.023	20541
902.141	20396
902.26	20290
902.379	20301
902.498	20263
902.617	20248
902.735	20286
902.854	20332
902.973	20119
903.091	19951
903.21	19841
903.328	19906
903.446	19818
903.565	19685
903.683	19689
903.801	19567
903.919	19723
904.038	19681
904.156	19510
904.274	19567
904.392	19495
904.51	19384
904.627	19491
904.745	19502
904.863	19483
904.981	19282
905.098	19088
905.216	19091
905.334	19133
905.451	19091
905.569	19171
905.686	19331
905.803	19148
905.921	18863
906.038	19012
906.155	18966
906.272	18810
906.389	18837
906.506	18620
906.623	18703
906.74	18620
906.857	18509
906.974	18528
907.091	18791
907.208	18791
907.324	18681
907.441	18445
907.557	18441
907.674	18403
907.79	18308
907.907	18330
908.023	18403
908.139	18346
908.256	18254
908.372	18273
908.488	18323
908.604	18136
908.72	17992
908.836	18114
908.952	17984
909.068	18057
909.184	18163
909.3	18125
909.415	17988
909.531	18060
909.647	17828
909.762	17729
909.878	17748
909.993	17680
910.108	17661
910.224	17691
910.339	17745
910.454	17623
910.57	17630
910.685	17471
910.8	17760
910.915	17668
911.03	17482
911.145	17349
911.259	17353
911.374	17273
911.489	17273
911.604	17197
911.718	17178
911.833	17094
911.947	17060
912.062	16892
912.176	17079
912.291	17075
912.405	17117
912.519	17231
912.633	17296
912.748	17083
912.862	17132
912.976	16896
913.09	16721
913.204	16721
913.318	16889
913.431	16957
913.545	16987
913.659	16946
913.772	16862
913.886	16668
914	16672
914.113	16710
914.226	16744
914.34	16660
914.453	16611
914.566	16637
914.68	16512
914.793	16569
914.906	16348
915.019	16257
915.132	16185
915.245	16192
915.358	16219
915.47	16188
915.583	16116
915.696	16215
915.809	16280
915.921	16386
916.034	16166
916.146	16124
916.259	16112
916.371	16158
916.483	16143
916.595	16063
916.708	16006
916.82	16131
916.932	16029
917.044	16029
917.156	15903
917.268	15960
917.38	15831
917.491	15804
917.603	15835
917.715	15972
917.826	15876
917.938	15755
918.049	15743
918.161	15778
918.272	15991
918.384	15903
918.495	15880
918.606	15599
918.717	15545
918.828	15572
918.939	15732
919.05	15504
919.161	15572
919.272	15374
919.383	15412
919.494	15591
919.604	15625
919.715	15496
919.826	15477
919.936	15534
920.047	15667
920.157	15641
920.267	15671
920.378	15424
920.488	15481
920.598	15538
920.708	15838
920.818	15675
920.928	15534
921.038	15766
921.148	15690
921.258	15515
921.368	15447
921.477	15237
921.587	15249
921.697	15157
921.806	15192
921.916	15097
922.025	14971
922.134	14906
922.244	14857
922.353	14880
922.462	14773
922.571	14705
922.68	14492
922.789	14495
922.898	14511
923.007	14434
923.116	14587
923.224	14454
923.333	14511
923.442	14419
923.55	14267
923.659	14366
923.767	14309
923.876	14275
923.984	14328
924.092	14267
924.201	14339
924.309	14218
924.417	14237
924.525	14012
924.633	14157
924.741	15066
924.849	13967
924.956	14123
925.064	13909
925.172	13871
925.279	13791
925.387	13898
925.494	13807
925.602	13959
925.709	13925
925.816	13693
925.924	13761
926.031	13890
926.138	13803
926.245	13757
926.352	13753
926.459	13655
926.566	13769
926.673	13738
926.779	13559
926.886	13662
926.993	13449
927.099	13422
927.206	13373
927.312	13369
927.419	13377
927.525	13381
927.631	13365
927.737	13289
927.843	13206
927.95	13137
928.056	13289
928.162	13282
928.267	13152
928.373	13875
928.479	13259
928.585	13031
928.69	13122
928.796	13122
928.901	13027
929.007	12878
929.112	12954
929.218	12993
929.323	12951
929.428	12920
929.533	13015
929.638	12871
929.743	12871
929.848	12901
929.953	12840
930.058	12753
930.163	12498
930.267	12635
930.372	12658
930.477	12525
930.581	12787
930.685	12627
930.79	12441
930.894	12445
930.998	12422
931.103	12544
931.207	12205
931.311	12102
931.415	12026
931.519	11855
931.623	11821
