Data from test_V78500241_1188.txt Node
Date: Fri Mar 25 15:50:01 CST 2022
User: usil
Spectrometer: V785-0024
Trigger mode: 0
Integration Time (sec): 4.000000E-1
Scans to average: 1
Nonlinearity correction enabled: false
Boxcar width: 0
Storing dark spectrum: false
XAxis mode: Wavelengths
Number of Pixels in Spectrum: 1024
>>>>>Begin Spectral Data<<<<<
801.071	28481
801.214	28546
801.356	28382
801.499	28333
801.641	28207
801.783	28192
801.926	28150
802.068	28196
802.211	27998
802.353	28063
802.496	27831
802.638	27816
802.78	27827
802.923	27835
803.065	27743
803.208	27739
803.35	27819
803.492	27831
803.635	28017
803.777	27941
803.919	28048
804.061	28337
804.204	28230
804.346	27994
804.488	27865
804.63	28131
804.773	28074
804.915	28055
805.057	28166
805.199	28040
805.341	28162
805.483	28154
805.626	28200
805.768	28154
805.91	28177
806.052	28284
806.194	28143
806.336	28409
806.478	28306
806.62	28257
806.762	28333
806.904	28535
807.046	28786
807.188	28752
807.33	28634
807.472	28824
807.614	28538
807.756	28607
807.898	28489
808.04	28679
808.182	28485
808.324	28478
808.465	28675
808.607	28755
808.749	28991
808.891	29090
809.033	29121
809.174	28987
809.316	28877
809.458	28984
809.6	28881
809.741	28991
809.883	29121
810.025	29337
810.166	29189
810.308	29326
810.45	29254
810.591	29102
810.733	29090
810.875	28866
811.016	28812
811.158	28923
811.299	28995
811.441	28949
811.582	29174
811.724	28908
811.865	28976
812.007	28930
812.148	28999
812.29	28987
812.431	29231
812.573	29341
812.714	29368
812.855	29554
812.997	29474
813.138	29783
813.279	29589
813.421	29562
813.562	29444
813.703	29360
813.845	29155
813.986	28904
814.127	28839
814.268	28607
814.41	28767
814.551	28630
814.692	28828
814.833	28622
814.974	28569
815.115	28679
815.256	28538
815.397	28478
815.539	28565
815.68	28462
815.821	28466
815.962	28272
816.103	28474
816.244	28314
816.385	28223
816.526	28276
816.666	28013
816.807	27930
816.948	28036
817.089	28112
817.23	28067
817.371	27979
817.512	27968
817.653	28040
817.793	27873
817.934	27914
818.075	28002
818.216	28051
818.356	28017
818.497	27846
818.638	27724
818.778	27660
818.919	27644
819.06	27781
819.2	27876
819.341	28074
819.481	28063
819.622	28188
819.762	28322
819.903	28337
820.043	28162
820.184	28139
820.324	28109
820.465	28112
820.605	28074
820.746	28188
820.886	27991
821.026	28029
821.167	28090
821.307	28097
821.447	27941
821.588	27876
821.728	27781
821.868	27603
822.008	27515
822.149	27481
822.289	27450
822.429	27317
822.569	27230
822.709	27150
822.849	26998
822.99	27138
823.13	26929
823.27	26883
823.41	26758
823.55	26758
823.69	26918
823.83	26823
823.97	26781
824.11	26705
824.25	26438
824.389	26659
824.529	26632
824.669	26655
824.809	26758
824.949	26659
825.089	26617
825.228	26587
825.368	26522
825.508	26499
825.648	26545
825.787	26522
825.927	26507
826.067	26408
826.206	26560
826.346	26526
826.485	26465
826.625	26594
826.765	26594
826.904	26453
827.044	26408
827.183	26294
827.323	26286
827.462	26252
827.601	26240
827.741	26199
827.88	26126
828.02	26149
828.159	26301
828.298	26229
828.437	26233
828.577	26088
828.716	26263
828.855	26248
828.994	25997
829.134	25883
829.273	25936
829.412	25902
829.551	25803
829.69	25963
829.829	25860
829.968	26008
830.107	25913
830.246	25841
830.385	25769
830.524	25906
830.663	25807
830.802	25712
830.941	25632
831.08	25449
831.219	25533
831.357	25666
831.496	25670
831.635	25525
831.774	25400
831.913	25411
832.051	25419
832.19	25365
832.329	25331
832.467	25156
832.606	25126
832.744	25137
832.883	25198
833.022	25110
833.16	25107
833.299	25293
833.437	25244
833.576	25244
833.714	25259
833.852	25392
833.991	25350
834.129	25293
834.267	25255
834.406	25198
834.544	25217
834.682	25422
834.821	25255
834.959	25407
835.097	25202
835.235	25221
835.373	25168
835.511	25255
835.65	25137
835.788	25095
835.926	24951
836.064	25015
836.202	24973
836.34	24958
836.478	25206
836.615	25065
836.753	25050
836.891	25050
837.029	25095
837.167	24989
837.305	24939
837.443	25057
837.58	25038
837.718	24962
837.856	24909
837.993	24947
838.131	24829
838.269	24791
838.406	24882
838.544	24745
838.681	24555
838.819	24566
838.956	24342
839.094	24292
839.231	24437
839.369	24441
839.506	24738
839.643	24665
839.781	24300
839.918	24258
840.055	24346
840.193	24315
840.33	24350
840.467	24266
840.604	24384
840.742	24448
840.879	24121
841.016	24334
841.153	24258
841.29	24315
841.427	24330
841.564	24235
841.701	24315
841.838	24273
841.975	24144
842.112	24190
842.249	24095
842.385	23939
842.522	24281
842.659	24053
842.796	24045
842.933	23965
843.069	24038
843.206	23904
843.343	24205
843.479	24076
843.616	23996
843.752	23718
843.889	23817
844.025	23870
844.162	23775
844.298	23843
844.435	23783
844.571	23718
844.708	23794
844.844	23904
844.98	23980
845.117	23904
845.253	23767
845.389	23668
845.525	23703
845.661	23634
845.798	23539
845.934	23687
846.07	23490
846.206	23467
846.342	23596
846.478	23414
846.614	23204
846.75	23155
846.886	23345
847.022	23261
847.158	23341
847.294	23185
847.429	23170
847.565	23239
847.701	23573
847.837	23071
847.972	22881
848.108	23204
848.244	23102
848.379	22877
848.515	22885
848.65	22809
848.786	22934
848.921	22911
849.057	22942
849.192	22869
849.328	22835
849.463	22831
849.598	22839
849.734	22755
849.869	22694
850.004	22664
850.14	22634
850.275	22527
850.41	22535
850.545	22535
850.68	22637
850.815	22660
850.95	22618
851.085	22656
851.22	22786
851.355	22611
851.49	22557
851.625	22672
851.76	22489
851.895	22527
852.03	22622
852.165	22542
852.299	22584
852.434	22656
852.569	22660
852.703	22736
852.838	22634
852.973	22687
853.107	22649
853.242	22421
853.376	22565
853.511	22329
853.645	22382
853.78	22584
853.914	22443
854.048	22402
854.183	22436
854.317	22512
854.451	22675
854.585	22443
854.72	22424
854.854	22531
854.988	22382
855.122	22386
855.256	22291
855.39	22398
855.524	22538
855.658	22512
855.792	22440
855.926	22474
856.06	22485
856.194	22565
856.327	22436
856.461	22398
856.595	22497
856.729	22417
856.862	22653
856.996	22417
857.13	22474
857.263	22451
857.397	22596
857.53	22493
857.664	22504
857.797	22519
857.931	22557
858.064	22497
858.197	22580
858.331	22356
858.464	22257
858.597	22322
858.731	22405
858.864	22440
858.997	22382
859.13	22367
859.263	22447
859.396	22569
859.529	22367
859.662	22360
859.795	22409
859.928	22371
860.061	22664
860.194	22577
860.327	22546
860.46	22386
860.592	22531
860.725	22462
860.858	22603
860.99	22500
861.123	22287
861.256	22337
861.388	22386
861.521	23124
861.653	22390
861.786	22226
861.918	22242
862.05	22348
862.183	22310
862.315	22306
862.447	22322
862.58	22291
862.712	22048
862.844	22181
862.976	22246
863.108	22135
863.24	22668
863.372	22147
863.504	22166
863.636	22226
863.768	22215
863.9	22086
864.032	22135
864.164	22090
864.296	22188
864.428	22032
864.559	22097
864.691	22188
864.823	22173
864.954	22078
865.086	22120
865.217	21968
865.349	22040
865.48	22021
865.612	22135
865.743	22078
865.875	21956
866.006	21941
866.137	22013
866.269	21953
866.4	21857
866.531	21930
866.662	21892
866.793	21873
866.924	21964
867.055	22025
867.186	21979
867.317	21915
867.448	21819
867.579	21857
867.71	21888
867.841	21804
867.972	21922
868.103	21804
868.233	21949
868.364	21937
868.495	22055
868.625	22135
868.756	22310
868.886	22010
869.017	22070
869.147	22230
869.278	22344
869.408	22257
869.539	22177
869.669	22299
869.799	22181
869.929	22322
870.06	22257
870.19	22432
870.32	22402
870.45	22462
870.58	22588
870.71	22725
870.84	22664
870.97	22596
871.1	22557
871.23	22763
871.36	22790
871.489	22649
871.619	22721
871.749	22702
871.879	22687
872.008	22949
872.138	22744
872.267	22812
872.397	22531
872.526	22641
872.656	22656
872.785	22508
872.915	22809
873.044	22919
873.173	22790
873.303	22801
873.432	22812
873.561	22930
873.69	22683
873.819	22778
873.948	22850
874.077	22965
874.206	22858
874.335	22691
874.464	23094
874.593	23075
874.722	22984
874.851	23025
874.979	23083
875.108	22991
875.237	22949
875.365	22923
875.494	22976
875.623	22942
875.751	22919
875.88	23090
876.008	23155
876.136	23208
876.265	23353
876.393	23558
876.521	23463
876.65	23589
876.778	23303
876.906	23322
877.034	23337
877.162	23277
877.29	23261
877.418	23376
877.546	23353
877.674	23395
877.802	23383
877.93	23269
878.058	23307
878.185	23216
878.313	23318
878.441	23337
878.568	23124
878.696	23220
878.824	23216
878.951	23360
879.079	23539
879.206	23516
879.333	23467
879.461	23349
879.588	23421
879.715	23566
879.842	23551
879.97	23410
880.097	23105
880.224	23056
880.351	23269
880.478	23102
880.605	23113
880.732	23197
880.859	23356
880.986	23216
881.112	23189
881.239	23033
881.366	22812
881.493	22869
881.619	22687
881.746	22782
881.872	22790
881.999	22687
882.125	22653
882.252	22736
882.378	22733
882.505	22725
882.631	22557
882.757	22409
882.883	22451
883.01	22440
883.136	22360
883.262	22169
883.388	22181
883.514	22352
883.64	22424
883.766	22284
883.892	22032
884.018	22169
884.143	22310
884.269	22523
884.395	22124
884.52	22067
884.646	22048
884.772	21926
884.897	21979
885.023	22063
885.148	22116
885.274	22166
885.399	22025
885.524	22044
885.65	21987
885.775	21998
885.9	21953
886.025	22188
886.15	22177
886.275	21949
886.4	21956
886.525	22002
886.65	22048
886.775	21934
886.9	22147
887.025	22185
887.149	21907
887.274	21789
887.399	21861
887.523	21724
887.648	21724
887.773	21774
887.897	21785
888.021	21781
888.146	21599
888.27	21895
888.395	21892
888.519	21835
888.643	21774
888.767	21781
888.891	21732
889.015	21572
889.139	21580
889.263	21603
889.387	21561
889.511	21831
889.635	21610
889.759	21568
889.883	21481
890.006	21625
890.13	21625
890.254	21583
890.377	21393
890.501	21313
890.624	21313
890.748	21348
890.871	21214
890.995	21184
891.118	21085
891.241	21165
891.364	21222
891.488	21211
891.611	21138
891.734	21116
891.857	21127
891.98	21123
892.103	21138
892.226	21108
892.349	21058
892.471	20899
892.594	21017
892.717	20994
892.839	20986
892.962	21119
893.085	21218
893.207	21013
893.33	20872
893.452	20986
893.575	21001
893.697	20963
893.819	21233
893.941	21192
894.064	21112
894.186	20864
894.308	20948
894.43	21131
894.552	21138
894.674	21024
894.796	20948
894.918	20944
895.04	21104
895.161	21070
895.283	21081
895.405	20941
895.526	20838
895.648	21085
895.769	20990
895.891	21028
896.012	21127
896.134	21001
896.255	21104
896.376	20883
896.498	21165
896.619	21180
896.74	21017
896.861	21123
896.982	21275
897.103	21496
897.224	21424
897.345	21275
897.466	21230
897.587	21279
897.708	21370
897.828	21230
897.949	21123
898.07	21127
898.19	21123
898.311	21233
898.431	21184
898.552	21135
898.672	21192
898.792	21355
898.913	21332
899.033	21123
899.153	20990
899.273	20952
899.393	21005
899.513	20998
899.633	20971
899.753	20899
899.873	20899
899.993	20880
900.113	20872
900.232	20990
900.352	20883
900.472	20804
900.591	20590
900.711	20754
900.83	20727
900.95	20792
901.069	20891
901.189	20651
901.308	20434
901.427	20183
901.546	20347
901.665	20286
901.784	20336
901.904	20221
902.023	19967
902.141	19936
902.26	19887
902.379	19921
902.498	19841
902.617	19837
902.735	19852
902.854	19719
902.973	19674
903.091	19388
903.21	19472
903.328	19460
903.446	19453
903.565	19232
903.683	19251
903.801	19236
903.919	19164
904.038	19179
904.156	18996
904.274	19160
904.392	19091
904.51	18890
904.627	18958
904.745	19247
904.863	19148
904.981	18787
905.098	18749
905.216	18589
905.334	18760
905.451	18768
905.569	18673
905.686	18700
905.803	18604
905.921	18422
906.038	18528
906.155	18616
906.272	18528
906.389	18403
906.506	18194
906.623	18296
906.74	18194
906.857	18049
906.974	18072
907.091	18235
907.208	18388
907.324	18197
907.441	18144
907.557	17920
907.674	17958
907.79	17920
907.907	17779
908.023	18064
908.139	17904
908.256	17809
908.372	17817
908.488	17783
908.604	17649
908.72	17623
908.836	17691
908.952	17638
909.068	17573
909.184	17703
909.3	17672
909.415	17630
909.531	17611
909.647	17318
909.762	17353
909.878	17360
909.993	17326
910.108	17315
910.224	17296
910.339	17356
910.454	17185
910.57	17220
910.685	17045
910.8	17315
910.915	17239
911.03	17113
911.145	17006
911.259	16949
911.374	16987
911.489	16771
911.604	16717
911.718	16729
911.833	16721
911.947	16603
912.062	16516
912.176	16672
912.291	16721
912.405	16637
912.519	16809
912.633	16919
912.748	16816
912.862	16554
912.976	16470
913.09	16386
913.204	16432
913.318	16428
913.431	16538
913.545	16565
913.659	16584
913.772	16322
913.886	16432
914	16276
914.113	16371
914.226	16261
914.34	16371
914.453	16090
914.566	16276
914.68	16162
914.793	16131
914.906	15915
915.019	15842
915.132	15930
915.245	15895
915.358	15911
915.47	15804
915.583	15854
915.696	15884
915.809	16029
915.921	15888
916.034	15724
916.146	15857
916.259	15766
916.371	15774
916.483	15709
916.595	15663
916.708	15641
916.82	15641
916.932	15633
917.044	15591
917.156	15564
917.268	15526
917.38	15492
917.491	15492
917.603	15519
917.715	15572
917.826	15545
917.938	15313
918.049	15321
918.161	15348
918.272	15553
918.384	15545
918.495	15283
918.606	15275
918.717	15203
918.828	15252
918.939	15272
919.05	15131
919.161	15233
919.272	14998
919.383	15081
919.494	15260
919.604	15416
919.715	15165
919.826	15097
919.936	15173
920.047	15214
920.157	15157
920.267	15252
920.378	15108
920.488	15074
920.598	15393
920.708	15393
920.818	15317
920.928	15317
921.038	15412
921.148	15473
921.258	15127
921.368	15032
921.477	14906
921.587	14986
921.697	14781
921.806	14815
921.916	14891
922.025	14564
922.134	14522
922.244	14446
922.353	14575
922.462	14377
922.571	14374
922.68	14393
922.789	14202
922.898	14164
923.007	14084
923.116	14062
923.224	14081
923.333	14149
923.442	13978
923.55	14065
923.659	13940
923.767	14100
923.876	13894
923.984	14027
924.092	13837
924.201	13849
924.309	13833
924.417	13894
924.525	13769
924.633	13909
924.741	14549
924.849	13594
924.956	13738
925.064	13499
925.172	13597
925.279	13514
925.387	13647
925.494	13594
925.602	13628
925.709	13586
925.816	13510
925.924	13499
926.031	13533
926.138	13392
926.245	13438
926.352	13320
926.459	13415
926.566	13586
926.673	13384
926.779	13350
926.886	13297
926.993	13164
927.099	13095
927.206	13091
927.312	12977
927.419	13179
927.525	13057
927.631	13149
927.737	12962
927.843	12897
927.95	12787
928.056	12798
928.162	12833
928.267	12966
928.373	13468
928.479	12985
928.585	12726
928.69	12878
928.796	12947
928.901	12760
929.007	12673
929.112	12772
929.218	12684
929.323	12563
929.428	12589
929.533	12707
929.638	12578
929.743	12578
929.848	12555
929.953	12585
930.058	12350
930.163	12262
930.267	12273
930.372	12369
930.477	12315
930.581	12471
930.685	12296
930.79	12125
930.894	12201
930.998	12129
931.103	12315
931.207	11916
931.311	11866
931.415	11748
931.519	11467
931.623	11505
