Data from test_V78500241_670.txt Node
Date: Fri Mar 25 15:46:26 CST 2022
User: usil
Spectrometer: V785-0024
Trigger mode: 0
Integration Time (sec): 4.000000E-1
Scans to average: 1
Nonlinearity correction enabled: false
Boxcar width: 0
Storing dark spectrum: false
XAxis mode: Wavelengths
Number of Pixels in Spectrum: 1024
>>>>>Begin Spectral Data<<<<<
801.071	27545
801.214	27614
801.356	27351
801.499	27412
801.641	27154
801.783	27135
801.926	27310
802.068	27230
802.211	27138
802.353	27024
802.496	26910
802.638	26864
802.78	26838
802.923	26781
803.065	26826
803.208	26861
803.35	26925
803.492	26952
803.635	27074
803.777	26933
803.919	26960
804.061	27317
804.204	27135
804.346	26994
804.488	26937
804.63	27032
804.773	26826
804.915	26937
805.057	27161
805.199	27066
805.341	27062
805.483	27313
805.626	27077
805.768	27001
805.91	27230
806.052	26990
806.194	27093
806.336	27154
806.478	27150
806.62	27131
806.762	27222
806.904	27435
807.046	27648
807.188	27538
807.33	27500
807.472	27682
807.614	27606
807.756	27412
807.898	27454
808.04	27405
808.182	27325
808.324	27408
808.465	27504
808.607	27488
808.749	27663
808.891	27846
809.033	28010
809.174	27823
809.316	27755
809.458	27819
809.6	27884
809.741	27945
809.883	28055
810.025	28078
810.166	27979
810.308	28025
810.45	27945
810.591	27960
810.733	27846
810.875	27694
811.016	27679
811.158	27587
811.299	27949
811.441	28006
811.582	27907
811.724	27743
811.865	27698
812.007	27622
812.148	27774
812.29	27804
812.431	27949
812.573	28143
812.714	28166
812.855	28234
812.997	28382
813.138	28519
813.279	28337
813.421	28272
813.562	28299
813.703	28048
813.845	28086
813.986	27591
814.127	27485
814.268	27427
814.41	27496
814.551	27450
814.692	27454
814.833	27397
814.974	27306
815.115	27530
815.256	27454
815.397	27207
815.539	27382
815.68	27298
815.821	27233
815.962	27211
816.103	27161
816.244	27138
816.385	27043
816.526	26975
816.666	26937
816.807	26598
816.948	26811
817.089	26849
817.23	26811
817.371	26815
817.512	26819
817.653	26804
817.793	26743
817.934	26819
818.075	26777
818.216	26648
818.356	26636
818.497	26629
818.638	26301
818.778	26499
818.919	26450
819.06	26602
819.2	26701
819.341	26708
819.481	26727
819.622	26781
819.762	26963
819.903	27020
820.043	26868
820.184	26804
820.324	26819
820.465	26986
820.605	26815
820.746	26857
820.886	26587
821.026	26800
821.167	26853
821.307	26895
821.447	26823
821.588	26693
821.728	26541
821.868	26347
822.008	26259
822.149	26237
822.289	26149
822.429	26111
822.569	25772
822.709	25921
822.849	25761
822.99	25841
823.13	25651
823.27	25651
823.41	25495
823.55	25426
823.69	25647
823.83	25502
823.97	25487
824.11	25415
824.25	25255
824.389	25270
824.529	25495
824.669	25282
824.809	25483
824.949	25445
825.089	25407
825.228	25422
825.368	25285
825.508	25308
825.648	25312
825.787	25263
825.927	25259
826.067	25198
826.206	25228
826.346	25171
826.485	25190
826.625	25247
826.765	25289
826.904	25152
827.044	24848
827.183	25053
827.323	24806
827.462	24867
827.601	25042
827.741	24939
827.88	24871
828.02	24844
828.159	24867
828.298	24970
828.437	24878
828.577	24772
828.716	24958
828.855	24924
828.994	24639
829.134	24601
829.273	24707
829.412	24521
829.551	24467
829.69	24547
829.829	24582
829.968	24802
830.107	24711
830.246	24623
830.385	24623
830.524	24551
830.663	24429
830.802	24251
830.941	24201
831.08	24273
831.219	24365
831.357	24403
831.496	24414
831.635	24292
831.774	24163
831.913	24304
832.051	24091
832.19	24022
832.329	24041
832.467	23889
832.606	23756
832.744	23805
832.883	23847
833.022	23798
833.16	23931
833.299	24038
833.437	23927
833.576	24018
833.714	23984
833.852	24114
833.991	24003
834.129	24133
834.267	24018
834.406	23878
834.544	23927
834.682	23961
834.821	23923
834.959	24133
835.097	23813
835.235	23923
835.373	23969
835.511	23843
835.65	23783
835.788	23771
835.926	23680
836.064	23680
836.202	23661
836.34	23813
836.478	23832
836.615	23707
836.753	23745
836.891	23897
837.029	23889
837.167	23726
837.305	23684
837.443	23779
837.58	23710
837.718	23802
837.856	23722
837.993	23707
838.131	23615
838.269	23547
838.406	23600
838.544	23478
838.681	23490
838.819	23212
838.956	23132
839.094	23121
839.231	23220
839.369	23292
839.506	23410
839.643	23474
839.781	23140
839.918	23117
840.055	23048
840.193	23014
840.33	23003
840.467	22957
840.604	23185
840.742	23200
840.879	22915
841.016	22938
841.153	22980
841.29	23102
841.427	22904
841.564	23086
841.701	22915
841.838	22927
841.975	22934
842.112	22942
842.249	22790
842.385	22774
842.522	23083
842.659	22831
842.796	22767
842.933	22919
843.069	22706
843.206	22767
843.343	22831
843.479	22828
843.616	22702
843.752	22592
843.889	22641
844.025	22729
844.162	22459
844.298	22637
844.435	22550
844.571	22428
844.708	22580
844.844	22660
844.98	22702
845.117	22618
845.253	22596
845.389	22352
845.525	22519
845.661	22432
845.798	22177
845.934	22386
846.07	22295
846.206	22314
846.342	22318
846.478	22268
846.614	22082
846.75	21972
846.886	21968
847.022	22097
847.158	22109
847.294	22006
847.429	22044
847.565	21975
847.701	22295
847.837	21823
847.972	21641
848.108	21774
848.244	21804
848.379	21652
848.515	21568
848.65	21614
848.786	21637
848.921	21679
849.057	21793
849.192	21709
849.328	21728
849.463	21679
849.598	21701
849.734	21610
849.869	21595
850.004	21367
850.14	21313
850.275	21389
850.41	21260
850.545	21294
850.68	21302
850.815	21359
850.95	21306
851.085	21591
851.22	21370
851.355	21370
851.49	21443
851.625	21272
851.76	21488
851.895	21325
852.03	21275
852.165	21496
852.299	21420
852.434	21382
852.569	21397
852.703	21317
852.838	21420
852.973	21454
853.107	21534
853.242	21313
853.376	21123
853.511	21188
853.645	21203
853.78	21405
853.914	21249
854.048	21055
854.183	21180
854.317	21157
854.451	21359
854.585	21211
854.72	21222
854.854	21275
854.988	21081
855.122	21184
855.256	21089
855.39	21195
855.524	21233
855.658	21173
855.792	21173
855.926	21287
856.06	21203
856.194	21332
856.327	21184
856.461	21180
856.595	21233
856.729	21222
856.862	21275
856.996	21161
857.13	21287
857.263	21317
857.397	21272
857.53	21180
857.664	21195
857.797	21294
857.931	21298
858.064	21336
858.197	21374
858.331	21195
858.464	21176
858.597	21256
858.731	21165
858.864	21226
858.997	21066
859.13	21275
859.263	21245
859.396	21374
859.529	21150
859.662	21131
859.795	21142
859.928	21135
860.061	21340
860.194	21405
860.327	21218
860.46	21131
860.592	21252
860.725	21428
860.858	21294
860.99	21077
861.123	21138
861.256	21161
861.388	21207
861.521	21785
861.653	21249
861.786	20967
861.918	21009
862.05	21108
862.183	21036
862.315	21203
862.447	21203
862.58	21116
862.712	20971
862.844	20872
862.976	21009
863.108	21005
863.24	21405
863.372	20826
863.504	20891
863.636	20857
863.768	20845
863.9	20994
864.032	20796
864.164	20796
864.296	20975
864.428	21017
864.559	21074
864.691	21013
864.823	20914
864.954	20929
865.086	20819
865.217	20800
865.349	20769
865.48	20861
865.612	20834
865.743	21017
865.875	20887
866.006	20724
866.137	20807
866.269	20826
866.4	20872
866.531	20804
866.662	20716
866.793	20823
866.924	20686
867.055	20712
867.186	20716
867.317	20754
867.448	20648
867.579	20830
867.71	20743
867.841	20575
867.972	20735
868.103	20678
868.233	20800
868.364	20804
868.495	20769
868.625	21062
868.756	21013
868.886	20849
869.017	21036
869.147	21028
869.278	21123
869.408	20982
869.539	21009
869.669	21089
869.799	21055
869.929	21119
870.06	21036
870.19	21332
870.32	21127
870.45	21268
870.58	21401
870.71	21374
870.84	21386
870.97	21408
871.1	21408
871.23	21591
871.36	21568
871.489	21492
871.619	21496
871.749	21709
871.879	21739
872.008	21648
872.138	21690
872.267	21500
872.397	21382
872.526	21321
872.656	21466
872.785	21507
872.915	21644
873.044	21637
873.173	21603
873.303	21766
873.432	21614
873.561	21698
873.69	21614
873.819	21641
873.948	21701
874.077	21637
874.206	21488
874.335	21713
874.464	21679
874.593	21781
874.722	21857
874.851	21953
874.979	21846
875.108	21823
875.237	21705
875.365	21736
875.494	21759
875.623	21934
875.751	21835
875.88	21907
876.008	22002
876.136	22006
876.265	22303
876.393	22390
876.521	22196
876.65	22253
876.778	22223
876.906	22154
877.034	22139
877.162	22287
877.29	22135
877.418	22219
877.546	22238
877.674	22200
877.802	22215
877.93	22086
878.058	22196
878.185	21964
878.313	22143
878.441	22112
878.568	22112
878.696	22158
878.824	22299
878.951	22207
879.079	22424
879.206	22485
879.333	22284
879.461	22234
879.588	22310
879.715	22417
879.842	22322
879.97	22276
880.097	21991
880.224	21956
880.351	22166
880.478	21918
880.605	21888
880.732	22063
880.859	22268
880.986	21911
881.112	22097
881.239	21892
881.366	21743
881.493	21675
881.619	21534
881.746	21701
881.872	21694
881.999	21648
882.125	21553
882.252	21583
882.378	21523
882.505	21728
882.631	21401
882.757	21291
882.883	21405
883.01	21260
883.136	21131
883.262	21146
883.388	21146
883.514	21275
883.64	21272
883.766	21256
883.892	21032
884.018	21108
884.143	21123
884.269	21367
884.395	20979
884.52	20842
884.646	20883
884.772	20960
884.897	20792
885.023	21005
885.148	20933
885.274	21070
885.399	21047
885.524	20937
885.65	20975
885.775	20899
885.9	20849
886.025	21077
886.15	21009
886.275	20849
886.4	20910
886.525	21058
886.65	20758
886.775	20800
886.9	20902
887.025	21150
887.149	20830
887.274	20724
887.399	20739
887.523	20754
887.648	20583
887.773	20625
887.897	20754
888.021	20758
888.146	20739
888.27	20743
888.395	20834
888.519	20758
888.643	20651
888.767	20716
888.891	20537
889.015	20522
889.139	20446
889.263	20541
889.387	20488
889.511	20659
889.635	20678
889.759	20473
889.883	20442
890.006	20457
890.13	20514
890.254	20431
890.377	20473
890.501	20267
890.624	20191
890.748	20301
890.871	20206
890.995	20046
891.118	19951
891.241	20134
891.364	20073
891.488	20252
891.611	20122
891.734	20164
891.857	20164
891.98	20149
892.103	20046
892.226	20065
892.349	20054
892.471	19875
892.594	19959
892.717	20062
892.839	19909
892.962	19982
893.085	20031
893.207	20161
893.33	19947
893.452	19845
893.575	20092
893.697	19967
893.819	20233
893.941	20122
894.064	20069
894.186	20031
894.308	19894
894.43	19940
894.552	20115
894.674	20115
894.796	19807
894.918	19925
895.04	19890
895.161	20069
895.283	20035
895.405	19982
895.526	19909
895.648	19917
895.769	19925
895.891	20012
896.012	20088
896.134	20008
896.255	20073
896.376	19944
896.498	19978
896.619	20035
896.74	19986
896.861	20043
896.982	20225
897.103	20484
897.224	20210
897.345	20320
897.466	20172
897.587	20157
897.708	20404
897.828	20298
897.949	20103
898.07	20046
898.19	20168
898.311	20233
898.431	20275
898.552	20183
898.672	20237
898.792	20210
898.913	20199
899.033	20164
899.153	20107
899.273	20001
899.393	19986
899.513	20103
899.633	19936
899.753	19921
899.873	19837
899.993	19970
900.113	19898
900.232	19928
900.352	19906
900.472	19769
900.591	19761
900.711	19826
900.83	19616
900.95	19788
901.069	19833
901.189	19689
901.308	19411
901.427	19270
901.546	19400
901.665	19312
901.784	19441
901.904	19148
902.023	19232
902.141	18962
902.26	18852
902.379	18920
902.498	18787
902.617	18753
902.735	18901
902.854	18837
902.973	18776
903.091	18509
903.21	18559
903.328	18559
903.446	18384
903.565	18308
903.683	18422
903.801	18289
903.919	18342
904.038	18213
904.156	18110
904.274	18171
904.392	18060
904.51	18053
904.627	18038
904.745	18190
904.863	18140
904.981	17897
905.098	17752
905.216	17718
905.334	17775
905.451	17760
905.569	17745
905.686	17756
905.803	17726
905.921	17619
906.038	17680
906.155	17562
906.272	17417
906.389	17429
906.506	17258
906.623	17269
906.74	17414
906.857	17109
906.974	17159
907.091	17334
907.208	17478
907.324	17223
907.441	17159
907.557	17048
907.674	17003
907.79	16866
907.907	16942
908.023	17025
908.139	16946
908.256	16885
908.372	16892
908.488	16927
908.604	16793
908.72	16736
908.836	16683
908.952	16713
909.068	16767
909.184	16752
909.3	16778
909.415	16664
909.531	16660
909.647	16527
909.762	16478
909.878	16375
909.993	16333
910.108	16417
910.224	16402
910.339	16500
910.454	16284
910.57	16177
910.685	16116
910.8	16436
910.915	16379
911.03	16158
911.145	16211
911.259	16002
911.374	15994
911.489	15983
911.604	15983
911.718	15766
911.833	15812
911.947	15736
912.062	15622
912.176	15709
912.291	15819
912.405	15907
912.519	15960
912.633	16032
912.748	15800
912.862	15804
912.976	15603
913.09	15530
913.204	15584
913.318	15667
913.431	15762
913.545	15709
913.659	15637
913.772	15698
913.886	15477
914	15401
914.113	15359
914.226	15534
914.34	15428
914.453	15298
914.566	15435
914.68	15226
914.793	15264
914.906	15047
915.019	15085
915.132	14986
915.245	14994
915.358	15070
915.47	14990
915.583	14982
915.696	15104
915.809	15165
915.921	15176
916.034	14918
916.146	14857
916.259	14902
916.371	14944
916.483	14963
916.595	14899
916.708	14887
916.82	14948
916.932	14762
917.044	14758
917.156	14823
917.268	14640
917.38	14743
917.491	14629
917.603	14606
917.715	14785
917.826	14796
917.938	14667
918.049	14526
918.161	14602
918.272	14659
918.384	14743
918.495	14621
918.606	14427
918.717	14339
918.828	14461
918.939	14431
919.05	14317
919.161	14434
919.272	14252
919.383	14259
919.494	14499
919.604	14549
919.715	14309
919.826	14366
919.936	14404
920.047	14415
920.157	14404
920.267	14640
920.378	14412
920.488	14313
920.598	14575
920.708	14701
920.818	14526
920.928	14552
921.038	14678
921.148	14682
921.258	14355
921.368	14168
921.477	14161
921.587	14145
921.697	14012
921.806	14107
921.916	13917
922.025	13837
922.134	13841
922.244	13723
922.353	13776
922.462	13658
922.571	13586
922.68	13480
922.789	13426
922.898	13491
923.007	13289
923.116	13495
923.224	13373
923.333	13434
923.442	13316
923.55	13263
923.659	13228
923.767	13388
923.876	13156
923.984	13278
924.092	13042
924.201	13206
924.309	13152
924.417	13274
924.525	13122
924.633	13103
924.741	14027
924.849	12924
924.956	13095
925.064	12890
925.172	12840
925.279	12840
925.387	12814
925.494	12837
925.602	12928
925.709	12825
925.816	12620
925.924	12730
926.031	12924
926.138	12779
926.245	12802
926.352	12677
926.459	12749
926.566	12920
926.673	12703
926.779	12635
926.886	12597
926.993	12486
927.099	12471
927.206	12388
927.312	12311
927.419	12490
927.525	12376
927.631	12479
927.737	12285
927.843	12361
927.95	12205
928.056	12292
928.162	12266
928.267	12285
928.373	12856
928.479	12311
928.585	12064
928.69	12186
928.796	12220
928.901	12076
929.007	11965
929.112	12098
929.218	12129
929.323	11999
929.428	11980
929.533	12091
929.638	11870
929.743	11950
929.848	11973
929.953	11893
930.058	11817
930.163	11672
930.267	11634
930.372	11809
930.477	11699
930.581	11809
930.685	11729
930.79	11539
930.894	11608
930.998	11535
931.103	11653
931.207	11330
931.311	11216
931.415	11162
931.519	10968
931.623	10965
