Data from test_V78500241_3612.txt Node
Date: Fri Mar 25 16:06:49 CST 2022
User: usil
Spectrometer: V785-0024
Trigger mode: 0
Integration Time (sec): 4.000000E-1
Scans to average: 1
Nonlinearity correction enabled: false
Boxcar width: 0
Storing dark spectrum: false
XAxis mode: Wavelengths
Number of Pixels in Spectrum: 1024
>>>>>Begin Spectral Data<<<<<
801.071	28748
801.214	28698
801.356	28626
801.499	28493
801.641	28291
801.783	28417
801.926	28428
802.068	28390
802.211	28196
802.353	28314
802.496	28063
802.638	27994
802.78	27934
802.923	27937
803.065	27914
803.208	28074
803.35	28006
803.492	28131
803.635	28272
803.777	28090
803.919	28265
804.061	28550
804.204	28405
804.346	28147
804.488	28215
804.63	28234
804.773	28238
804.915	28287
805.057	28341
805.199	28474
805.341	28371
805.483	28413
805.626	28500
805.768	28367
805.91	28424
806.052	28443
806.194	28421
806.336	28672
806.478	28474
806.62	28440
806.762	28649
806.904	28744
807.046	28995
807.188	29048
807.33	28862
807.472	29041
807.614	28866
807.756	28809
807.898	28744
808.04	28740
808.182	28607
808.324	28740
808.465	28793
808.607	29067
808.749	29185
808.891	29159
809.033	29368
809.174	29200
809.316	29102
809.458	29124
809.6	29128
809.741	29254
809.883	29178
810.025	29398
810.166	29463
810.308	29387
810.45	29356
810.591	29379
810.733	29254
810.875	29178
811.016	29025
811.158	29155
811.299	29326
811.441	29341
811.582	29269
811.724	29242
811.865	29128
812.007	29117
812.148	29178
812.29	29212
812.431	29311
812.573	29493
812.714	29707
812.855	29600
812.997	29802
813.138	29817
813.279	29870
813.421	29779
813.562	29630
813.703	29630
813.845	29353
813.986	29166
814.127	28961
814.268	28850
814.41	28850
814.551	28847
814.692	28942
814.833	28805
814.974	28881
815.115	28828
815.256	28656
815.397	28687
815.539	28888
815.68	28618
815.821	28675
815.962	28668
816.103	28790
816.244	28630
816.385	28489
816.526	28428
816.666	28287
816.807	28055
816.948	28169
817.089	28455
817.23	28147
817.371	28223
817.512	28139
817.653	28337
817.793	28120
817.934	28238
818.075	28082
818.216	28226
818.356	28192
818.497	28173
818.638	27987
818.778	27945
818.919	28006
819.06	27975
819.2	28105
819.341	28215
819.481	28284
819.622	28382
819.762	28577
819.903	28413
820.043	28352
820.184	28382
820.324	28375
820.465	28344
820.605	28280
820.746	28299
820.886	28090
821.026	28322
821.167	28333
821.307	28348
821.447	28337
821.588	28139
821.728	28040
821.868	27717
822.008	27701
822.149	27812
822.289	27690
822.429	27389
822.569	27344
822.709	27317
822.849	27173
822.99	27275
823.13	27176
823.27	27188
823.41	27066
823.55	26895
823.69	27001
823.83	26982
823.97	26963
824.11	26815
824.25	26762
824.389	26758
824.529	26975
824.669	26845
824.809	26781
824.949	26998
825.089	26868
825.228	26971
825.368	26705
825.508	26796
825.648	26705
825.787	26731
825.927	26762
826.067	26693
826.206	26689
826.346	26659
826.485	26689
826.625	26670
826.765	26826
826.904	26724
827.044	26564
827.183	26453
827.323	26492
827.462	26583
827.601	26480
827.741	26305
827.88	26564
828.02	26347
828.159	26453
828.298	26484
828.437	26465
828.577	26271
828.716	26469
828.855	26453
828.994	26153
829.134	26100
829.273	26229
829.412	25955
829.551	26058
829.69	26161
829.829	26199
829.968	26218
830.107	26294
830.246	26157
830.385	25997
830.524	26016
830.663	25791
830.802	25830
830.941	25521
831.08	25734
831.219	25864
831.357	25723
831.496	25856
831.635	25757
831.774	25700
831.913	25609
832.051	25487
832.19	25635
832.329	25537
832.467	25575
832.606	25244
832.744	25350
832.883	25388
833.022	25403
833.16	25426
833.299	25487
833.437	25411
833.576	25571
833.714	25396
833.852	25537
833.991	25491
834.129	25552
834.267	25510
834.406	25464
834.544	25445
834.682	25453
834.821	25331
834.959	25594
835.097	25449
835.235	25518
835.373	25430
835.511	25373
835.65	25331
835.788	25259
835.926	25175
836.064	25126
836.202	25236
836.34	25377
836.478	25308
836.615	25194
836.753	25343
836.891	25274
837.029	25263
837.167	25175
837.305	25206
837.443	25118
837.58	25190
837.718	25122
837.856	25168
837.993	25050
838.131	25141
838.269	24973
838.406	25050
838.544	24886
838.681	24726
838.819	24681
838.956	24642
839.094	24464
839.231	24502
839.369	24665
839.506	25000
839.643	24753
839.781	24517
839.918	24551
840.055	24456
840.193	24551
840.33	24574
840.467	24517
840.604	24517
840.742	24745
840.879	24262
841.016	24448
841.153	24311
841.29	24513
841.427	24369
841.564	24494
841.701	24498
841.838	24327
841.975	24369
842.112	24388
842.249	24376
842.385	24365
842.522	24388
842.659	24167
842.796	24194
842.933	24159
843.069	24129
843.206	24110
843.343	24262
843.479	24304
843.616	24315
843.752	24068
843.889	23946
844.025	24197
844.162	23912
844.298	24258
844.435	24121
844.571	23935
844.708	24117
844.844	24102
844.98	24136
845.117	24125
845.253	24117
845.389	23878
845.525	24026
845.661	23882
845.798	23771
845.934	23866
846.07	23802
846.206	23779
846.342	23771
846.478	23570
846.614	23486
846.75	23509
846.886	23474
847.022	23433
847.158	23570
847.294	23509
847.429	23570
847.565	23467
847.701	23748
847.837	23246
847.972	23235
848.108	23269
848.244	23265
848.379	23307
848.515	23109
848.65	23094
848.786	23006
848.921	23094
849.057	23109
849.192	23033
849.328	23003
849.463	23083
849.598	23109
849.734	22961
849.869	22984
850.004	22839
850.14	22934
850.275	22850
850.41	22847
850.545	22729
850.68	22725
850.815	22858
850.95	22877
851.085	23056
851.22	22927
851.355	22995
851.49	22847
851.625	22740
851.76	22793
851.895	22721
852.03	22797
852.165	22862
852.299	22862
852.434	22984
852.569	22839
852.703	22778
852.838	22869
852.973	22900
853.107	22934
853.242	22698
853.376	22527
853.511	22542
853.645	22664
853.78	22626
853.914	22797
854.048	22626
854.183	22561
854.317	22660
854.451	22740
854.585	22725
854.72	22679
854.854	22725
854.988	22577
855.122	22736
855.256	22424
855.39	22603
855.524	22710
855.658	22763
855.792	22702
855.926	22634
856.06	22694
856.194	22763
856.327	22649
856.461	22656
856.595	22618
856.729	22618
856.862	22649
856.996	22752
857.13	22691
857.263	22843
857.397	22839
857.53	22577
857.664	22725
857.797	22721
857.931	22744
858.064	22691
858.197	22740
858.331	22668
858.464	22508
858.597	22538
858.731	22717
858.864	22592
858.997	22508
859.13	22577
859.263	22596
859.396	22812
859.529	22542
859.662	22569
859.795	22710
859.928	22679
860.061	22797
860.194	22771
860.327	22733
860.46	22679
860.592	22721
860.725	22900
860.858	22786
860.99	22729
861.123	22615
861.256	22721
861.388	22577
861.521	23318
861.653	22470
861.786	22424
861.918	22447
862.05	22622
862.183	22538
862.315	22535
862.447	22588
862.58	22565
862.712	22382
862.844	22516
862.976	22451
863.108	22348
863.24	22847
863.372	22322
863.504	22428
863.636	22280
863.768	22402
863.9	22386
864.032	22280
864.164	22196
864.296	22455
864.428	22466
864.559	22592
864.691	22512
864.823	22272
864.954	22246
865.086	22303
865.217	22295
865.349	22143
865.48	22284
865.612	22120
865.743	22333
865.875	22230
866.006	22150
866.137	22116
866.269	22215
866.4	22196
866.531	22188
866.662	22143
866.793	22120
866.924	22169
867.055	22223
867.186	22272
867.317	22109
867.448	21968
867.579	22192
867.71	22101
867.841	22101
867.972	22181
868.103	22181
868.233	22067
868.364	22139
868.495	22310
868.625	22360
868.756	22500
868.886	22303
869.017	22314
869.147	22382
869.278	22500
869.408	22474
869.539	22375
869.669	22459
869.799	22504
869.929	22459
870.06	22573
870.19	22508
870.32	22675
870.45	22725
870.58	22759
870.71	22755
870.84	22904
870.97	22835
871.1	22816
871.23	23094
871.36	22908
871.489	22835
871.619	23022
871.749	22923
871.879	23018
872.008	23151
872.138	23048
872.267	22980
872.397	22862
872.526	22862
872.656	22930
872.785	22771
872.915	23041
873.044	23185
873.173	23003
873.303	23170
873.432	23071
873.561	23121
873.69	22972
873.819	22949
873.948	23151
874.077	22961
874.206	22949
874.335	22995
874.464	23185
874.593	23261
874.722	23231
874.851	23239
874.979	23140
875.108	23250
875.237	23060
875.365	23044
875.494	23189
875.623	23284
875.751	23212
875.88	23204
876.008	23337
876.136	23383
876.265	23680
876.393	23805
876.521	23764
876.65	23699
876.778	23547
876.906	23589
877.034	23440
877.162	23535
877.29	23551
877.418	23638
877.546	23592
877.674	23646
877.802	23577
877.93	23547
878.058	23501
878.185	23486
878.313	23600
878.441	23668
878.568	23379
878.696	23463
878.824	23493
878.951	23642
879.079	23794
879.206	23882
879.333	23764
879.461	23608
879.588	23657
879.715	23726
879.842	23843
879.97	23558
880.097	23433
880.224	23387
880.351	23490
880.478	23383
880.605	23258
880.732	23402
880.859	23627
880.986	23490
881.112	23376
881.239	23349
881.366	23162
881.493	23022
881.619	23003
881.746	22892
881.872	23041
881.999	22938
882.125	22892
882.252	22957
882.378	22873
882.505	23003
882.631	22820
882.757	22607
882.883	22679
883.01	22694
883.136	22500
883.262	22481
883.388	22550
883.514	22675
883.64	22641
883.766	22565
883.892	22390
884.018	22352
884.143	22603
884.269	22641
884.395	22360
884.52	22082
884.646	22299
884.772	22272
884.897	22143
885.023	22204
885.148	22310
885.274	22371
885.399	22249
885.524	22253
885.65	22344
885.775	22314
885.9	22284
886.025	22303
886.15	22447
886.275	22261
886.4	22219
886.525	22188
886.65	22242
886.775	22143
886.9	22306
887.025	22432
887.149	22211
887.274	22090
887.399	21994
887.523	21937
887.648	21903
887.773	21797
887.897	22090
888.021	22063
888.146	21865
888.27	21972
888.395	22097
888.519	22070
888.643	22036
888.767	21953
888.891	21934
889.015	21850
889.139	21705
889.263	21747
889.387	21846
889.511	21892
889.635	21838
889.759	21854
889.883	21797
890.006	21804
890.13	21804
890.254	21739
890.377	21675
890.501	21622
890.624	21496
890.748	21568
890.871	21325
890.995	21348
891.118	21325
891.241	21431
891.364	21252
891.488	21405
891.611	21180
891.734	21325
891.857	21351
891.98	21454
892.103	21351
892.226	21363
892.349	21340
892.471	21116
892.594	21214
892.717	21184
892.839	21112
892.962	21180
893.085	21359
893.207	21294
893.33	21089
893.452	21157
893.575	21188
893.697	21283
893.819	21344
893.941	21389
894.064	21302
894.186	21241
894.308	21157
894.43	21310
894.552	21393
894.674	21294
894.796	21180
894.918	21180
895.04	21237
895.161	21264
895.283	21306
895.405	21173
895.526	21154
895.648	21195
895.769	21195
895.891	21283
896.012	21359
896.134	21211
896.255	21176
896.376	21245
896.498	21180
896.619	21256
896.74	21211
896.861	21348
896.982	21526
897.103	21679
897.224	21431
897.345	21374
897.466	21317
897.587	21336
897.708	21435
897.828	21416
897.949	21275
898.07	21233
898.19	21332
898.311	21454
898.431	21329
898.552	21462
898.672	21363
898.792	21477
898.913	21428
899.033	21214
899.153	21226
899.273	21180
899.393	21081
899.513	21138
899.633	21138
899.753	21161
899.873	20921
899.993	21207
900.113	21039
900.232	21093
900.352	21028
900.472	20948
900.591	20895
900.711	20948
900.83	20914
900.95	20933
901.069	20933
901.189	20777
901.308	20579
901.427	20423
901.546	20336
901.665	20469
901.784	20457
901.904	20336
902.023	20240
902.141	19947
902.26	19959
902.379	20077
902.498	19913
902.617	19974
902.735	19986
902.854	19818
902.973	19799
903.091	19677
903.21	19643
903.328	19601
903.446	19548
903.565	19540
903.683	19396
903.801	19316
903.919	19464
904.038	19270
904.156	19217
904.274	19217
904.392	19198
904.51	19080
904.627	19107
904.745	19118
904.863	19187
904.981	18932
905.098	18852
905.216	18817
905.334	18867
905.451	18749
905.569	18749
905.686	18901
905.803	18783
905.921	18574
906.038	18661
906.155	18623
906.272	18494
906.389	18544
906.506	18334
906.623	18403
906.74	18418
906.857	18277
906.974	18254
907.091	18445
907.208	18540
907.324	18357
907.441	18281
907.557	18106
907.674	18057
907.79	17954
907.907	18095
908.023	18091
908.139	18163
908.256	18007
908.372	17912
908.488	17935
908.604	17847
908.72	17737
908.836	17794
908.952	17764
909.068	17920
909.184	17794
909.3	17756
909.415	17802
909.531	17752
909.647	17478
909.762	17551
909.878	17478
909.993	17478
910.108	17417
910.224	17471
910.339	17341
910.454	17258
910.57	17258
910.685	17284
910.8	17539
910.915	17433
911.03	17250
911.145	17128
911.259	17064
911.374	17056
911.489	17029
911.604	16889
911.718	16809
911.833	16809
911.947	16755
912.062	16634
912.176	16847
912.291	16824
912.405	16793
912.519	16885
912.633	17006
912.748	16908
912.862	16786
912.976	16626
913.09	16455
913.204	16630
913.318	16626
913.431	16752
913.545	16664
913.659	16687
913.772	16569
913.886	16390
914	16348
914.113	16459
914.226	16519
914.34	16413
914.453	16230
914.566	16440
914.68	16333
914.793	16261
914.906	16063
915.019	15949
915.132	15895
915.245	15983
915.358	15968
915.47	15903
915.583	15979
915.696	16051
915.809	16032
915.921	16067
916.034	15930
916.146	15831
916.259	15873
916.371	15926
916.483	15888
916.595	15808
916.708	15816
916.82	15739
916.932	15781
917.044	15679
917.156	15637
917.268	15523
917.38	15549
917.491	15622
917.603	15568
917.715	15603
917.826	15717
917.938	15511
918.049	15469
918.161	15576
918.272	15629
918.384	15603
918.495	15545
918.606	15454
918.717	15211
918.828	15367
918.939	15279
919.05	15283
919.161	15386
919.272	15180
919.383	15195
919.494	15279
919.604	15511
919.715	15302
919.826	15287
919.936	15287
920.047	15359
920.157	15275
920.267	15519
920.378	15344
920.488	15180
920.598	15447
920.708	15564
920.818	15367
920.928	15424
921.038	15614
921.148	15439
921.258	15203
921.368	15116
921.477	14982
921.587	14872
921.697	14902
921.806	14963
921.916	14788
922.025	14712
922.134	14568
922.244	14678
922.353	14648
922.462	14560
922.571	14507
922.68	14343
922.789	14298
922.898	14313
923.007	14202
923.116	14298
923.224	14309
923.333	14256
923.442	14107
923.55	14096
923.659	14134
923.767	14126
923.876	14100
923.984	14065
924.092	14027
924.201	14031
924.309	13974
924.417	14012
924.525	13925
924.633	13883
924.741	14845
924.849	13655
924.956	13830
925.064	13769
925.172	13586
925.279	13674
925.387	13685
925.494	13575
925.602	13708
925.709	13689
925.816	13483
925.924	13655
926.031	13700
926.138	13533
926.245	13537
926.352	13472
926.459	13544
926.566	13655
926.673	13422
926.779	13308
926.886	13422
926.993	13285
927.099	13137
927.206	13069
927.312	13149
927.419	13133
927.525	13099
927.631	13171
927.737	13046
927.843	13057
927.95	12920
928.056	12981
928.162	13004
928.267	12970
928.373	13658
928.479	13107
928.585	12757
928.69	12882
928.796	12973
928.901	12817
929.007	12707
929.112	12848
929.218	12844
929.323	12772
929.428	12738
929.533	12848
929.638	12669
929.743	12658
929.848	12612
929.953	12665
930.058	12604
930.163	12350
930.267	12254
930.372	12502
930.477	12334
930.581	12528
930.685	12361
930.79	12353
930.894	12292
930.998	12209
931.103	12422
931.207	11889
931.311	11961
931.415	11832
931.519	11653
931.623	11524
