Data from test_V78500241_2703.txt Node
Date: Fri Mar 25 16:00:31 CST 2022
User: usil
Spectrometer: V785-0024
Trigger mode: 0
Integration Time (sec): 4.000000E-1
Scans to average: 1
Nonlinearity correction enabled: false
Boxcar width: 0
Storing dark spectrum: false
XAxis mode: Wavelengths
Number of Pixels in Spectrum: 1024
>>>>>Begin Spectral Data<<<<<
801.071	28615
801.214	28592
801.356	28341
801.499	28135
801.641	28185
801.783	28192
801.926	28135
802.068	28116
802.211	28036
802.353	28120
802.496	27880
802.638	27793
802.78	27850
802.923	27682
803.065	27542
803.208	27751
803.35	27800
803.492	27778
803.635	28010
803.777	27778
803.919	28067
804.061	28341
804.204	28166
804.346	27914
804.488	27873
804.63	27968
804.773	27979
804.915	28112
805.057	28067
805.199	27911
805.341	28295
805.483	28059
805.626	28265
805.768	27998
805.91	28070
806.052	28310
806.194	28112
806.336	28413
806.478	28265
806.62	28230
806.762	28443
806.904	28405
807.046	28862
807.188	28588
807.33	28611
807.472	28611
807.614	28710
807.756	28645
807.898	28527
808.04	28360
808.182	28618
808.324	28455
808.465	28717
808.607	28721
808.749	28892
808.891	28919
809.033	29029
809.174	28908
809.316	28831
809.458	29003
809.6	28854
809.741	28942
809.883	29048
810.025	29140
810.166	29174
810.308	29162
810.45	29044
810.591	29006
810.733	28904
810.875	28816
811.016	28858
811.158	28767
811.299	29090
811.441	29143
811.582	29056
811.724	28858
811.865	28828
812.007	28908
812.148	28968
812.29	29025
812.431	29170
812.573	29375
812.714	29193
812.855	29364
812.997	29478
813.138	29608
813.279	29486
813.421	29353
813.562	29292
813.703	29132
813.845	29136
813.986	28824
814.127	28812
814.268	28550
814.41	28691
814.551	28550
814.692	28550
814.833	28409
814.974	28542
815.115	28687
815.256	28394
815.397	28554
815.539	28356
815.68	28341
815.821	28234
815.962	28291
816.103	28428
816.244	28341
816.385	28265
816.526	28109
816.666	27903
816.807	27728
816.948	28017
817.089	28093
817.23	27899
817.371	27804
817.512	27941
817.653	27800
817.793	27850
817.934	27865
818.075	27816
818.216	27854
818.356	27968
818.497	27682
818.638	27572
818.778	27690
818.919	27591
819.06	27774
819.2	27720
819.341	27846
819.481	27854
819.622	28036
819.762	28177
819.903	28246
820.043	28059
820.184	28128
820.324	27991
820.465	28040
820.605	28002
820.746	28036
820.886	27857
821.026	27922
821.167	27918
821.307	28124
821.447	27880
821.588	27823
821.728	27682
821.868	27587
822.008	27348
822.149	27355
822.289	27469
822.429	27135
822.569	27096
822.709	26986
822.849	26887
822.99	26788
823.13	26765
823.27	26826
823.41	26689
823.55	26571
823.69	26651
823.83	26724
823.97	26571
824.11	26530
824.25	26408
824.389	26583
824.529	26579
824.669	26473
824.809	26587
824.949	26693
825.089	26617
825.228	26526
825.368	26492
825.508	26431
825.648	26389
825.787	26499
825.927	26564
826.067	26381
826.206	26404
826.346	26400
826.485	26484
826.625	26434
826.765	26438
826.904	26453
827.044	26225
827.183	26172
827.323	26164
827.462	26225
827.601	26202
827.741	26122
827.88	26157
828.02	26027
828.159	26050
828.298	26103
828.437	26290
828.577	25966
828.716	26275
828.855	26134
828.994	25803
829.134	25830
829.273	25746
829.412	25769
829.551	25765
829.69	25780
829.829	25807
829.968	25860
830.107	25932
830.246	25955
830.385	25753
830.524	25647
830.663	25575
830.802	25613
830.941	25434
831.08	25453
831.219	25476
831.357	25674
831.496	25639
831.635	25422
831.774	25331
831.913	25228
832.051	25244
832.19	25175
832.329	25156
832.467	25137
832.606	25046
832.744	25034
832.883	25046
833.022	24951
833.16	25027
833.299	25015
833.437	25076
833.576	25217
833.714	25209
833.852	25164
833.991	25289
834.129	25293
834.267	25194
834.406	25164
834.544	25244
834.682	25145
834.821	25175
834.959	25168
835.097	25050
835.235	25244
835.373	25213
835.511	25129
835.65	25008
835.788	25126
835.926	24859
836.064	24757
836.202	24730
836.34	24954
836.478	25008
836.615	25080
836.753	24943
836.891	25129
837.029	24886
837.167	24985
837.305	24814
837.443	24798
837.58	24848
837.718	24913
837.856	24859
837.993	24779
838.131	24844
838.269	24608
838.406	24658
838.544	24753
838.681	24433
838.819	24388
838.956	24171
839.094	24243
839.231	24327
839.369	24410
839.506	24620
839.643	24623
839.781	24319
839.918	24201
840.055	24163
840.193	24300
840.33	24117
840.467	24098
840.604	24262
840.742	24479
840.879	24068
841.016	24091
841.153	24114
841.29	24365
841.427	24140
841.564	24167
841.701	24216
841.838	24152
841.975	24041
842.112	24140
842.249	24041
842.385	23950
842.522	24235
842.659	24068
842.796	23863
842.933	23912
843.069	23840
843.206	23893
843.343	23954
843.479	23908
843.616	23920
843.752	23718
843.889	23882
844.025	23870
844.162	23729
844.298	23771
844.435	23619
844.571	23592
844.708	23756
844.844	23802
844.98	23935
845.117	23882
845.253	23646
845.389	23604
845.525	23551
845.661	23611
845.798	23455
845.934	23592
846.07	23406
846.206	23417
846.342	23627
846.478	23379
846.614	23277
846.75	23102
846.886	23121
847.022	23151
847.158	23136
847.294	23151
847.429	23151
847.565	23204
847.701	23398
847.837	22850
847.972	22927
848.108	22961
848.244	22999
848.379	22733
848.515	22706
848.65	22797
848.786	22790
848.921	22889
849.057	22843
849.192	22805
849.328	22816
849.463	22759
849.598	22622
849.734	22649
849.869	22637
850.004	22584
850.14	22550
850.275	22535
850.41	22402
850.545	22405
850.68	22474
850.815	22660
850.95	22588
851.085	22774
851.22	22706
851.355	22584
851.49	22519
851.625	22417
851.76	22451
851.895	22523
852.03	22500
852.165	22493
852.299	22607
852.434	22607
852.569	22519
852.703	22569
852.838	22550
852.973	22603
853.107	22702
853.242	22493
853.376	22474
853.511	22223
853.645	22348
853.78	22493
853.914	22451
854.048	22386
854.183	22447
854.317	22386
854.451	22546
854.585	22493
854.72	22371
854.854	22333
854.988	22204
855.122	22367
855.256	22109
855.39	22466
855.524	22432
855.658	22451
855.792	22413
855.926	22386
856.06	22508
856.194	22481
856.327	22348
856.461	22344
856.595	22295
856.729	22314
856.862	22508
856.996	22500
857.13	22398
857.263	22360
857.397	22478
857.53	22379
857.664	22516
857.797	22519
857.931	22550
858.064	22333
858.197	22447
858.331	22363
858.464	22363
858.597	22341
858.731	22344
858.864	22318
858.997	22310
859.13	22379
859.263	22344
859.396	22352
859.529	22287
859.662	22360
859.795	22421
859.928	22360
860.061	22440
860.194	22531
860.327	22447
860.46	22470
860.592	22516
860.725	22523
860.858	22535
860.99	22390
861.123	22325
861.256	22398
861.388	22268
861.521	23143
861.653	22188
861.786	22154
861.918	22219
862.05	22192
862.183	22291
862.315	22207
862.447	22386
862.58	22257
862.712	22112
862.844	21998
862.976	22177
863.108	22124
863.24	22462
863.372	22059
863.504	22048
863.636	22166
863.768	22185
863.9	22196
864.032	22040
864.164	22044
864.296	22097
864.428	22253
864.559	22101
864.691	22173
864.823	21991
864.954	22051
865.086	22059
865.217	22021
865.349	21922
865.48	21941
865.612	21987
865.743	22169
865.875	21895
866.006	21937
866.137	21953
866.269	21876
866.4	21983
866.531	21964
866.662	21797
866.793	21835
866.924	21930
867.055	21956
867.186	21907
867.317	21873
867.448	21876
867.579	21766
867.71	21827
867.841	21823
867.972	21903
868.103	21797
868.233	21926
868.364	21926
868.495	21968
868.625	22044
868.756	22135
868.886	21941
869.017	21987
869.147	22219
869.278	22299
869.408	22147
869.539	22090
869.669	22238
869.799	22090
869.929	22173
870.06	22276
870.19	22466
870.32	22489
870.45	22516
870.58	22470
870.71	22687
870.84	22565
870.97	22542
871.1	22569
871.23	22778
871.36	22611
871.489	22523
871.619	22649
871.749	22679
871.879	22927
872.008	22740
872.138	22805
872.267	22721
872.397	22668
872.526	22394
872.656	22569
872.785	22535
872.915	22755
873.044	22854
873.173	22683
873.303	22873
873.432	22729
873.561	22801
873.69	22729
873.819	22706
873.948	22664
874.077	22607
874.206	22740
874.335	22805
874.464	22881
874.593	22976
874.722	23067
874.851	22881
874.979	22911
875.108	23018
875.237	22919
875.365	22847
875.494	22991
875.623	23041
875.751	22873
875.88	22995
876.008	23010
876.136	23288
876.265	23414
876.393	23509
876.521	23425
876.65	23455
876.778	23440
876.906	23223
877.034	23341
877.162	23376
877.29	23242
877.418	23341
877.546	23296
877.674	23277
877.802	23277
877.93	23341
878.058	23250
878.185	23246
878.313	23155
878.441	23216
878.568	23193
878.696	23174
878.824	23368
878.951	23356
879.079	23463
879.206	23653
879.333	23452
879.461	23383
879.588	23414
879.715	23505
879.842	23493
879.97	23337
880.097	23277
880.224	23086
880.351	23200
880.478	23299
880.605	22995
880.732	23071
880.859	23315
880.986	23113
881.112	23185
881.239	22965
881.366	22934
881.493	22717
881.619	22653
881.746	22858
881.872	22664
881.999	22611
882.125	22679
882.252	22790
882.378	22702
882.505	22725
882.631	22504
882.757	22455
882.883	22535
883.01	22333
883.136	22242
883.262	22192
883.388	22200
883.514	22226
883.64	22295
883.766	22257
883.892	22276
884.018	22185
884.143	22367
884.269	22428
884.395	22086
884.52	21956
884.646	22082
884.772	21972
884.897	21842
885.023	22013
885.148	22048
885.274	22177
885.399	22097
885.524	22051
885.65	22017
885.775	21998
885.9	22036
886.025	21994
886.15	22120
886.275	21869
886.4	21918
886.525	22067
886.65	21937
886.775	22021
886.9	22112
887.025	22268
887.149	21857
887.274	21899
887.399	21743
887.523	21736
887.648	21797
887.773	21728
887.897	21705
888.021	21694
888.146	21675
888.27	21838
888.395	21888
888.519	21762
888.643	21709
888.767	21797
888.891	21557
889.015	21538
889.139	21652
889.263	21606
889.387	21637
889.511	21781
889.635	21606
889.759	21549
889.883	21504
890.006	21549
890.13	21629
890.254	21492
890.377	21504
890.501	21317
890.624	21195
890.748	21454
890.871	21241
890.995	21020
891.118	20994
891.241	21142
891.364	20998
891.488	21256
891.611	21070
891.734	21131
891.857	21077
891.98	21066
892.103	21127
892.226	20990
892.349	21150
892.471	20975
892.594	20986
892.717	21135
892.839	20895
892.962	20960
893.085	20918
893.207	21077
893.33	20826
893.452	20830
893.575	20990
893.697	20933
893.819	21093
893.941	21131
894.064	21123
894.186	20876
894.308	20769
894.43	21009
894.552	21081
894.674	21085
894.796	20910
894.918	20979
895.04	20914
895.161	20998
895.283	20902
895.405	21074
895.526	21039
895.648	21036
895.769	20956
895.891	21074
896.012	21074
896.134	21039
896.255	21001
896.376	20960
896.498	20921
896.619	20933
896.74	21032
896.861	20963
896.982	21245
897.103	21443
897.224	21188
897.345	21108
897.466	21135
897.587	21150
897.708	21359
897.828	21199
897.949	21157
898.07	21013
898.19	21039
898.311	21203
898.431	21077
898.552	21230
898.672	21348
898.792	21180
898.913	21081
899.033	21093
899.153	20902
899.273	20727
899.393	20880
899.513	20857
899.633	20891
899.753	20918
899.873	20941
899.993	20986
900.113	20891
900.232	20769
900.352	20800
900.472	20651
900.591	20598
900.711	20705
900.83	20629
900.95	20823
901.069	20693
901.189	20514
901.308	20332
901.427	20225
901.546	20202
901.665	20259
901.784	20240
901.904	20115
902.023	20111
902.141	19769
902.26	19845
902.379	19830
902.498	19681
902.617	19704
902.735	19738
902.854	19693
902.973	19662
903.091	19422
903.21	19362
903.328	19403
903.446	19217
903.565	19209
903.683	19274
903.801	19027
903.919	19152
904.038	19080
904.156	19027
904.274	19012
904.392	18814
904.51	19008
904.627	18894
904.745	19015
904.863	18894
904.981	18776
905.098	18654
905.216	18681
905.334	18635
905.451	18559
905.569	18601
905.686	18688
905.803	18661
905.921	18494
906.038	18452
906.155	18532
906.272	18308
906.389	18315
906.506	18076
906.623	18171
906.74	18076
906.857	18038
906.974	18106
907.091	18209
907.208	18254
907.324	18163
907.441	17984
907.557	17870
907.674	17813
907.79	17809
907.907	17942
908.023	17843
908.139	17813
908.256	17779
908.372	17703
908.488	17733
908.604	17604
908.72	17497
908.836	17596
908.952	17668
909.068	17615
909.184	17596
909.3	17596
909.415	17649
909.531	17558
909.647	17459
909.762	17254
909.878	17269
909.993	17212
910.108	17265
910.224	17258
910.339	17166
910.454	17166
910.57	17147
910.685	17064
910.8	17334
910.915	17212
911.03	17014
911.145	16850
911.259	16850
911.374	16885
911.489	16809
911.604	16774
911.718	16573
911.833	16603
911.947	16462
912.062	16474
912.176	16512
912.291	16561
912.405	16599
912.519	16801
912.633	16759
912.748	16729
912.862	16497
912.976	16497
913.09	16322
913.204	16402
913.318	16497
913.431	16481
913.545	16459
913.659	16519
913.772	16348
913.886	16268
914	16139
914.113	16341
914.226	16314
914.34	16246
914.453	16124
914.566	16181
914.68	16067
914.793	16086
914.906	15880
915.019	15850
915.132	15728
915.245	15766
915.358	15804
915.47	15770
915.583	15800
915.696	15846
915.809	15865
915.921	15949
916.034	15720
916.146	15637
916.259	15568
916.371	15720
916.483	15633
916.595	15660
916.708	15641
916.82	15603
916.932	15675
917.044	15701
917.156	15523
917.268	15450
917.38	15504
917.491	15542
917.603	15447
917.715	15473
917.826	15542
917.938	15317
918.049	15245
918.161	15329
918.272	15454
918.384	15435
918.495	15340
918.606	15188
918.717	15131
918.828	15188
918.939	15233
919.05	15116
919.161	15108
919.272	14982
919.383	15043
919.494	15157
919.604	15310
919.715	15116
919.826	15017
919.936	15085
920.047	15222
920.157	15211
920.267	15325
920.378	15146
920.488	15116
920.598	15302
920.708	15568
920.818	15268
920.928	15192
921.038	15435
921.148	15393
921.258	15127
921.368	14990
921.477	14880
921.587	14842
921.697	14705
921.806	14849
921.916	14708
922.025	14579
922.134	14434
922.244	14377
922.353	14526
922.462	14381
922.571	14286
922.68	14107
922.789	14081
922.898	14073
923.007	14130
923.116	14180
923.224	14180
923.333	14259
923.442	13875
923.55	13947
923.659	13974
923.767	14012
923.876	13860
923.984	13955
924.092	13837
924.201	13852
924.309	13837
924.417	13894
924.525	13761
924.633	13772
924.741	14663
924.849	13594
924.956	13620
925.064	13514
925.172	13460
925.279	13506
925.387	13575
925.494	13476
925.602	13533
925.709	13502
925.816	13407
925.924	13464
926.031	13578
926.138	13362
926.245	13487
926.352	13285
926.459	13472
926.566	13537
926.673	13426
926.779	13263
926.886	13308
926.993	13129
927.099	13061
927.206	13000
927.312	13027
927.419	13072
927.525	12977
927.631	13015
927.737	12970
927.843	12966
927.95	12738
928.056	12821
928.162	12913
928.267	12905
928.373	13483
928.479	12932
928.585	12700
928.69	12825
928.796	12840
928.901	12764
929.007	12547
929.112	12684
929.218	12703
929.323	12578
929.428	12585
929.533	12696
929.638	12578
929.743	12502
929.848	12490
929.953	12544
930.058	12403
930.163	12167
930.267	12353
930.372	12414
930.477	12182
930.581	12330
930.685	12319
930.79	12133
930.894	12163
930.998	12121
931.103	12228
931.207	11859
931.311	11863
931.415	11714
931.519	11558
931.623	11551
