Data from test_V78500241_2757.txt Node
Date: Fri Mar 25 16:00:53 CST 2022
User: usil
Spectrometer: V785-0024
Trigger mode: 0
Integration Time (sec): 4.000000E-1
Scans to average: 1
Nonlinearity correction enabled: false
Boxcar width: 0
Storing dark spectrum: false
XAxis mode: Wavelengths
Number of Pixels in Spectrum: 1024
>>>>>Begin Spectral Data<<<<<
801.071	28957
801.214	28820
801.356	28683
801.499	28634
801.641	28599
801.783	28401
801.926	28546
802.068	28538
802.211	28386
802.353	28470
802.496	28303
802.638	28219
802.78	28181
802.923	28310
803.065	28063
803.208	28021
803.35	28150
803.492	28303
803.635	28459
803.777	28341
803.919	28424
804.061	28752
804.204	28440
804.346	28432
804.488	28352
804.63	28466
804.773	28500
804.915	28504
805.057	28615
805.199	28531
805.341	28512
805.483	28599
805.626	28649
805.768	28668
805.91	28584
806.052	28702
806.194	28398
806.336	28641
806.478	28717
806.62	28748
806.762	28713
806.904	28885
807.046	29128
807.188	29223
807.33	29121
807.472	29178
807.614	28930
807.756	29014
807.898	28915
808.04	28809
808.182	28896
808.324	29052
808.465	29041
808.607	29098
808.749	29383
808.891	29402
809.033	29562
809.174	29349
809.316	29284
809.458	29292
809.6	29402
809.741	29345
809.883	29577
810.025	29566
810.166	29642
810.308	29646
810.45	29512
810.591	29570
810.733	29368
810.875	29341
811.016	29250
811.158	29261
811.299	29478
811.441	29585
811.582	29467
811.724	29471
811.865	29402
812.007	29395
812.148	29330
812.29	29421
812.431	29535
812.573	29752
812.714	29843
812.855	29764
812.997	29916
813.138	30133
813.279	30034
813.421	29992
813.562	29942
813.703	29726
813.845	29512
813.986	29356
814.127	29261
814.268	29056
814.41	29162
814.551	28987
814.692	29128
814.833	29094
814.974	29060
815.115	29121
815.256	28991
815.397	28904
815.539	28896
815.68	28869
815.821	28862
815.962	28843
816.103	28904
816.244	28809
816.385	28489
816.526	28565
816.666	28375
816.807	28447
816.948	28470
817.089	28500
817.23	28474
817.371	28325
817.512	28238
817.653	28478
817.793	28459
817.934	28337
818.075	28348
818.216	28413
818.356	28390
818.497	28295
818.638	28070
818.778	28196
818.919	28284
819.06	28318
819.2	28489
819.341	28478
819.481	28352
819.622	28527
819.762	28630
819.903	28626
820.043	28557
820.184	28569
820.324	28672
820.465	28660
820.605	28390
820.746	28474
820.886	28360
821.026	28451
821.167	28428
821.307	28596
821.447	28462
821.588	28303
821.728	28303
821.868	28051
822.008	27880
822.149	27899
822.289	27838
822.429	27545
822.569	27580
822.709	27603
822.849	27504
822.99	27564
823.13	27268
823.27	27298
823.41	27287
823.55	27165
823.69	27119
823.83	27188
823.97	27070
824.11	26986
824.25	26986
824.389	27138
824.529	27142
824.669	27157
824.809	27230
824.949	27218
825.089	27077
825.228	27150
825.368	26883
825.508	27020
825.648	26830
825.787	26933
825.927	27043
826.067	26800
826.206	26918
826.346	26895
826.485	27093
826.625	26910
826.765	27096
826.904	26902
827.044	26701
827.183	26815
827.323	26678
827.462	26777
827.601	26678
827.741	26625
827.88	26587
828.02	26522
828.159	26640
828.298	26583
828.437	26705
828.577	26621
828.716	26701
828.855	26579
828.994	26336
829.134	26294
829.273	26415
829.412	26324
829.551	26355
829.69	26336
829.829	26301
829.968	26336
830.107	26301
830.246	26393
830.385	26336
830.524	26275
830.663	26142
830.802	26092
830.941	25940
831.08	25898
831.219	25940
831.357	25947
831.496	26145
831.635	25982
831.774	25879
831.913	25757
832.051	25795
832.19	25681
832.329	25757
832.467	25571
832.606	25616
832.744	25647
832.883	25548
833.022	25552
833.16	25662
833.299	25712
833.437	25533
833.576	25689
833.714	25655
833.852	25597
833.991	25620
834.129	25708
834.267	25772
834.406	25715
834.544	25651
834.682	25685
834.821	25757
834.959	25852
835.097	25556
835.235	25719
835.373	25632
835.511	25761
835.65	25445
835.788	25510
835.926	25289
836.064	25247
836.202	25426
836.34	25434
836.478	25620
836.615	25491
836.753	25438
836.891	25628
837.029	25487
837.167	25453
837.305	25422
837.443	25320
837.58	25362
837.718	25396
837.856	25350
837.993	25289
838.131	25365
838.269	25114
838.406	25221
838.544	25141
838.681	24947
838.819	24916
838.956	24848
839.094	24722
839.231	24878
839.369	24924
839.506	25095
839.643	25042
839.781	24734
839.918	24757
840.055	24817
840.193	24760
840.33	24661
840.467	24787
840.604	24700
840.742	24981
840.879	24582
841.016	24703
841.153	24681
841.29	24635
841.427	24665
841.564	24821
841.701	24639
841.838	24623
841.975	24646
842.112	24631
842.249	24479
842.385	24395
842.522	24650
842.659	24483
842.796	24566
842.933	24494
843.069	24380
843.206	24315
843.343	24437
843.479	24528
843.616	24445
843.752	24254
843.889	24258
844.025	24338
844.162	24174
844.298	24372
844.435	24262
844.571	24072
844.708	24243
844.844	24346
844.98	24281
845.117	24311
845.253	24201
845.389	24087
845.525	24140
845.661	24064
845.798	23935
845.934	24072
846.07	24068
846.206	23931
846.342	24167
846.478	23965
846.614	23672
846.75	23566
846.886	23608
847.022	23729
847.158	23699
847.294	23665
847.429	23718
847.565	23501
847.701	24026
847.837	23490
847.972	23368
848.108	23524
848.244	23459
848.379	23337
848.515	23277
848.65	23292
848.786	23303
848.921	23296
849.057	23349
849.192	23372
849.328	23349
849.463	23265
849.598	23079
849.734	23212
849.869	23132
850.004	23090
850.14	22930
850.275	22965
850.41	22885
850.545	22919
850.68	22999
850.815	23075
850.95	23025
851.085	23174
851.22	23231
851.355	23056
851.49	22961
851.625	23094
851.76	22953
851.895	22885
852.03	22968
852.165	23056
852.299	23052
852.434	23094
852.569	22946
852.703	22961
852.838	22987
852.973	23159
853.107	23174
853.242	22908
853.376	22740
853.511	22824
853.645	22889
853.78	23033
853.914	22782
854.048	22896
854.183	22755
854.317	22881
854.451	22915
854.585	22942
854.72	22774
854.854	22900
854.988	22706
855.122	22957
855.256	22683
855.39	22843
855.524	23014
855.658	22847
855.792	22877
855.926	22927
856.06	22820
856.194	22786
856.327	22824
856.461	22782
856.595	22820
856.729	22892
856.862	22892
856.996	22953
857.13	22923
857.263	23048
857.397	22873
857.53	22843
857.664	22839
857.797	22889
857.931	22896
858.064	22854
858.197	22942
858.331	22892
858.464	22824
858.597	22660
858.731	22759
858.864	22885
858.997	22755
859.13	22702
859.263	22881
859.396	22908
859.529	22767
859.662	22759
859.795	22858
859.928	22866
860.061	22968
860.194	23033
860.327	22896
860.46	22946
860.592	23025
860.725	23086
860.858	22938
860.99	22771
861.123	22725
861.256	22771
861.388	22805
861.521	23566
861.653	22755
861.786	22687
861.918	22679
862.05	22702
862.183	22759
862.315	22691
862.447	22809
862.58	22679
862.712	22603
862.844	22554
862.976	22626
863.108	22611
863.24	23022
863.372	22402
863.504	22584
863.636	22645
863.768	22668
863.9	22497
864.032	22592
864.164	22569
864.296	22459
864.428	22611
864.559	22519
864.691	22645
864.823	22542
864.954	22599
865.086	22592
865.217	22554
865.349	22443
865.48	22382
865.612	22382
865.743	22508
865.875	22538
866.006	22538
866.137	22447
866.269	22436
866.4	22462
866.531	22375
866.662	22390
866.793	22322
866.924	22504
867.055	22409
867.186	22375
867.317	22314
867.448	22276
867.579	22242
867.71	22318
867.841	22291
867.972	22379
868.103	22367
868.233	22363
868.364	22386
868.495	22504
868.625	22577
868.756	22691
868.886	22516
869.017	22706
869.147	22622
869.278	22744
869.408	22592
869.539	22550
869.669	22618
869.799	22755
869.929	22828
870.06	22713
870.19	22892
870.32	22934
870.45	23025
870.58	23105
870.71	23181
870.84	23067
870.97	22957
871.1	22927
871.23	23128
871.36	23288
871.489	23018
871.619	23200
871.749	23037
871.879	23296
872.008	23212
872.138	23212
872.267	23273
872.397	23060
872.526	22976
872.656	23048
872.785	22987
872.915	23299
873.044	23239
873.173	23254
873.303	23086
873.432	23258
873.561	23235
873.69	23337
873.819	23147
873.948	23242
874.077	23277
874.206	23284
874.335	23216
874.464	23349
874.593	23478
874.722	23414
874.851	23490
874.979	23520
875.108	23474
875.237	23284
875.365	23208
875.494	23379
875.623	23573
875.751	23398
875.88	23501
876.008	23627
876.136	23554
876.265	23893
876.393	23954
876.521	23973
876.65	23840
876.778	23904
876.906	23821
877.034	23756
877.162	23771
877.29	23581
877.418	23794
877.546	23729
877.674	23790
877.802	23752
877.93	23745
878.058	23737
878.185	23646
878.313	23783
878.441	23748
878.568	23543
878.696	23589
878.824	23775
878.951	23916
879.079	23984
879.206	23980
879.333	23946
879.461	23942
879.588	23832
879.715	23935
879.842	24022
879.97	23790
880.097	23570
880.224	23474
880.351	23547
880.478	23657
880.605	23566
880.732	23570
880.859	23874
880.986	23634
881.112	23547
881.239	23474
881.366	23288
881.493	23197
881.619	22904
881.746	23181
881.872	23117
881.999	23098
882.125	23048
882.252	23174
882.378	23075
882.505	23231
882.631	22839
882.757	22938
882.883	22938
883.01	22858
883.136	22702
883.262	22622
883.388	22596
883.514	22706
883.64	22733
883.766	22561
883.892	22675
884.018	22615
884.143	22729
884.269	22873
884.395	22554
884.52	22257
884.646	22424
884.772	22432
884.897	22356
885.023	22352
885.148	22573
885.274	22466
885.399	22405
885.524	22443
885.65	22432
885.775	22440
885.9	22402
886.025	22519
886.15	22523
886.275	22329
886.4	22223
886.525	22341
886.65	22310
886.775	22310
886.9	22580
887.025	22580
887.149	22344
887.274	22101
887.399	22196
887.523	22215
887.648	22173
887.773	22040
887.897	22192
888.021	22162
888.146	22154
888.27	22234
888.395	22185
888.519	22257
888.643	22185
888.767	22295
888.891	22025
889.015	21975
889.139	22017
889.263	21861
889.387	22131
889.511	22128
889.635	22177
889.759	21991
889.883	21937
890.006	21960
890.13	22097
890.254	21884
890.377	21854
890.501	21819
890.624	21793
890.748	21781
890.871	21519
890.995	21515
891.118	21496
891.241	21591
891.364	21473
891.488	21644
891.611	21504
891.734	21629
891.857	21530
891.98	21439
892.103	21545
892.226	21564
892.349	21431
892.471	21332
892.594	21519
892.717	21408
892.839	21355
892.962	21428
893.085	21443
893.207	21447
893.33	21302
893.452	21317
893.575	21435
893.697	21344
893.819	21496
893.941	21606
894.064	21511
894.186	21332
894.308	21294
894.43	21420
894.552	21534
894.674	21370
894.796	21336
894.918	21386
895.04	21397
895.161	21447
895.283	21386
895.405	21287
895.526	21389
895.648	21382
895.769	21435
895.891	21515
896.012	21523
896.134	21325
896.255	21469
896.376	21363
896.498	21382
896.619	21477
896.74	21424
896.861	21462
896.982	21545
897.103	21759
897.224	21572
897.345	21545
897.466	21625
897.587	21652
897.708	21755
897.828	21679
897.949	21458
898.07	21485
898.19	21515
898.311	21526
898.431	21500
898.552	21504
898.672	21614
898.792	21667
898.913	21682
899.033	21405
899.153	21344
899.273	21207
899.393	21279
899.513	21367
899.633	21184
899.753	21256
899.873	21226
899.993	21359
900.113	21233
900.232	21226
900.352	21043
900.472	21085
900.591	21024
900.711	21051
900.83	20944
900.95	21085
901.069	21077
901.189	20948
901.308	20629
901.427	20602
901.546	20663
901.665	20712
901.784	20750
901.904	20511
902.023	20271
902.141	20084
902.26	20218
902.379	20218
902.498	20252
902.617	20077
902.735	20111
902.854	20142
902.973	19986
903.091	19894
903.21	19845
903.328	19734
903.446	19677
903.565	19624
903.683	19506
903.801	19491
903.919	19525
904.038	19552
904.156	19312
904.274	19354
904.392	19274
904.51	19187
904.627	19354
904.745	19331
904.863	19312
904.981	19080
905.098	18951
905.216	19023
905.334	19027
905.451	18958
905.569	18993
905.686	19000
905.803	19107
905.921	18810
906.038	18852
906.155	18772
906.272	18703
906.389	18741
906.506	18486
906.623	18616
906.74	18479
906.857	18448
906.974	18471
907.091	18547
907.208	18551
907.324	18608
907.441	18353
907.557	18266
907.674	18216
907.79	18034
907.907	18254
908.023	18174
908.139	18350
908.256	18155
908.372	18182
908.488	18003
908.604	17931
908.72	17916
908.836	17870
908.952	17855
909.068	17950
909.184	18186
909.3	17973
909.415	17878
909.531	17950
909.647	17657
909.762	17634
909.878	17642
909.993	17566
910.108	17577
910.224	17543
910.339	17505
910.454	17474
910.57	17478
910.685	17307
910.8	17634
910.915	17512
911.03	17482
911.145	17250
911.259	17181
911.374	17178
911.489	17200
911.604	17041
911.718	16854
911.833	16869
911.947	16847
912.062	16805
912.176	16980
912.291	16984
912.405	17014
912.519	17159
912.633	17060
912.748	17041
912.862	16946
912.976	16820
913.09	16588
913.204	16683
913.318	16729
913.431	16816
913.545	16885
913.659	16835
913.772	16710
913.886	16641
914	16580
914.113	16630
914.226	16656
914.34	16599
914.453	16413
914.566	16565
914.68	16398
914.793	16379
914.906	16211
915.019	16131
915.132	16048
915.245	16169
915.358	16097
915.47	16044
915.583	16044
915.696	16131
915.809	16154
915.921	16188
916.034	16139
916.146	15994
916.259	16029
916.371	16074
916.483	16002
916.595	15899
916.708	15945
916.82	15953
916.932	15838
917.044	15846
917.156	15876
917.268	15720
917.38	15774
917.491	15690
917.603	15679
917.715	15709
917.826	15930
917.938	15580
918.049	15603
918.161	15625
918.272	15819
918.384	15686
918.495	15644
918.606	15485
918.717	15496
918.828	15477
918.939	15485
919.05	15287
919.161	15393
919.272	15230
919.383	15222
919.494	15401
919.604	15587
919.715	15469
919.826	15203
919.936	15370
920.047	15370
920.157	15363
920.267	15606
920.378	15386
920.488	15370
920.598	15591
920.708	15660
920.818	15542
920.928	15477
921.038	15701
921.148	15519
921.258	15340
921.368	15291
921.477	15123
921.587	15123
921.697	14906
921.806	15081
921.916	14948
922.025	14716
922.134	14815
922.244	14655
922.353	14781
922.462	14590
922.571	14530
922.68	14473
922.789	14389
922.898	14385
923.007	14324
923.116	14415
923.224	14362
923.333	14305
923.442	14214
923.55	14187
923.659	14229
923.767	14244
923.876	14092
923.984	14206
924.092	14168
924.201	14115
924.309	14092
924.417	14123
924.525	14001
924.633	14012
924.741	14986
924.849	13818
924.956	13860
925.064	13845
925.172	13734
925.279	13753
925.387	13746
925.494	13704
925.602	13898
925.709	13811
925.816	13696
925.924	13674
926.031	13715
926.138	13696
926.245	13772
926.352	13609
926.459	13685
926.566	13708
926.673	13632
926.779	13499
926.886	13445
926.993	13369
927.099	13293
927.206	13270
927.312	13308
927.419	13259
927.525	13278
927.631	13343
927.737	13137
927.843	13110
927.95	13091
928.056	13114
928.162	13004
928.267	13183
928.373	13647
928.479	13187
928.585	12890
928.69	13008
928.796	13091
928.901	12977
929.007	12829
929.112	12943
929.218	12932
929.323	12916
929.428	12848
929.533	12886
929.638	12810
929.743	12722
929.848	12772
929.953	12768
930.058	12665
930.163	12502
930.267	12483
930.372	12574
930.477	12410
930.581	12703
930.685	12475
930.79	12350
930.894	12296
930.998	12232
931.103	12494
931.207	12148
931.311	12019
931.415	11866
931.519	11661
931.623	11661
