Data from test_V78500241_1374.txt Node
Date: Fri Mar 25 15:51:19 CST 2022
User: usil
Spectrometer: V785-0024
Trigger mode: 0
Integration Time (sec): 4.000000E-1
Scans to average: 1
Nonlinearity correction enabled: false
Boxcar width: 0
Storing dark spectrum: false
XAxis mode: Wavelengths
Number of Pixels in Spectrum: 1024
>>>>>Begin Spectral Data<<<<<
801.071	28215
801.214	28154
801.356	27998
801.499	27873
801.641	27766
801.783	27793
801.926	27907
802.068	27842
802.211	27979
802.353	27622
802.496	27603
802.638	27405
802.78	27443
802.923	27504
803.065	27344
803.208	27416
803.35	27557
803.492	27572
803.635	27743
803.777	27690
803.919	27789
804.061	28101
804.204	27800
804.346	27641
804.488	27625
804.63	27686
804.773	27629
804.915	27717
805.057	27911
805.199	27633
805.341	27831
805.483	27934
805.626	27827
805.768	27762
805.91	27774
806.052	28002
806.194	27941
806.336	27998
806.478	27945
806.62	27914
806.762	28029
806.904	28150
807.046	28421
807.188	28363
807.33	28424
807.472	28314
807.614	28451
807.756	28318
807.898	28112
808.04	28097
808.182	28093
808.324	28249
808.465	28257
808.607	28379
808.749	28421
808.891	28535
809.033	28653
809.174	28485
809.316	28611
809.458	28447
809.6	28508
809.741	28584
809.883	28721
810.025	28748
810.166	28759
810.308	28820
810.45	28946
810.591	28721
810.733	28554
810.875	28584
811.016	28603
811.158	28344
811.299	28538
811.441	28698
811.582	28679
811.724	28573
811.865	28504
812.007	28504
812.148	28516
812.29	28561
812.431	28672
812.573	28850
812.714	28888
812.855	29102
812.997	29025
813.138	29459
813.279	29235
813.421	29151
813.562	28980
813.703	28828
813.845	28972
813.986	28504
814.127	28352
814.268	28280
814.41	28257
814.551	28310
814.692	28394
814.833	28348
814.974	28093
815.115	28257
815.256	28059
815.397	28063
815.539	28154
815.68	27960
815.821	28128
815.962	27979
816.103	27903
816.244	27846
816.385	27835
816.526	27831
816.666	27610
816.807	27481
816.948	27641
817.089	27652
817.23	27492
817.371	27606
817.512	27686
817.653	27572
817.793	27420
817.934	27485
818.075	27538
818.216	27420
818.356	27443
818.497	27382
818.638	27287
818.778	27317
818.919	27188
819.06	27351
819.2	27454
819.341	27530
819.481	27557
819.622	27679
819.762	27865
819.903	27759
820.043	27622
820.184	27599
820.324	27587
820.465	27736
820.605	27732
820.746	27641
820.886	27534
821.026	27557
821.167	27492
821.307	27709
821.447	27572
821.588	27427
821.728	27336
821.868	27138
822.008	26925
822.149	27039
822.289	27104
822.429	26716
822.569	26655
822.709	26613
822.849	26579
822.99	26484
823.13	26476
823.27	26488
823.41	26423
823.55	26294
823.69	26404
823.83	26332
823.97	26336
824.11	26187
824.25	26202
824.389	26164
824.529	26256
824.669	26065
824.809	26275
824.949	26278
825.089	26336
825.228	26237
825.368	26043
825.508	25944
825.648	26100
825.787	25978
825.927	26115
826.067	25993
826.206	26183
826.346	26008
826.485	26122
826.625	26054
826.765	26164
826.904	26088
827.044	25799
827.183	25784
827.323	25814
827.462	25852
827.601	25818
827.741	25826
827.88	25940
828.02	25742
828.159	25651
828.298	25693
828.437	25913
828.577	25833
828.716	25734
828.855	25647
828.994	25479
829.134	25464
829.273	25514
829.412	25483
829.551	25350
829.69	25411
829.829	25476
829.968	25525
830.107	25499
830.246	25392
830.385	25362
830.524	25430
830.663	25209
830.802	25148
830.941	25046
831.08	25019
831.219	24985
831.357	25194
831.496	25247
831.635	24989
831.774	24989
831.913	24810
832.051	24890
832.19	24798
832.329	24837
832.467	24776
832.606	24585
832.744	24825
832.883	24677
833.022	24688
833.16	24791
833.299	24612
833.437	24711
833.576	24837
833.714	24760
833.852	24932
833.991	24901
834.129	24932
834.267	24814
834.406	24829
834.544	24867
834.682	24798
834.821	24798
834.959	24905
835.097	24715
835.235	24837
835.373	24798
835.511	24772
835.65	24608
835.788	24696
835.926	24532
836.064	24502
836.202	24517
836.34	24635
836.478	24814
836.615	24601
836.753	24661
836.891	24776
837.029	24658
837.167	24498
837.305	24540
837.443	24483
837.58	24285
837.718	24563
837.856	24498
837.993	24426
838.131	24475
838.269	24327
838.406	24365
838.544	24308
838.681	24091
838.819	24064
838.956	23939
839.094	23821
839.231	23912
839.369	24292
839.506	24285
839.643	24121
839.781	24026
839.918	23973
840.055	23847
840.193	23904
840.33	23813
840.467	23843
840.604	23855
840.742	24015
840.879	23627
841.016	23824
841.153	23623
841.29	23927
841.427	23920
841.564	23771
841.701	23786
841.838	23767
841.975	23767
842.112	23737
842.249	23600
842.385	23680
842.522	23855
842.659	23630
842.796	23497
842.933	23604
843.069	23608
843.206	23695
843.343	23668
843.479	23516
843.616	23482
843.752	23395
843.889	23364
844.025	23543
844.162	23307
844.298	23433
844.435	23311
844.571	23376
844.708	23356
844.844	23520
844.98	23414
845.117	23501
845.253	23239
845.389	23235
845.525	23170
845.661	23258
845.798	22999
845.934	23254
846.07	23025
846.206	23025
846.342	23185
846.478	23052
846.614	23010
846.75	22835
846.886	22755
847.022	22828
847.158	22790
847.294	22790
847.429	22778
847.565	22771
847.701	22881
847.837	22641
847.972	22447
848.108	22485
848.244	22497
848.379	22352
848.515	22398
848.65	22295
848.786	22295
848.921	22428
849.057	22542
849.192	22531
849.328	22474
849.463	22337
849.598	22341
849.734	22211
849.869	22303
850.004	22166
850.14	22226
850.275	22284
850.41	22120
850.545	22177
850.68	22215
850.815	22131
850.95	22116
851.085	22306
851.22	22295
851.355	22169
851.49	22158
851.625	22131
851.76	22147
851.895	22120
852.03	22040
852.165	22154
852.299	22253
852.434	22226
852.569	22257
852.703	22143
852.838	22192
852.973	22303
853.107	22230
853.242	22078
853.376	22063
853.511	21854
853.645	21876
853.78	22021
853.914	21884
854.048	21983
854.183	21899
854.317	21937
854.451	22112
854.585	21956
854.72	21835
854.854	22040
854.988	21998
855.122	22067
855.256	21808
855.39	21991
855.524	22063
855.658	21930
855.792	21953
855.926	21972
856.06	22029
856.194	21964
856.327	21922
856.461	22048
856.595	21846
856.729	22086
856.862	22086
856.996	22051
857.13	22074
857.263	22063
857.397	22093
857.53	22002
857.664	22070
857.797	22029
857.931	22162
858.064	22059
858.197	22097
858.331	21972
858.464	21892
858.597	21816
858.731	21895
858.864	21884
858.997	21949
859.13	21975
859.263	22067
859.396	22131
859.529	22097
859.662	21953
859.795	21983
859.928	21835
860.061	22105
860.194	22086
860.327	22158
860.46	22013
860.592	22109
860.725	22150
860.858	22219
860.99	21979
861.123	21797
861.256	21842
861.388	22017
861.521	22778
861.653	21846
861.786	21876
861.918	21766
862.05	21865
862.183	21831
862.315	21907
862.447	22010
862.58	21884
862.712	21713
862.844	21660
862.976	21854
863.108	21755
863.24	22188
863.372	21625
863.504	21720
863.636	21652
863.768	21705
863.9	21675
864.032	21549
864.164	21587
864.296	21587
864.428	21747
864.559	21838
864.691	21819
864.823	21618
864.954	21637
865.086	21660
865.217	21713
865.349	21405
865.48	21614
865.612	21595
865.743	21743
865.875	21660
866.006	21622
866.137	21618
866.269	21667
866.4	21469
866.531	21500
866.662	21439
866.793	21492
866.924	21412
867.055	21492
867.186	21580
867.317	21439
867.448	21439
867.579	21466
867.71	21393
867.841	21454
867.972	21469
868.103	21504
868.233	21599
868.364	21435
868.495	21564
868.625	21808
868.756	21762
868.886	21656
869.017	21717
869.147	21846
869.278	21956
869.408	21713
869.539	21800
869.669	21873
869.799	21907
869.929	21888
870.06	21865
870.19	21964
870.32	21968
870.45	22143
870.58	22109
870.71	22238
870.84	22173
870.97	22211
871.1	22158
871.23	22268
871.36	22299
871.489	22253
871.619	22371
871.749	22268
871.879	22329
872.008	22508
872.138	22272
872.267	22405
872.397	22154
872.526	22162
872.656	22131
872.785	22299
872.915	22329
873.044	22405
873.173	22390
873.303	22234
873.432	22557
873.561	22459
873.69	22375
873.819	22421
873.948	22428
874.077	22443
874.206	22398
874.335	22291
874.464	22516
874.593	22679
874.722	22519
874.851	22611
874.979	22630
875.108	22618
875.237	22478
875.365	22451
875.494	22596
875.623	22573
875.751	22459
875.88	22687
876.008	22675
876.136	22824
876.265	22953
876.393	22968
876.521	23041
876.65	23003
876.778	22862
876.906	22915
877.034	22908
877.162	22923
877.29	22809
877.418	22900
877.546	22896
877.674	22930
877.802	22869
877.93	22930
878.058	22889
878.185	22847
878.313	22740
878.441	22843
878.568	22797
878.696	22881
878.824	22881
878.951	22999
879.079	23044
879.206	23178
879.333	23231
879.461	22972
879.588	23037
879.715	23159
879.842	23181
879.97	22999
880.097	22656
880.224	22706
880.351	22759
880.478	22664
880.605	22626
880.732	22687
880.859	22927
880.986	22866
881.112	22706
881.239	22649
881.366	22382
881.493	22386
881.619	22337
881.746	22253
881.872	22295
881.999	22265
882.125	22253
882.252	22303
882.378	22234
882.505	22455
882.631	22120
882.757	22173
882.883	22139
883.01	22078
883.136	21998
883.262	21987
883.388	21842
883.514	21956
883.64	21979
883.766	22025
883.892	21884
884.018	21739
884.143	21911
884.269	21945
884.395	21660
884.52	21610
884.646	21652
884.772	21564
884.897	21500
885.023	21709
885.148	21713
885.274	21934
885.399	21857
885.524	21618
885.65	21530
885.775	21679
885.9	21538
886.025	21724
886.15	21682
886.275	21568
886.4	21720
886.525	21656
886.65	21515
886.775	21504
886.9	21728
887.025	21819
887.149	21492
887.274	21378
887.399	21435
887.523	21351
887.648	21222
887.773	21344
887.897	21412
888.021	21275
888.146	21332
888.27	21523
888.395	21507
888.519	21336
888.643	21443
888.767	21325
888.891	21291
889.015	21131
889.139	21184
889.263	21306
889.387	21192
889.511	21424
889.635	21363
889.759	21135
889.883	21028
890.006	21131
890.13	21302
890.254	21017
890.377	20994
890.501	21017
890.624	20906
890.748	20914
890.871	20880
890.995	20678
891.118	20598
891.241	20815
891.364	20830
891.488	20944
891.611	20769
891.734	20708
891.857	20777
891.98	20765
892.103	20800
892.226	20678
892.349	20750
892.471	20632
892.594	20686
892.717	20640
892.839	20636
892.962	20678
893.085	20644
893.207	20625
893.33	20427
893.452	20473
893.575	20693
893.697	20583
893.819	20712
893.941	20952
894.064	20769
894.186	20625
894.308	20594
894.43	20777
894.552	20590
894.674	20705
894.796	20533
894.918	20530
895.04	20552
895.161	20708
895.283	20693
895.405	20522
895.526	20609
895.648	20594
895.769	20640
895.891	20617
896.012	20716
896.134	20720
896.255	20663
896.376	20602
896.498	20640
896.619	20625
896.74	20621
896.861	20727
896.982	20876
897.103	21058
897.224	20842
897.345	20853
897.466	20826
897.587	21009
897.708	21055
897.828	21001
897.949	20765
898.07	20727
898.19	20689
898.311	20960
898.431	20925
898.552	20956
898.672	20982
898.792	20986
898.913	20807
899.033	20682
899.153	20568
899.273	20507
899.393	20606
899.513	20594
899.633	20617
899.753	20659
899.873	20454
899.993	20689
900.113	20530
900.232	20415
900.352	20522
900.472	20396
900.591	20358
900.711	20294
900.83	20214
900.95	20393
901.069	20389
901.189	20309
901.308	20020
901.427	19906
901.546	19917
901.665	19970
901.784	19868
901.904	19822
902.023	19761
902.141	19639
902.26	19472
902.379	19590
902.498	19502
902.617	19556
902.735	19514
902.854	19381
902.973	19419
903.091	19164
903.21	19202
903.328	19042
903.446	18951
903.565	18913
903.683	18989
903.801	18779
903.919	18810
904.038	18890
904.156	18738
904.274	18711
904.392	18544
904.51	18578
904.627	18768
904.745	18616
904.863	18589
904.981	18429
905.098	18289
905.216	18319
905.334	18346
905.451	18350
905.569	18323
905.686	18426
905.803	18369
905.921	18106
906.038	18277
906.155	18194
906.272	18019
906.389	18019
906.506	17836
906.623	17859
906.74	17802
906.857	17760
906.974	17703
907.091	17897
907.208	17920
907.324	17897
907.441	17798
907.557	17657
907.674	17604
907.79	17463
907.907	17596
908.023	17596
908.139	17509
908.256	17528
908.372	17490
908.488	17379
908.604	17273
908.72	17372
908.836	17421
908.952	17204
909.068	17273
909.184	17387
909.3	17181
909.415	17280
909.531	17349
909.647	17045
909.762	17018
909.878	16946
909.993	17083
910.108	16923
910.224	16999
910.339	16957
910.454	16930
910.57	16801
910.685	16759
910.8	17056
910.915	16942
911.03	16763
911.145	16683
911.259	16546
911.374	16577
911.489	16504
911.604	16561
911.718	16299
911.833	16367
911.947	16219
912.062	16120
912.176	16287
912.291	16234
912.405	16348
912.519	16485
912.633	16558
912.748	16291
912.862	16204
912.976	16147
913.09	16025
913.204	16063
913.318	16230
913.431	16131
913.545	16150
913.659	16234
913.772	16010
913.886	15884
914	15911
914.113	16010
914.226	16029
914.34	15998
914.453	15747
914.566	15949
914.68	15690
914.793	15732
914.906	15671
915.019	15504
915.132	15435
915.245	15519
915.358	15519
915.47	15595
915.583	15458
915.696	15545
915.809	15568
915.921	15675
916.034	15603
916.146	15454
916.259	15485
916.371	15538
916.483	15477
916.595	15389
916.708	15412
916.82	15466
916.932	15264
917.044	15325
917.156	15230
917.268	15058
917.38	15264
917.491	15180
917.603	15085
917.715	15298
917.826	15211
917.938	15081
918.049	15047
918.161	15119
918.272	15218
918.384	15161
918.495	15138
918.606	14990
918.717	14872
918.828	14906
918.939	14887
919.05	14781
919.161	15013
919.272	14743
919.383	14792
919.494	14952
919.604	15180
919.715	15009
919.826	14785
919.936	14815
920.047	14948
920.157	14887
920.267	15123
920.378	14906
920.488	14876
920.598	15089
920.708	15161
920.818	15055
920.928	15017
921.038	15093
921.148	15070
921.258	14842
921.368	14731
921.477	14651
921.587	14594
921.697	14385
921.806	14575
921.916	14438
922.025	14313
922.134	14298
922.244	14168
922.353	14278
922.462	14168
922.571	14077
922.68	14001
922.789	13947
922.898	13913
923.007	13871
923.116	13906
923.224	14024
923.333	13833
923.442	13757
923.55	13784
923.659	13700
923.767	13849
923.876	13681
923.984	13765
924.092	13575
924.201	13719
924.309	13677
924.417	13582
924.525	13449
924.633	13571
924.741	14533
924.849	13415
924.956	13556
925.064	13419
925.172	13206
925.279	13293
925.387	13293
925.494	13308
925.602	13403
925.709	13312
925.816	13152
925.924	13190
926.031	13308
926.138	13278
926.245	13312
926.352	13137
926.459	13206
926.566	13301
926.673	13107
926.779	12989
926.886	13038
926.993	12798
927.099	12802
927.206	12768
927.312	12810
927.419	12875
927.525	12928
927.631	12867
927.737	12779
927.843	12623
927.95	12547
928.056	12627
928.162	12730
928.267	12814
928.373	13274
928.479	12745
928.585	12433
928.69	12662
928.796	12658
928.901	12593
929.007	12388
929.112	12494
929.218	12445
929.323	12467
929.428	12441
929.533	12418
929.638	12372
929.743	12327
929.848	12334
929.953	12273
930.058	12266
930.163	12076
930.267	12197
930.372	12216
930.477	12045
930.581	12216
930.685	12102
930.79	11980
930.894	11988
930.998	11996
931.103	12186
931.207	11733
931.311	11623
931.415	11551
931.519	11296
931.623	11311
