Data from test_V78500241_1981.txt Node
Date: Fri Mar 25 15:55:31 CST 2022
User: usil
Spectrometer: V785-0024
Trigger mode: 0
Integration Time (sec): 4.000000E-1
Scans to average: 1
Nonlinearity correction enabled: false
Boxcar width: 0
Storing dark spectrum: false
XAxis mode: Wavelengths
Number of Pixels in Spectrum: 1024
>>>>>Begin Spectral Data<<<<<
801.071	28124
801.214	28040
801.356	27861
801.499	27759
801.641	27701
801.783	27625
801.926	27831
802.068	27694
802.211	27610
802.353	27549
802.496	27447
802.638	27355
802.78	27317
802.923	27260
803.065	27245
803.208	27135
803.35	27310
803.492	27424
803.635	27538
803.777	27477
803.919	27652
804.061	27789
804.204	27549
804.346	27496
804.488	27443
804.63	27618
804.773	27443
804.915	27572
805.057	27797
805.199	27534
805.341	27682
805.483	27720
805.626	27583
805.768	27660
805.91	27709
806.052	27694
806.194	27545
806.336	27892
806.478	27789
806.62	27720
806.762	27861
806.904	28051
807.046	28200
807.188	28246
807.33	28147
807.472	28257
807.614	28147
807.756	28135
807.898	28067
808.04	27911
808.182	28029
808.324	27979
808.465	28196
808.607	28363
808.749	28401
808.891	28436
809.033	28500
809.174	28512
809.316	28386
809.458	28322
809.6	28409
809.741	28401
809.883	28527
810.025	28542
810.166	28683
810.308	28615
810.45	28626
810.591	28459
810.733	28618
810.875	28211
811.016	28261
811.158	28295
811.299	28379
811.441	28466
811.582	28493
811.724	28257
811.865	28481
812.007	28188
812.148	28386
812.29	28447
812.431	28478
812.573	28645
812.714	28698
812.855	28797
812.997	28911
813.138	28984
813.279	29048
813.421	28908
813.562	28740
813.703	28577
813.845	28603
813.986	28306
814.127	28074
814.268	28131
814.41	28101
814.551	27903
814.692	28074
814.833	27975
814.974	27873
815.115	28090
815.256	27899
815.397	27991
815.539	27717
815.68	27793
815.821	27759
815.962	27983
816.103	27713
816.244	27648
816.385	27644
816.526	27701
816.666	27488
816.807	27447
816.948	27321
817.089	27332
817.23	27272
817.371	27492
817.512	27294
817.653	27386
817.793	27218
817.934	27329
818.075	27351
818.216	27336
818.356	27283
818.497	27268
818.638	27001
818.778	27256
818.919	27146
819.06	27207
819.2	27252
819.341	27321
819.481	27294
819.622	27378
819.762	27679
819.903	27736
820.043	27603
820.184	27553
820.324	27477
820.465	27603
820.605	27439
820.746	27348
820.886	27283
821.026	27359
821.167	27412
821.307	27576
821.447	27416
821.588	27249
821.728	27119
821.868	27028
822.008	26804
822.149	26807
822.289	26785
822.429	26594
822.569	26438
822.709	26393
822.849	26450
822.99	26351
823.13	26298
823.27	26294
823.41	26084
823.55	26210
823.69	26149
823.83	26096
823.97	26145
824.11	25925
824.25	25826
824.389	25944
824.529	25947
824.669	25921
824.809	26161
824.949	26119
825.089	26016
825.228	26115
825.368	25811
825.508	25871
825.648	25841
825.787	25890
825.927	25883
826.067	25769
826.206	25818
826.346	25921
826.485	25989
826.625	25837
826.765	26058
826.904	25871
827.044	25666
827.183	25544
827.323	25556
827.462	25715
827.601	25537
827.741	25544
827.88	25556
828.02	25369
828.159	25537
828.298	25590
828.437	25723
828.577	25381
828.716	25651
828.855	25502
828.994	25175
829.134	25312
829.273	25346
829.412	25263
829.551	25266
829.69	25232
829.829	25285
829.968	25270
830.107	25377
830.246	25232
830.385	25312
830.524	25053
830.663	25129
830.802	24966
830.941	24798
831.08	24711
831.219	24852
831.357	24909
831.496	25057
831.635	24753
831.774	24684
831.913	24745
832.051	24578
832.19	24559
832.329	24738
832.467	24555
832.606	24525
832.744	24429
832.883	24574
833.022	24483
833.16	24574
833.299	24509
833.437	24574
833.576	24593
833.714	24570
833.852	24631
833.991	24707
834.129	24612
834.267	24585
834.406	24650
834.544	24559
834.682	24616
834.821	24517
834.959	24681
835.097	24646
835.235	24566
835.373	24563
835.511	24650
835.65	24350
835.788	24391
835.926	24353
836.064	24350
836.202	24289
836.34	24399
836.478	24475
836.615	24456
836.753	24289
836.891	24551
837.029	24483
837.167	24292
837.305	24201
837.443	24239
837.58	24224
837.718	24243
837.856	24209
837.993	24133
838.131	24201
838.269	24049
838.406	24182
838.544	24102
838.681	23851
838.819	23874
838.956	23737
839.094	23737
839.231	23714
839.369	23931
839.506	24068
839.643	23999
839.781	23741
839.918	23695
840.055	23722
840.193	23813
840.33	23646
840.467	23501
840.604	23566
840.742	23882
840.879	23524
841.016	23570
841.153	23440
841.29	23707
841.427	23649
841.564	23672
841.701	23600
841.838	23551
841.975	23516
842.112	23562
842.249	23406
842.385	23258
842.522	23611
842.659	23398
842.796	23448
842.933	23334
843.069	23235
843.206	23353
843.343	23490
843.479	23395
843.616	23452
843.752	23075
843.889	23170
844.025	23258
844.162	22991
844.298	23299
844.435	23079
844.571	23185
844.708	23197
844.844	23364
844.98	23299
845.117	23277
845.253	23147
845.389	23117
845.525	23003
845.661	23014
845.798	22835
845.934	23029
846.07	22767
846.206	23018
846.342	23014
846.478	22930
846.614	22767
846.75	22580
846.886	22706
847.022	22721
847.158	22702
847.294	22675
847.429	22618
847.565	22611
847.701	22889
847.837	22257
847.972	22341
848.108	22432
848.244	22417
848.379	22196
848.515	22261
848.65	22101
848.786	22242
848.921	22310
849.057	22280
849.192	22394
849.328	22192
849.463	22238
849.598	22131
849.734	22036
849.869	22082
850.004	21827
850.14	22029
850.275	21937
850.41	21907
850.545	21987
850.68	22082
850.815	22002
850.95	21991
851.085	22154
851.22	22082
851.355	22051
851.49	21823
851.625	21926
851.76	21979
851.895	21831
852.03	21953
852.165	22086
852.299	22067
852.434	22070
852.569	21907
852.703	21899
852.838	22063
852.973	22078
853.107	22032
853.242	21922
853.376	21766
853.511	21720
853.645	21838
853.78	21869
853.914	21800
854.048	21755
854.183	21850
854.317	21880
854.451	21994
854.585	21747
854.72	21705
854.854	21994
854.988	21850
855.122	21880
855.256	21648
855.39	21880
855.524	21873
855.658	21789
855.792	21892
855.926	21850
856.06	21762
856.194	21880
856.327	21778
856.461	21720
856.595	21793
856.729	21827
856.862	21865
856.996	21846
857.13	21831
857.263	22078
857.397	21873
857.53	21732
857.664	21793
857.797	21797
857.931	21994
858.064	21865
858.197	22021
858.331	21720
858.464	21701
858.597	21797
858.731	21800
858.864	21660
858.997	21675
859.13	21800
859.263	21774
859.396	21854
859.529	21846
859.662	21717
859.795	21781
859.928	21922
860.061	21949
860.194	21941
860.327	21846
860.46	21739
860.592	21956
860.725	22002
860.858	21983
860.99	21964
861.123	21759
861.256	21720
861.388	21831
861.521	22573
861.653	21747
861.786	21660
861.918	21675
862.05	21679
862.183	21732
862.315	21770
862.447	21876
862.58	21869
862.712	21618
862.844	21447
862.976	21492
863.108	21496
863.24	22105
863.372	21485
863.504	21549
863.636	21435
863.768	21530
863.9	21561
864.032	21534
864.164	21492
864.296	21606
864.428	21591
864.559	21606
864.691	21564
864.823	21431
864.954	21526
865.086	21507
865.217	21443
865.349	21306
865.48	21363
865.612	21488
865.743	21515
865.875	21576
866.006	21492
866.137	21401
866.269	21382
866.4	21321
866.531	21260
866.662	21313
866.793	21302
866.924	21351
867.055	21408
867.186	21450
867.317	21344
867.448	21188
867.579	21351
867.71	21142
867.841	21389
867.972	21336
868.103	21275
868.233	21488
868.364	21435
868.495	21450
868.625	21633
868.756	21739
868.886	21629
869.017	21542
869.147	21717
869.278	21701
869.408	21705
869.539	21488
869.669	21633
869.799	21819
869.929	21648
870.06	21686
870.19	21960
870.32	21861
870.45	21857
870.58	22021
870.71	22124
870.84	22139
870.97	22070
871.1	21964
871.23	22261
871.36	22166
871.489	22055
871.619	22166
871.749	22287
871.879	22207
872.008	22470
872.138	22173
872.267	22139
872.397	22078
872.526	22059
872.656	22010
872.785	21918
872.915	22295
873.044	22409
873.173	22295
873.303	22261
873.432	22238
873.561	22386
873.69	22268
873.819	22280
873.948	22299
874.077	22226
874.206	22238
874.335	22150
874.464	22371
874.593	22440
874.722	22367
874.851	22394
874.979	22516
875.108	22497
875.237	22348
875.365	22367
875.494	22382
875.623	22573
875.751	22516
875.88	22557
876.008	22596
876.136	22634
876.265	22896
876.393	23014
876.521	22896
876.65	22869
876.778	22736
876.906	22759
877.034	22793
877.162	22809
877.29	22805
877.418	22748
877.546	22820
877.674	22793
877.802	22672
877.93	22801
878.058	22702
878.185	22706
878.313	22782
878.441	22790
878.568	22599
878.696	22675
878.824	22793
878.951	22812
879.079	23003
879.206	23121
879.333	23018
879.461	22873
879.588	22908
879.715	22938
879.842	23033
879.97	23006
880.097	22721
880.224	22565
880.351	22656
880.478	22542
880.605	22538
880.732	22542
880.859	22904
880.986	22592
881.112	22615
881.239	22485
881.366	22329
881.493	22276
881.619	22143
881.746	22314
881.872	22177
881.999	22120
882.125	22070
882.252	22188
882.378	22257
882.505	22268
882.631	22032
882.757	21888
882.883	21922
883.01	21865
883.136	21827
883.262	21724
883.388	21827
883.514	21907
883.64	21895
883.766	21743
883.892	21580
884.018	21781
884.143	21789
884.269	21819
884.395	21690
884.52	21408
884.646	21530
884.772	21401
884.897	21317
885.023	21530
885.148	21587
885.274	21511
885.399	21576
885.524	21557
885.65	21466
885.775	21466
885.9	21466
886.025	21580
886.15	21545
886.275	21534
886.4	21458
886.525	21462
886.65	21485
886.775	21382
886.9	21641
887.025	21717
887.149	21561
887.274	21355
887.399	21272
887.523	21340
887.648	21264
887.773	21154
887.897	21374
888.021	21321
888.146	21279
888.27	21439
888.395	21321
888.519	21218
888.643	21306
888.767	21222
888.891	21192
889.015	21005
889.139	21100
889.263	20914
889.387	21180
889.511	21264
889.635	21161
889.759	21036
889.883	21104
890.006	21112
890.13	21104
890.254	21089
890.377	20948
890.501	20792
890.624	20644
890.748	20952
890.871	20746
890.995	20579
891.118	20556
891.241	20625
891.364	20682
891.488	20785
891.611	20617
891.734	20613
891.857	20659
891.98	20549
892.103	20705
892.226	20537
892.349	20670
892.471	20446
892.594	20530
892.717	20606
892.839	20537
892.962	20545
893.085	20442
893.207	20518
893.33	20415
893.452	20290
893.575	20590
893.697	20377
893.819	20636
893.941	20663
894.064	20629
894.186	20415
894.308	20343
894.43	20617
894.552	20773
894.674	20590
894.796	20423
894.918	20541
895.04	20480
895.161	20674
895.283	20461
895.405	20442
895.526	20537
895.648	20473
895.769	20564
895.891	20590
896.012	20712
896.134	20530
896.255	20480
896.376	20492
896.498	20568
896.619	20644
896.74	20415
896.861	20609
896.982	20804
897.103	20914
897.224	20724
897.345	20712
897.466	20587
897.587	20777
897.708	20788
897.828	20701
897.949	20735
898.07	20560
898.19	20590
898.311	20796
898.431	20663
898.552	20705
898.672	20834
898.792	20861
898.913	20731
899.033	20598
899.153	20488
899.273	20446
899.393	20423
899.513	20457
899.633	20537
899.753	20484
899.873	20404
899.993	20495
900.113	20454
900.232	20476
900.352	20408
900.472	20259
900.591	20195
900.711	20301
900.83	20100
900.95	20381
901.069	20431
901.189	20058
901.308	19967
901.427	19791
901.546	19788
901.665	19845
901.784	19746
901.904	19655
902.023	19537
902.141	19449
902.26	19434
902.379	19411
902.498	19304
902.617	19236
902.735	19396
902.854	19434
902.973	19274
903.091	18989
903.21	18966
903.328	18951
903.446	19008
903.565	18764
903.683	18913
903.801	18711
903.919	18795
904.038	18741
904.156	18551
904.274	18768
904.392	18528
904.51	18570
904.627	18604
904.745	18612
904.863	18574
904.981	18407
905.098	18216
905.216	18098
905.334	18273
905.451	18209
905.569	18201
905.686	18213
905.803	18220
905.921	18060
906.038	18106
906.155	18053
906.272	17920
906.389	17931
906.506	17737
906.623	17798
906.74	17691
906.857	17760
906.974	17684
907.091	17802
907.208	17851
907.324	17798
907.441	17627
907.557	17512
907.674	17478
907.79	17482
907.907	17497
908.023	17440
908.139	17615
908.256	17474
908.372	17322
908.488	17341
908.604	17246
908.72	17113
908.836	17159
908.952	17083
909.068	17242
909.184	17296
909.3	17124
909.415	17216
909.531	17079
909.647	16881
909.762	16873
909.878	16843
909.993	16877
910.108	16908
910.224	16984
910.339	16771
910.454	16733
910.57	16660
910.685	16550
910.8	16930
910.915	16885
911.03	16596
911.145	16447
911.259	16592
911.374	16481
911.489	16451
911.604	16341
911.718	16154
911.833	16299
911.947	16116
912.062	16097
912.176	16215
912.291	16219
912.405	16230
912.519	16382
912.633	16379
912.748	16348
912.862	16105
912.976	16128
913.09	15869
913.204	16063
913.318	16097
913.431	16116
913.545	16097
913.659	16120
913.772	15972
913.886	15854
914	15770
914.113	15892
914.226	15869
914.34	15869
914.453	15652
914.566	15850
914.68	15728
914.793	15644
914.906	15485
915.019	15507
915.132	15359
915.245	15473
915.358	15454
915.47	15428
915.583	15420
915.696	15469
915.809	15523
915.921	15534
916.034	15416
916.146	15264
916.259	15199
916.371	15401
916.483	15389
916.595	15226
916.708	15222
916.82	15283
916.932	15150
917.044	15108
917.156	15169
917.268	15116
917.38	15108
917.491	15047
917.603	15123
917.715	15192
917.826	15138
917.938	14994
918.049	14994
918.161	15005
918.272	15192
918.384	15150
918.495	15020
918.606	14887
918.717	14781
918.828	14705
918.939	14743
919.05	14674
919.161	14800
919.272	14632
919.383	14762
919.494	14891
919.604	14967
919.715	14762
919.826	14739
919.936	14731
920.047	14838
920.157	14800
920.267	14910
920.378	14769
920.488	14705
920.598	14891
920.708	15043
920.818	14963
920.928	14956
921.038	15058
921.148	15097
921.258	14686
921.368	14743
921.477	14522
921.587	14568
921.697	14446
921.806	14514
921.916	14404
922.025	14237
922.134	14240
922.244	14126
922.353	14286
922.462	14027
922.571	14027
922.68	13887
922.789	13837
922.898	13765
923.007	13780
923.116	13871
923.224	13750
923.333	13799
923.442	13685
923.55	13647
923.659	13613
923.767	13643
923.876	13582
923.984	13750
924.092	13533
924.201	13487
924.309	13605
924.417	13563
924.525	13521
924.633	13514
924.741	14206
924.849	13327
924.956	13449
925.064	13274
925.172	13175
925.279	13209
925.387	13289
925.494	13320
925.602	13285
925.709	13164
925.816	13065
925.924	13198
926.031	13324
926.138	13133
926.245	13247
926.352	13042
926.459	13114
926.566	13251
926.673	13023
926.779	12981
926.886	12905
926.993	12783
927.099	12768
927.206	12749
927.312	12779
927.419	12741
927.525	12753
927.631	12745
927.737	12700
927.843	12669
927.95	12551
928.056	12620
928.162	12677
928.267	12741
928.373	13274
928.479	12700
928.585	12448
928.69	12525
928.796	12604
928.901	12471
929.007	12422
929.112	12418
929.218	12456
929.323	12399
929.428	12300
929.533	12437
929.638	12232
929.743	12243
929.848	12353
929.953	12281
930.058	12171
930.163	12034
930.267	12102
930.372	12155
930.477	12057
930.581	12171
930.685	12072
930.79	11939
930.894	11897
930.998	11836
931.103	11992
931.207	11611
931.311	11604
931.415	11539
931.519	11337
931.623	11181
