Data from test_V78500241_230.txt Node
Date: Fri Mar 25 15:43:23 CST 2022
User: usil
Spectrometer: V785-0024
Trigger mode: 0
Integration Time (sec): 4.000000E-1
Scans to average: 1
Nonlinearity correction enabled: false
Boxcar width: 0
Storing dark spectrum: false
XAxis mode: Wavelengths
Number of Pixels in Spectrum: 1024
>>>>>Begin Spectral Data<<<<<
801.071	29589
801.214	29520
801.356	29231
801.499	29132
801.641	29037
801.783	28987
801.926	29022
802.068	28965
802.211	28862
802.353	28888
802.496	28691
802.638	28653
802.78	28508
802.923	28721
803.065	28569
803.208	28478
803.35	28607
803.492	28778
803.635	28888
803.777	28740
803.919	28972
804.061	29143
804.204	28942
804.346	28641
804.488	28554
804.63	28675
804.773	28592
804.915	28683
805.057	28733
805.199	28691
805.341	28850
805.483	28843
805.626	28771
805.768	28679
805.91	28934
806.052	28881
806.194	28721
806.336	28984
806.478	28892
806.62	28908
806.762	29033
806.904	29086
807.046	29303
807.188	29322
807.33	29284
807.472	29284
807.614	29197
807.756	29269
807.898	29102
808.04	29067
808.182	29132
808.324	28938
808.465	29197
808.607	29212
808.749	29478
808.891	29417
809.033	29627
809.174	29516
809.316	29509
809.458	29398
809.6	29410
809.741	29501
809.883	29566
810.025	29737
810.166	29668
810.308	29862
810.45	29722
810.591	29691
810.733	29402
810.875	29345
811.016	29375
811.158	29368
811.299	29566
811.441	29657
811.582	29589
811.724	29524
811.865	29330
812.007	29265
812.148	29387
812.29	29452
812.431	29668
812.573	29604
812.714	29805
812.855	30011
812.997	29984
813.138	30152
813.279	29954
813.421	29912
813.562	29767
813.703	29722
813.845	29562
813.986	29356
814.127	29273
814.268	29006
814.41	29014
814.551	29090
814.692	29162
814.833	28934
814.974	28820
815.115	28927
815.256	28900
815.397	29048
815.539	28999
815.68	28801
815.821	28694
815.962	28892
816.103	28949
816.244	28656
816.385	28462
816.526	28550
816.666	28360
816.807	28204
816.948	28341
817.089	28367
817.23	28265
817.371	28204
817.512	28158
817.653	28067
817.793	28173
817.934	28257
818.075	28223
818.216	28268
818.356	28139
818.497	28086
818.638	27869
818.778	27785
818.919	27911
819.06	28021
819.2	27972
819.341	28234
819.481	28242
819.622	28367
819.762	28455
819.903	28413
820.043	28284
820.184	28253
820.324	28265
820.465	28398
820.605	28337
820.746	28284
820.886	28131
821.026	28219
821.167	28101
821.307	28299
821.447	28029
821.588	28101
821.728	27827
821.868	27751
822.008	27622
822.149	27606
822.289	27622
822.429	27363
822.569	27302
822.709	27161
822.849	27077
822.99	26925
823.13	26963
823.27	27043
823.41	26975
823.55	26887
823.69	26853
823.83	26834
823.97	26697
824.11	26613
824.25	26648
824.389	26769
824.529	26701
824.669	26727
824.809	26785
824.949	26811
825.089	26777
825.228	26735
825.368	26602
825.508	26339
825.648	26514
825.787	26640
825.927	26655
826.067	26533
826.206	26480
826.346	26575
826.485	26537
826.625	26495
826.765	26621
826.904	26476
827.044	26263
827.183	26157
827.323	26229
827.462	26142
827.601	26096
827.741	26126
827.88	26161
828.02	26046
828.159	26084
828.298	26164
828.437	26172
828.577	26058
828.716	26225
828.855	25982
828.994	25879
829.134	25742
829.273	25883
829.412	25788
829.551	25776
829.69	25849
829.829	25947
829.968	25860
830.107	25841
830.246	25890
830.385	25731
830.524	25712
830.663	25601
830.802	25506
830.941	25464
831.08	25316
831.219	25434
831.357	25464
831.496	25540
831.635	25392
831.774	25263
831.913	25301
832.051	25289
832.19	25122
832.329	25225
832.467	25171
832.606	24920
832.744	24951
832.883	25008
833.022	25053
833.16	25126
833.299	25160
833.437	25088
833.576	25145
833.714	25107
833.852	25141
833.991	24970
834.129	25240
834.267	25099
834.406	25145
834.544	25122
834.682	25050
834.821	25027
834.959	25179
835.097	24992
835.235	25000
835.373	25038
835.511	25027
835.65	24848
835.788	24897
835.926	24806
836.064	24692
836.202	24654
836.34	24894
836.478	24992
836.615	24996
836.753	24760
836.891	24863
837.029	24753
837.167	24825
837.305	24684
837.443	24715
837.58	24844
837.718	24886
837.856	24795
837.993	24604
838.131	24722
838.269	24475
838.406	24654
838.544	24494
838.681	24342
838.819	24258
838.956	24133
839.094	24190
839.231	24106
839.369	24266
839.506	24563
839.643	24429
839.781	24129
839.918	24003
840.055	24022
840.193	23965
840.33	24003
840.467	24163
840.604	24057
840.742	24262
840.879	23863
841.016	23980
841.153	24011
841.29	24155
841.427	23927
841.564	24053
841.701	23935
841.838	23931
841.975	23855
842.112	23927
842.249	23912
842.385	23748
842.522	23965
842.659	23752
842.796	23623
842.933	23729
843.069	23707
843.206	23630
843.343	23649
843.479	23604
843.616	23623
843.752	23486
843.889	23425
844.025	23551
844.162	23444
844.298	23482
844.435	23356
844.571	23436
844.708	23520
844.844	23604
844.98	23535
845.117	23471
845.253	23292
845.389	23258
845.525	23398
845.661	23204
845.798	23018
845.934	23223
846.07	22991
846.206	23189
846.342	23121
846.478	23136
846.614	22881
846.75	22839
846.886	22885
847.022	22976
847.158	22911
847.294	22820
847.429	22869
847.565	22771
847.701	22961
847.837	22565
847.972	22569
848.108	22660
848.244	22592
848.379	22432
848.515	22424
848.65	22341
848.786	22314
848.921	22523
849.057	22516
849.192	22523
849.328	22447
849.463	22428
849.598	22249
849.734	22310
849.869	22314
850.004	22101
850.14	22276
850.275	22112
850.41	22097
850.545	22109
850.68	22036
850.815	22101
850.95	22097
851.085	22284
851.22	22204
851.355	22215
851.49	22169
851.625	22128
851.76	22097
851.895	22067
852.03	22093
852.165	22086
852.299	22257
852.434	22272
852.569	22139
852.703	22169
852.838	22223
852.973	22211
853.107	22268
853.242	22002
853.376	21934
853.511	21861
853.645	22074
853.78	22067
853.914	22025
854.048	21979
854.183	22032
854.317	22055
854.451	22124
854.585	22040
854.72	21804
854.854	22040
854.988	21842
855.122	21922
855.256	21728
855.39	21846
855.524	21987
855.658	21915
855.792	21911
855.926	21922
856.06	21941
856.194	21911
856.327	21934
856.461	21937
856.595	21835
856.729	21911
856.862	22067
856.996	22048
857.13	21956
857.263	22135
857.397	21953
857.53	21922
857.664	21930
857.797	22082
857.931	21975
858.064	21831
858.197	21987
858.331	21956
858.464	21911
858.597	21717
858.731	21778
858.864	21797
858.997	21808
859.13	21956
859.263	21998
859.396	21998
859.529	21873
859.662	21876
859.795	21861
859.928	21930
860.061	22105
860.194	22021
860.327	21846
860.46	21846
860.592	21945
860.725	21972
860.858	21960
860.99	21865
861.123	21869
861.256	21876
861.388	21854
861.521	22561
861.653	21743
861.786	21831
861.918	21762
862.05	21854
862.183	21918
862.315	21865
862.447	22048
862.58	21709
862.712	21660
862.844	21599
862.976	21671
863.108	21583
863.24	22044
863.372	21568
863.504	21572
863.636	21599
863.768	21622
863.9	21519
864.032	21504
864.164	21504
864.296	21583
864.428	21603
864.559	21663
864.691	21580
864.823	21523
864.954	21572
865.086	21572
865.217	21515
865.349	21424
865.48	21378
865.612	21492
865.743	21576
865.875	21473
866.006	21416
866.137	21561
866.269	21405
866.4	21519
866.531	21424
866.662	21252
866.793	21344
866.924	21332
867.055	21370
867.186	21374
867.317	21298
867.448	21218
867.579	21336
867.71	21310
867.841	21329
867.972	21431
868.103	21344
868.233	21443
868.364	21454
868.495	21363
868.625	21595
868.756	21633
868.886	21572
869.017	21644
869.147	21686
869.278	21762
869.408	21701
869.539	21698
869.669	21652
869.799	21633
869.929	21667
870.06	21675
870.19	22040
870.32	21888
870.45	21941
870.58	22006
870.71	22120
870.84	22124
870.97	21945
871.1	22017
871.23	22147
871.36	22230
871.489	22070
871.619	22188
871.749	22211
871.879	22253
872.008	22318
872.138	22234
872.267	22150
872.397	22082
872.526	21956
872.656	22006
872.785	22082
872.915	22139
873.044	22310
873.173	22162
873.303	22284
873.432	22238
873.561	22299
873.69	22291
873.819	22246
873.948	22287
874.077	22242
874.206	22188
874.335	22177
874.464	22253
874.593	22451
874.722	22417
874.851	22371
874.979	22489
875.108	22455
875.237	22527
875.365	22386
875.494	22440
875.623	22584
875.751	22402
875.88	22508
876.008	22630
876.136	22561
876.265	22801
876.393	23018
876.521	22911
876.65	22968
876.778	22812
876.906	22672
877.034	22816
877.162	22809
877.29	22809
877.418	22816
877.546	22736
877.674	22797
877.802	22729
877.93	22771
878.058	22786
878.185	22656
878.313	22748
878.441	22793
878.568	22656
878.696	22778
878.824	22820
878.951	22896
879.079	22915
879.206	23056
879.333	23056
879.461	22866
879.588	22820
879.715	23041
879.842	23090
879.97	22866
880.097	22698
880.224	22580
880.351	22675
880.478	22580
880.605	22615
880.732	22607
880.859	22702
880.986	22691
881.112	22721
881.239	22462
881.366	22280
881.493	22325
881.619	22143
881.746	22192
881.872	22284
881.999	22181
882.125	22230
882.252	22207
882.378	22192
882.505	22219
882.631	22090
882.757	21915
882.883	22078
883.01	21854
883.136	21812
883.262	21720
883.388	21736
883.514	21926
883.64	21926
883.766	21797
883.892	21717
884.018	21770
884.143	21774
884.269	21956
884.395	21618
884.52	21526
884.646	21568
884.772	21572
884.897	21386
885.023	21526
885.148	21553
885.274	21732
885.399	21542
885.524	21633
885.65	21469
885.775	21519
885.9	21466
886.025	21519
886.15	21519
886.275	21492
886.4	21481
886.525	21424
886.65	21386
886.775	21507
886.9	21641
887.025	21736
887.149	21511
887.274	21420
887.399	21275
887.523	21199
887.648	21222
887.773	21135
887.897	21294
888.021	21222
888.146	21154
888.27	21313
888.395	21420
888.519	21211
888.643	21340
888.767	21302
888.891	21252
889.015	21096
889.139	21112
889.263	21096
889.387	21173
889.511	21374
889.635	21146
889.759	21199
889.883	20975
890.006	21195
890.13	21036
890.254	20887
890.377	21020
890.501	20826
890.624	20716
890.748	20826
890.871	20762
890.995	20545
891.118	20492
891.241	20629
891.364	20724
891.488	20705
891.611	20625
891.734	20648
891.857	20632
891.98	20667
892.103	20636
892.226	20651
892.349	20636
892.471	20419
892.594	20537
892.717	20446
892.839	20575
892.962	20609
893.085	20476
893.207	20526
893.33	20362
893.452	20294
893.575	20499
893.697	20431
893.819	20743
893.941	20724
894.064	20533
894.186	20503
894.308	20556
894.43	20590
894.552	20663
894.674	20503
894.796	20385
894.918	20488
895.04	20530
895.161	20541
895.283	20549
895.405	20571
895.526	20575
895.648	20465
895.769	20552
895.891	20450
896.012	20636
896.134	20674
896.255	20438
896.376	20374
896.498	20590
896.619	20503
896.74	20549
896.861	20670
896.982	20899
897.103	20956
897.224	20857
897.345	20746
897.466	20590
897.587	20887
897.708	20880
897.828	20762
897.949	20571
898.07	20617
898.19	20659
898.311	20834
898.431	20720
898.552	20739
898.672	20807
898.792	20815
898.913	20724
899.033	20556
899.153	20457
899.273	20423
899.393	20537
899.513	20526
899.633	20434
899.753	20526
899.873	20434
899.993	20450
900.113	20339
900.232	20507
900.352	20355
900.472	20317
900.591	20176
900.711	20252
900.83	20138
900.95	20286
901.069	20278
901.189	20073
901.308	19951
901.427	19742
901.546	19769
901.665	19837
901.784	19776
901.904	19597
902.023	19586
902.141	19453
902.26	19354
902.379	19289
902.498	19263
902.617	19247
902.735	19263
902.854	19137
902.973	19274
903.091	18890
903.21	18935
903.328	18973
903.446	18802
903.565	18867
903.683	18688
903.801	18684
903.919	18661
904.038	18757
904.156	18494
904.274	18536
904.392	18540
904.51	18509
904.627	18433
904.745	18521
904.863	18559
904.981	18292
905.098	18190
905.216	18220
905.334	18178
905.451	18197
905.569	18072
905.686	18125
905.803	18121
905.921	17931
906.038	17969
906.155	17904
906.272	17889
906.389	17771
906.506	17699
906.623	17649
906.74	17623
906.857	17524
906.974	17501
907.091	17779
907.208	17794
907.324	17760
907.441	17619
907.557	17425
907.674	17410
907.79	17200
907.907	17311
908.023	17353
908.139	17280
908.256	17307
908.372	17273
908.488	17227
908.604	17094
908.72	16999
908.836	17029
908.952	16995
909.068	17014
909.184	17098
909.3	16919
909.415	17102
909.531	17060
909.647	16759
909.762	16767
909.878	16782
909.993	16759
910.108	16752
910.224	16713
910.339	16698
910.454	16519
910.57	16592
910.685	16440
910.8	16831
910.915	16691
911.03	16565
911.145	16322
911.259	16428
911.374	16314
911.489	16268
911.604	16204
911.718	16097
911.833	16036
911.947	15972
912.062	15922
912.176	16196
912.291	16078
912.405	16158
912.519	16230
912.633	16253
912.748	16078
912.862	15979
912.976	15876
913.09	15823
913.204	15713
913.318	15831
913.431	15911
913.545	15918
913.659	15857
913.772	15808
913.886	15633
914	15701
914.113	15812
914.226	15838
914.34	15656
914.453	15644
914.566	15652
914.68	15625
914.793	15545
914.906	15317
915.019	15329
915.132	15321
915.245	15131
915.358	15329
915.47	15275
915.583	15283
915.696	15313
915.809	15439
915.921	15389
916.034	15233
916.146	15226
916.259	15081
916.371	15241
916.483	15218
916.595	15074
916.708	15028
916.82	15085
916.932	15112
917.044	15051
917.156	15001
917.268	14967
917.38	14910
917.491	14899
917.603	14902
917.715	14956
917.826	14971
917.938	14769
918.049	14754
918.161	14785
918.272	15001
918.384	14975
918.495	14880
918.606	14811
918.717	14632
918.828	14640
918.939	14731
919.05	14549
919.161	14617
919.272	14370
919.383	14499
919.494	14602
919.604	14765
919.715	14651
919.826	14568
919.936	14526
920.047	14697
920.157	14659
920.267	14849
920.378	14613
920.488	14590
920.598	14807
920.708	14975
920.818	14750
920.928	14674
921.038	14785
921.148	14853
921.258	14613
921.368	14438
921.477	14374
921.587	14347
921.697	14164
921.806	14324
921.916	14126
922.025	14096
922.134	13947
922.244	13906
922.353	13989
922.462	13871
922.571	13791
922.68	13742
922.789	13685
922.898	13578
923.007	13628
923.116	13613
923.224	13529
923.333	13563
923.442	13468
923.55	13537
923.659	13483
923.767	13487
923.876	13362
923.984	13476
924.092	13331
924.201	13388
924.309	13396
924.417	13392
924.525	13270
924.633	13293
924.741	14058
924.849	13160
924.956	13274
925.064	13099
925.172	12935
925.279	12989
925.387	13084
925.494	13061
925.602	13194
925.709	13129
925.816	13004
925.924	13027
926.031	13057
926.138	12958
926.245	13046
926.352	12875
926.459	12962
926.566	13034
926.673	12966
926.779	12791
926.886	12779
926.993	12566
927.099	12677
927.206	12601
927.312	12509
927.419	12574
927.525	12578
927.631	12517
927.737	12418
927.843	12441
927.95	12315
928.056	12369
928.162	12391
928.267	12540
928.373	13107
928.479	12433
928.585	12228
928.69	12437
928.796	12399
928.901	12235
929.007	12186
929.112	12247
929.218	12239
929.323	12060
929.428	12110
929.533	12197
929.638	12098
929.743	12136
929.848	12034
929.953	12083
930.058	11927
930.163	11855
930.267	11866
930.372	11935
930.477	11779
930.581	11946
930.685	11916
930.79	11726
930.894	11634
930.998	11668
931.103	11863
931.207	11402
931.311	11368
931.415	11223
931.519	11022
931.623	11037
