Data from test_V78500241_3611.txt Node
Date: Fri Mar 25 16:06:48 CST 2022
User: usil
Spectrometer: V785-0024
Trigger mode: 0
Integration Time (sec): 4.000000E-1
Scans to average: 1
Nonlinearity correction enabled: false
Boxcar width: 0
Storing dark spectrum: false
XAxis mode: Wavelengths
Number of Pixels in Spectrum: 1024
>>>>>Begin Spectral Data<<<<<
801.071	28911
801.214	28805
801.356	28546
801.499	28626
801.641	28348
801.783	28272
801.926	28432
802.068	28375
802.211	28299
802.353	28314
802.496	28219
802.638	28040
802.78	28074
802.923	28059
803.065	27975
803.208	28093
803.35	28147
803.492	28067
803.635	28299
803.777	28185
803.919	28371
804.061	28729
804.204	28413
804.346	28287
804.488	28196
804.63	28147
804.773	28337
804.915	28417
805.057	28394
805.199	28299
805.341	28504
805.483	28527
805.626	28531
805.768	28436
805.91	28485
806.052	28432
806.194	28318
806.336	28721
806.478	28531
806.62	28455
806.762	28675
806.904	28786
807.046	28995
807.188	28858
807.33	29041
807.472	29022
807.614	28805
807.756	28976
807.898	28812
808.04	28793
808.182	28835
808.324	28847
808.465	28858
808.607	29060
808.749	29246
808.891	29391
809.033	29471
809.174	29265
809.316	29121
809.458	29277
809.6	29162
809.741	29258
809.883	29360
810.025	29448
810.166	29554
810.308	29440
810.45	29531
810.591	29395
810.733	29181
810.875	29288
811.016	29227
811.158	29018
811.299	29459
811.441	29520
811.582	29459
811.724	29212
811.865	29075
812.007	29105
812.148	29151
812.29	29334
812.431	29360
812.573	29703
812.714	29668
812.855	29604
812.997	29680
813.138	30060
813.279	29901
813.421	29783
813.562	29714
813.703	29490
813.845	29535
813.986	29174
814.127	29086
814.268	28938
814.41	28987
814.551	28862
814.692	28995
814.833	28919
814.974	28869
815.115	28911
815.256	28752
815.397	28835
815.539	28778
815.68	28649
815.821	28645
815.962	28679
816.103	28679
816.244	28584
816.385	28607
816.526	28516
816.666	28367
816.807	28272
816.948	28348
817.089	28371
817.23	28196
817.371	28207
817.512	28314
817.653	28344
817.793	28112
817.934	28299
818.075	28200
818.216	28295
818.356	28097
818.497	28150
818.638	28044
818.778	28010
818.919	28135
819.06	28204
819.2	28177
819.341	28280
819.481	28287
819.622	28413
819.762	28527
819.903	28527
820.043	28386
820.184	28455
820.324	28421
820.465	28363
820.605	28447
820.746	28299
820.886	28238
821.026	28371
821.167	28310
821.307	28455
821.447	28276
821.588	28086
821.728	27972
821.868	28010
822.008	27739
822.149	27808
822.289	27736
822.429	27469
822.569	27435
822.709	27469
822.849	27127
822.99	27272
823.13	27116
823.27	27104
823.41	27116
823.55	27024
823.69	27119
823.83	27089
823.97	27066
824.11	26826
824.25	26880
824.389	26864
824.529	26986
824.669	26800
824.809	27017
824.949	26933
825.089	27074
825.228	26883
825.368	26659
825.508	26750
825.648	26648
825.787	26667
825.927	26739
826.067	26648
826.206	26648
826.346	26883
826.485	26838
826.625	26720
826.765	26853
826.904	26823
827.044	26522
827.183	26461
827.323	26495
827.462	26461
827.601	26625
827.741	26560
827.88	26556
828.02	26423
828.159	26663
828.298	26552
828.437	26541
828.577	26461
828.716	26602
828.855	26358
828.994	26229
829.134	26119
829.273	26514
829.412	26172
829.551	26191
829.69	26191
829.829	26176
829.968	26259
830.107	26233
830.246	26233
830.385	26077
830.524	26058
830.663	25917
830.802	25830
830.941	25887
831.08	25700
831.219	25917
831.357	25944
831.496	25963
831.635	25856
831.774	25890
831.913	25719
832.051	25590
832.19	25662
832.329	25594
832.467	25449
832.606	25331
832.744	25464
832.883	25343
833.022	25441
833.16	25578
833.299	25426
833.437	25487
833.576	25483
833.714	25403
833.852	25594
833.991	25460
834.129	25658
834.267	25613
834.406	25521
834.544	25639
834.682	25460
834.821	25525
834.959	25582
835.097	25392
835.235	25605
835.373	25468
835.511	25476
835.65	25445
835.788	25263
835.926	25217
836.064	25141
836.202	25225
836.34	25362
836.478	25400
836.615	25346
836.753	25392
836.891	25411
837.029	25346
837.167	25194
837.305	25255
837.443	25133
837.58	25263
837.718	25225
837.856	25141
837.993	25008
838.131	25160
838.269	25080
838.406	24977
838.544	24981
838.681	24894
838.819	24608
838.956	24726
839.094	24582
839.231	24582
839.369	24646
839.506	25110
839.643	24833
839.781	24563
839.918	24509
840.055	24521
840.193	24665
840.33	24429
840.467	24532
840.604	24589
840.742	24833
840.879	24330
841.016	24505
841.153	24384
841.29	24692
841.427	24456
841.564	24593
841.701	24547
841.838	24517
841.975	24498
842.112	24441
842.249	24414
842.385	24342
842.522	24601
842.659	24429
842.796	24315
842.933	24209
843.069	24285
843.206	24209
843.343	24273
843.479	24346
843.616	24391
843.752	24110
843.889	24018
844.025	24182
844.162	24079
844.298	24148
844.435	24049
844.571	24038
844.708	24079
844.844	24220
844.98	24167
845.117	24251
845.253	24018
845.389	23912
845.525	23912
845.661	23984
845.798	23748
845.934	23882
846.07	23687
846.206	23851
846.342	23904
846.478	23779
846.614	23440
846.75	23391
846.886	23531
847.022	23646
847.158	23444
847.294	23493
847.429	23520
847.565	23368
847.701	23745
847.837	23242
847.972	23121
848.108	23345
848.244	23364
848.379	23102
848.515	23094
848.65	23102
848.786	23102
848.921	23060
849.057	23128
849.192	23170
849.328	23140
849.463	23109
849.598	23037
849.734	22911
849.869	22877
850.004	22839
850.14	22953
850.275	22953
850.41	22759
850.545	22778
850.68	22797
850.815	22828
850.95	22805
851.085	23079
851.22	22915
851.355	22733
851.49	22843
851.625	22790
851.76	22908
851.895	22828
852.03	22911
852.165	22843
852.299	22953
852.434	22968
852.569	22835
852.703	22892
852.838	22904
852.973	23022
853.107	22957
853.242	22710
853.376	22744
853.511	22596
853.645	22729
853.78	22740
853.914	22645
854.048	22603
854.183	22630
854.317	22706
854.451	22873
854.585	22683
854.72	22748
854.854	22675
854.988	22615
855.122	22611
855.256	22462
855.39	22710
855.524	22801
855.658	22664
855.792	22634
855.926	22733
856.06	22675
856.194	22793
856.327	22706
856.461	22417
856.595	22607
856.729	22603
856.862	22782
856.996	22649
857.13	22656
857.263	22748
857.397	22740
857.53	22626
857.664	22721
857.797	22672
857.931	22824
858.064	22759
858.197	22721
858.331	22660
858.464	22497
858.597	22580
858.731	22725
858.864	22626
858.997	22675
859.13	22706
859.263	22672
859.396	22691
859.529	22733
859.662	22683
859.795	22618
859.928	22592
860.061	22816
860.194	22946
860.327	22668
860.46	22706
860.592	22816
860.725	22759
860.858	22835
860.99	22588
861.123	22603
861.256	22459
861.388	22607
861.521	23356
861.653	22432
861.786	22470
861.918	22504
862.05	22630
862.183	22618
862.315	22584
862.447	22592
862.58	22611
862.712	22519
862.844	22322
862.976	22542
863.108	22474
863.24	22892
863.372	22470
863.504	22459
863.636	22386
863.768	22580
863.9	22417
864.032	22299
864.164	22360
864.296	22424
864.428	22428
864.559	22371
864.691	22565
864.823	22356
864.954	22386
865.086	22185
865.217	22348
865.349	22291
865.48	22318
865.612	22268
865.743	22382
865.875	22310
866.006	22318
866.137	22337
866.269	22230
866.4	22185
866.531	22280
866.662	22177
866.793	22185
866.924	22169
867.055	22249
867.186	22162
867.317	22147
867.448	22021
867.579	22169
867.71	22112
867.841	21964
867.972	22211
868.103	22131
868.233	22238
868.364	22181
868.495	22299
868.625	22360
868.756	22538
868.886	22291
869.017	22379
869.147	22443
869.278	22428
869.408	22295
869.539	22333
869.669	22493
869.799	22417
869.929	22508
870.06	22603
870.19	22774
870.32	22668
870.45	22828
870.58	22850
870.71	22885
870.84	22991
870.97	22847
871.1	22843
871.23	22980
871.36	23075
871.489	22949
871.619	23048
871.749	22927
871.879	23052
872.008	23258
872.138	23098
872.267	22965
872.397	22915
872.526	22767
872.656	22793
872.785	22877
872.915	23105
873.044	23132
873.173	23014
873.303	23109
873.432	23029
873.561	23178
873.69	22934
873.819	23094
873.948	23098
874.077	23094
874.206	23003
874.335	23044
874.464	23159
874.593	23296
874.722	23246
874.851	23318
874.979	23265
875.108	23334
875.237	23220
875.365	23197
875.494	23227
875.623	23280
875.751	23212
875.88	23273
876.008	23356
876.136	23448
876.265	23630
876.393	23699
876.521	23771
876.65	23722
876.778	23653
876.906	23467
877.034	23611
877.162	23471
877.29	23467
877.418	23676
877.546	23608
877.674	23676
877.802	23566
877.93	23634
878.058	23543
878.185	23463
878.313	23570
878.441	23608
878.568	23406
878.696	23547
878.824	23600
878.951	23741
879.079	23703
879.206	23821
879.333	23767
879.461	23619
879.588	23714
879.715	23805
879.842	23866
879.97	23737
880.097	23478
880.224	23402
880.351	23459
880.478	23524
880.605	23311
880.732	23360
880.859	23710
880.986	23436
881.112	23509
881.239	23288
881.366	23090
881.493	23113
881.619	22980
881.746	22938
881.872	22938
881.999	22980
882.125	22927
882.252	23098
882.378	22968
882.505	23006
882.631	22862
882.757	22607
882.883	22812
883.01	22736
883.136	22561
883.262	22550
883.388	22500
883.514	22459
883.64	22573
883.766	22649
883.892	22440
884.018	22398
884.143	22611
884.269	22645
884.395	22348
884.52	22310
884.646	22299
884.772	22230
884.897	22120
885.023	22215
885.148	22466
885.274	22535
885.399	22379
885.524	22291
885.65	22242
885.775	22242
885.9	22249
886.025	22344
886.15	22295
886.275	22135
886.4	22162
886.525	22196
886.65	22166
886.775	22234
886.9	22337
887.025	22394
887.149	22173
887.274	22032
887.399	22074
887.523	22032
887.648	21876
887.773	21972
887.897	22055
888.021	22086
888.146	21911
888.27	22070
888.395	22128
888.519	22017
888.643	21994
888.767	22074
888.891	21960
889.015	21972
889.139	21915
889.263	21869
889.387	21907
889.511	22002
889.635	21983
889.759	21968
889.883	21694
890.006	21785
890.13	21964
890.254	21747
890.377	21762
890.501	21534
890.624	21542
890.748	21587
890.871	21416
890.995	21370
891.118	21287
891.241	21447
891.364	21386
891.488	21469
891.611	21435
891.734	21313
891.857	21408
891.98	21355
892.103	21332
892.226	21302
892.349	21397
892.471	21176
892.594	21332
892.717	21207
892.839	21249
892.962	21283
893.085	21313
893.207	21336
893.33	21093
893.452	21173
893.575	21272
893.697	21218
893.819	21287
893.941	21511
894.064	21340
894.186	21192
894.308	21127
894.43	21313
894.552	21287
894.674	21359
894.796	21226
894.918	21135
895.04	21161
895.161	21336
895.283	21348
895.405	21207
895.526	21222
895.648	21264
895.769	21355
895.891	21211
896.012	21211
896.134	21230
896.255	21203
896.376	21165
896.498	21283
896.619	21310
896.74	21336
896.861	21260
896.982	21622
897.103	21652
897.224	21386
897.345	21507
897.466	21428
897.587	21469
897.708	21603
897.828	21412
897.949	21386
898.07	21214
898.19	21443
898.311	21477
898.431	21458
898.552	21458
898.672	21481
898.792	21477
898.913	21389
899.033	21230
899.153	21161
899.273	21100
899.393	21245
899.513	21256
899.633	21188
899.753	21188
899.873	20986
899.993	21173
900.113	21077
900.232	21104
900.352	21176
900.472	20979
900.591	20819
900.711	21013
900.83	20887
900.95	20910
901.069	21062
901.189	20876
901.308	20602
901.427	20640
901.546	20469
901.665	20469
901.784	20339
901.904	20400
902.023	20233
902.141	20111
902.26	20046
902.379	20164
902.498	19982
902.617	19864
902.735	19944
902.854	19913
902.973	19909
903.091	19734
903.21	19731
903.328	19655
903.446	19495
903.565	19403
903.683	19407
903.801	19327
903.919	19411
904.038	19472
904.156	19217
904.274	19312
904.392	19103
904.51	19190
904.627	19171
904.745	19213
904.863	19209
904.981	19012
905.098	18833
905.216	18810
905.334	18844
905.451	18909
905.569	18764
905.686	18859
905.803	18935
905.921	18578
906.038	18722
906.155	18661
906.272	18589
906.389	18661
906.506	18448
906.623	18384
906.74	18285
906.857	18273
906.974	18308
907.091	18437
907.208	18494
907.324	18395
907.441	18209
907.557	18129
907.674	18152
907.79	18034
907.907	18129
908.023	18053
908.139	18174
908.256	18045
908.372	18019
908.488	17931
908.604	17828
908.72	17832
908.836	17775
908.952	17874
909.068	17878
909.184	17988
909.3	17798
909.415	17882
909.531	17707
909.647	17585
909.762	17474
909.878	17516
909.993	17509
910.108	17509
910.224	17448
910.339	17547
910.454	17353
910.57	17246
910.685	17292
910.8	17497
910.915	17440
911.03	17337
911.145	17086
911.259	17189
911.374	17090
911.489	17003
911.604	16995
911.718	16889
911.833	16790
911.947	16733
912.062	16744
912.176	16782
912.291	16759
912.405	16786
912.519	17060
912.633	16957
912.748	16805
912.862	16782
912.976	16706
913.09	16558
913.204	16565
913.318	16664
913.431	16725
913.545	16725
913.659	16634
913.772	16538
913.886	16504
914	16447
914.113	16504
914.226	16489
914.34	16519
914.453	16325
914.566	16443
914.68	16314
914.793	16219
914.906	16090
915.019	15998
915.132	15911
915.245	15945
915.358	16013
915.47	15972
915.583	16010
915.696	16032
915.809	16128
915.921	16059
916.034	15892
916.146	15861
916.259	15930
916.371	15994
916.483	15934
916.595	15812
916.708	15728
916.82	15835
916.932	15766
917.044	15705
917.156	15789
917.268	15534
917.38	15606
917.491	15606
917.603	15576
917.715	15576
917.826	15580
917.938	15526
918.049	15435
918.161	15511
918.272	15743
918.384	15652
918.495	15580
918.606	15393
918.717	15298
918.828	15393
918.939	15359
919.05	15325
919.161	15405
919.272	15207
919.383	15207
919.494	15329
919.604	15481
919.715	15401
919.826	15317
919.936	15192
920.047	15401
920.157	15294
920.267	15454
920.378	15310
920.488	15321
920.598	15447
920.708	15466
920.818	15485
920.928	15416
921.038	15519
921.148	15469
921.258	15264
921.368	15165
921.477	15047
921.587	15001
921.697	14918
921.806	14990
921.916	14902
922.025	14564
922.134	14632
922.244	14625
922.353	14693
922.462	14549
922.571	14568
922.68	14389
922.789	14336
922.898	14377
923.007	14278
923.116	14328
923.224	14351
923.333	14305
923.442	14199
923.55	14138
923.659	14142
923.767	14115
923.876	14100
923.984	14161
924.092	13925
924.201	13982
924.309	14062
924.417	14046
924.525	13917
924.633	13967
924.741	14967
924.849	13757
924.956	13879
925.064	13746
925.172	13655
925.279	13677
925.387	13727
925.494	13689
925.602	13811
925.709	13731
925.816	13582
925.924	13605
926.031	13746
926.138	13594
926.245	13670
926.352	13575
926.459	13620
926.566	13590
926.673	13552
926.779	13354
926.886	13343
926.993	13304
927.099	13304
927.206	13240
927.312	13168
927.419	13274
927.525	13213
927.631	13343
927.737	13152
927.843	13084
927.95	13038
928.056	13069
928.162	13091
928.267	13080
928.373	13822
928.479	13160
928.585	12875
928.69	13133
928.796	12977
928.901	12848
929.007	12802
929.112	12928
929.218	12894
929.323	12779
929.428	12810
929.533	12890
929.638	12707
929.743	12741
929.848	12802
929.953	12745
930.058	12642
930.163	12494
930.267	12460
930.372	12540
930.477	12414
930.581	12574
930.685	12486
930.79	12289
930.894	12334
930.998	12289
931.103	12403
931.207	11965
931.311	11920
931.415	11927
931.519	11752
931.623	11608
