Data from test_V78500241_2611.txt Node
Date: Fri Mar 25 15:59:53 CST 2022
User: usil
Spectrometer: V785-0024
Trigger mode: 0
Integration Time (sec): 4.000000E-1
Scans to average: 1
Nonlinearity correction enabled: false
Boxcar width: 0
Storing dark spectrum: false
XAxis mode: Wavelengths
Number of Pixels in Spectrum: 1024
>>>>>Begin Spectral Data<<<<<
801.071	28946
801.214	29075
801.356	28790
801.499	28569
801.641	28573
801.783	28360
801.926	28679
802.068	28596
802.211	28527
802.353	28432
802.496	28238
802.638	28265
802.78	28261
802.923	28215
803.065	28051
803.208	28150
803.35	28234
803.492	28356
803.635	28318
803.777	28261
803.919	28443
804.061	28790
804.204	28462
804.346	28394
804.488	28516
804.63	28489
804.773	28405
804.915	28489
805.057	28626
805.199	28318
805.341	28554
805.483	28653
805.626	28538
805.768	28577
805.91	28550
806.052	28710
806.194	28481
806.336	28957
806.478	28653
806.62	28641
806.762	28919
806.904	28862
807.046	29105
807.188	28991
807.33	29052
807.472	29155
807.614	29048
807.756	29242
807.898	28843
808.04	28923
808.182	28949
808.324	28991
808.465	29064
808.607	29261
808.749	29337
808.891	29444
809.033	29524
809.174	29307
809.316	29353
809.458	29337
809.6	29315
809.741	29356
809.883	29577
810.025	29482
810.166	29638
810.308	29638
810.45	29520
810.591	29573
810.733	29585
810.875	29246
811.016	29273
811.158	29436
811.299	29467
811.441	29577
811.582	29501
811.724	29482
811.865	29299
812.007	29379
812.148	29383
812.29	29528
812.431	29592
812.573	29752
812.714	29653
812.855	29824
812.997	29988
813.138	30186
813.279	30064
813.421	30026
813.562	29809
813.703	29710
813.845	29512
813.986	29273
814.127	29242
814.268	29060
814.41	29071
814.551	29006
814.692	29189
814.833	28938
814.974	29006
815.115	29048
815.256	29018
815.397	28949
815.539	29037
815.68	28774
815.821	28869
815.962	28946
816.103	28885
816.244	28706
816.385	28694
816.526	28645
816.666	28523
816.807	28280
816.948	28481
817.089	28527
817.23	28459
817.371	28409
817.512	28337
817.653	28356
817.793	28337
817.934	28401
818.075	28409
818.216	28379
818.356	28371
818.497	28230
818.638	28162
818.778	28162
818.919	28135
819.06	28173
819.2	28352
819.341	28497
819.481	28398
819.622	28675
819.762	28691
819.903	28698
820.043	28778
820.184	28615
820.324	28596
820.465	28546
820.605	28535
820.746	28459
820.886	28474
821.026	28554
821.167	28538
821.307	28588
821.447	28284
821.588	28394
821.728	28207
821.868	28036
822.008	27812
822.149	27804
822.289	27854
822.429	27762
822.569	27614
822.709	27671
822.849	27507
822.99	27427
823.13	27306
823.27	27416
823.41	27230
823.55	27127
823.69	27211
823.83	27298
823.97	27135
824.11	27028
824.25	27001
824.389	26979
824.529	27188
824.669	27070
824.809	27085
824.949	27173
825.089	27157
825.228	27169
825.368	26880
825.508	27009
825.648	26967
825.787	26937
825.927	26967
826.067	26937
826.206	26918
826.346	26990
826.485	26807
826.625	26914
826.765	27047
826.904	26979
827.044	26606
827.183	26861
827.323	26678
827.462	26651
827.601	26796
827.741	26678
827.88	26640
828.02	26533
828.159	26682
828.298	26773
828.437	26678
828.577	26674
828.716	26682
828.855	26465
828.994	26362
829.134	26362
829.273	26514
829.412	26320
829.551	26324
829.69	26252
829.829	26381
829.968	26442
830.107	26419
830.246	26290
830.385	26271
830.524	26305
830.663	26176
830.802	26054
830.941	25887
831.08	25966
831.219	26062
831.357	26065
831.496	26084
831.635	26012
831.774	26027
831.913	25845
832.051	25772
832.19	25765
832.329	25742
832.467	25715
832.606	25704
832.744	25548
832.883	25590
833.022	25632
833.16	25632
833.299	25704
833.437	25685
833.576	25753
833.714	25727
833.852	25666
833.991	25757
834.129	25788
834.267	25803
834.406	25738
834.544	25731
834.682	25742
834.821	25613
834.959	25951
835.097	25594
835.235	25750
835.373	25693
835.511	25719
835.65	25533
835.788	25601
835.926	25571
836.064	25331
836.202	25426
836.34	25441
836.478	25578
836.615	25479
836.753	25514
836.891	25616
837.029	25460
837.167	25441
837.305	25449
837.443	25373
837.58	25285
837.718	25453
837.856	25308
837.993	25263
838.131	25301
838.269	25240
838.406	25183
838.544	25088
838.681	25046
838.819	24939
838.956	24863
839.094	24802
839.231	24837
839.369	24840
839.506	25053
839.643	25099
839.781	24764
839.918	24734
840.055	24791
840.193	24726
840.33	24658
840.467	24772
840.604	24688
840.742	25027
840.879	24658
841.016	24574
841.153	24650
841.29	24856
841.427	24688
841.564	24722
841.701	24768
841.838	24677
841.975	24513
842.112	24559
842.249	24433
842.385	24483
842.522	24639
842.659	24563
842.796	24391
842.933	24483
843.069	24403
843.206	24426
843.343	24544
843.479	24532
843.616	24448
843.752	24152
843.889	24266
844.025	24308
844.162	24277
844.298	24353
844.435	24296
844.571	24015
844.708	24243
844.844	24361
844.98	24334
845.117	24350
845.253	24140
845.389	24079
845.525	24091
845.661	24083
845.798	23980
845.934	24155
846.07	24030
846.206	24003
846.342	24079
846.478	23786
846.614	23710
846.75	23729
846.886	23687
847.022	23832
847.158	23733
847.294	23627
847.429	23760
847.565	23710
847.701	23904
847.837	23543
847.972	23360
848.108	23452
848.244	23512
848.379	23341
848.515	23220
848.65	23326
848.786	23292
848.921	23208
849.057	23402
849.192	23448
849.328	23269
849.463	23337
849.598	23311
849.734	23147
849.869	23185
850.004	23052
850.14	23025
850.275	22984
850.41	23044
850.545	23041
850.68	23029
850.815	23064
850.95	23105
851.085	23117
851.22	23090
851.355	23033
851.49	23010
851.625	22995
851.76	23060
851.895	23010
852.03	23037
852.165	23025
852.299	22961
852.434	23033
852.569	23132
852.703	23132
852.838	23052
852.973	23166
853.107	23208
853.242	22915
853.376	22908
853.511	22691
853.645	22839
853.78	22828
853.914	22782
854.048	22755
854.183	22900
854.317	22839
854.451	22953
854.585	22869
854.72	22885
854.854	22942
854.988	22889
855.122	22767
855.256	22710
855.39	22850
855.524	22946
855.658	22961
855.792	22904
855.926	22889
856.06	22877
856.194	22877
856.327	22816
856.461	22873
856.595	22755
856.729	22854
856.862	23037
856.996	22854
857.13	22862
857.263	22953
857.397	22961
857.53	22805
857.664	22938
857.797	22869
857.931	22946
858.064	22869
858.197	22820
858.331	22820
858.464	22778
858.597	22873
858.731	22816
858.864	22915
858.997	22786
859.13	22828
859.263	22987
859.396	22915
859.529	22797
859.662	22679
859.795	22915
859.928	22843
860.061	23014
860.194	23117
860.327	22839
860.46	22820
860.592	22953
860.725	23071
860.858	23086
860.99	22896
861.123	22904
861.256	22858
861.388	22934
861.521	23604
861.653	22736
861.786	22713
861.918	22683
862.05	22675
862.183	22831
862.315	22850
862.447	22930
862.58	22778
862.712	22474
862.844	22493
862.976	22653
863.108	22527
863.24	22957
863.372	22580
863.504	22569
863.636	22641
863.768	22630
863.9	22512
864.032	22371
864.164	22405
864.296	22630
864.428	22656
864.559	22622
864.691	22527
864.823	22455
864.954	22436
865.086	22447
865.217	22607
865.349	22375
865.48	22344
865.612	22459
865.743	22596
865.875	22459
866.006	22367
866.137	22432
866.269	22382
866.4	22405
866.531	22246
866.662	22303
866.793	22478
866.924	22363
867.055	22417
867.186	22287
867.317	22287
867.448	22257
867.579	22363
867.71	22375
867.841	22226
867.972	22375
868.103	22272
868.233	22352
868.364	22348
868.495	22375
868.625	22679
868.756	22637
868.886	22459
869.017	22470
869.147	22691
869.278	22630
869.408	22519
869.539	22535
869.669	22622
869.799	22797
869.929	22752
870.06	22672
870.19	23006
870.32	22790
870.45	22919
870.58	22972
870.71	23006
870.84	23033
870.97	23052
871.1	23052
871.23	23094
871.36	23075
871.489	23170
871.619	23094
871.749	23071
871.879	23166
872.008	23216
872.138	23208
872.267	23143
872.397	23056
872.526	23006
872.656	23018
872.785	23006
872.915	23292
873.044	23223
873.173	23166
873.303	23090
873.432	23288
873.561	23258
873.69	23189
873.819	23117
873.948	23231
874.077	23231
874.206	23254
874.335	23227
874.464	23364
874.593	23448
874.722	23334
874.851	23433
874.979	23520
875.108	23505
875.237	23436
875.365	23417
875.494	23444
875.623	23478
875.751	23311
875.88	23486
876.008	23592
876.136	23680
876.265	23733
876.393	23969
876.521	23863
876.65	23863
876.778	23828
876.906	23775
877.034	23726
877.162	23771
877.29	23767
877.418	23760
877.546	23805
877.674	23889
877.802	23695
877.93	23866
878.058	23775
878.185	23577
878.313	23764
878.441	23687
878.568	23585
878.696	23710
878.824	23828
878.951	23722
879.079	24007
879.206	24114
879.333	23901
879.461	23767
879.588	23756
879.715	23878
879.842	23923
879.97	23817
880.097	23638
880.224	23608
880.351	23490
880.478	23596
880.605	23619
880.732	23520
880.859	23710
880.986	23684
881.112	23600
881.239	23406
881.366	23246
881.493	23311
881.619	23094
881.746	23170
881.872	23071
881.999	23121
882.125	23010
882.252	23162
882.378	23147
882.505	23124
882.631	22972
882.757	22763
882.883	22843
883.01	22763
883.136	22767
883.262	22668
883.388	22603
883.514	22816
883.64	22862
883.766	22641
883.892	22504
884.018	22656
884.143	22744
884.269	22782
884.395	22409
884.52	22356
884.646	22417
884.772	22367
884.897	22322
885.023	22348
885.148	22504
885.274	22561
885.399	22557
885.524	22462
885.65	22382
885.775	22390
885.9	22497
886.025	22497
886.15	22504
886.275	22337
886.4	22394
886.525	22284
886.65	22344
886.775	22329
886.9	22535
887.025	22618
887.149	22493
887.274	22192
887.399	22112
887.523	22177
887.648	22150
887.773	22093
887.897	22173
888.021	22135
888.146	22017
888.27	22177
888.395	22265
888.519	22078
888.643	22253
888.767	22169
888.891	22101
889.015	21888
889.139	22002
889.263	21979
889.387	22090
889.511	22147
889.635	22154
889.759	22051
889.883	22017
890.006	21907
890.13	21998
890.254	21926
890.377	21926
890.501	21625
890.624	21633
890.748	21816
890.871	21698
890.995	21625
891.118	21485
891.241	21530
891.364	21477
891.488	21690
891.611	21500
891.734	21500
891.857	21507
891.98	21431
892.103	21500
892.226	21469
892.349	21401
892.471	21233
892.594	21443
892.717	21351
892.839	21272
892.962	21393
893.085	21500
893.207	21348
893.33	21241
893.452	21348
893.575	21355
893.697	21363
893.819	21561
893.941	21576
894.064	21473
894.186	21302
894.308	21272
894.43	21450
894.552	21603
894.674	21321
894.796	21359
894.918	21397
895.04	21237
895.161	21401
895.283	21416
895.405	21279
895.526	21329
895.648	21348
895.769	21321
895.891	21401
896.012	21359
896.134	21393
896.255	21275
896.376	21252
896.498	21241
896.619	21389
896.74	21287
896.861	21412
896.982	21789
897.103	21717
897.224	21633
897.345	21492
897.466	21488
897.587	21523
897.708	21663
897.828	21530
897.949	21496
898.07	21310
898.19	21435
898.311	21583
898.431	21568
898.552	21496
898.672	21603
898.792	21603
898.913	21625
899.033	21523
899.153	21332
899.273	21310
899.393	21230
899.513	21275
899.633	21313
899.753	21344
899.873	21131
899.993	21298
900.113	21150
900.232	21230
900.352	21157
900.472	21077
900.591	21055
900.711	21142
900.83	21047
900.95	21135
901.069	21165
901.189	20952
901.308	20781
901.427	20549
901.546	20594
901.665	20716
901.784	20735
901.904	20415
902.023	20317
902.141	20206
902.26	20058
902.379	20081
902.498	20183
902.617	20065
902.735	20065
902.854	19928
902.973	20039
903.091	19852
903.21	19807
903.328	19753
903.446	19704
903.565	19594
903.683	19533
903.801	19350
903.919	19419
904.038	19525
904.156	19365
904.274	19350
904.392	19422
904.51	19289
904.627	19316
904.745	19293
904.863	19422
904.981	19168
905.098	18966
905.216	18958
905.334	19057
905.451	18901
905.569	19042
905.686	19034
905.803	18989
905.921	18783
906.038	18848
906.155	18840
906.272	18650
906.389	18661
906.506	18582
906.623	18589
906.74	18334
906.857	18429
906.974	18338
907.091	18593
907.208	18521
907.324	18532
907.441	18334
907.557	18346
907.674	18148
907.79	18072
907.907	18228
908.023	18197
908.139	18190
908.256	18197
908.372	18159
908.488	18136
908.604	17904
908.72	17912
908.836	17836
908.952	17885
909.068	18011
909.184	17992
909.3	17984
909.415	17965
909.531	17885
909.647	17615
909.762	17726
909.878	17524
909.993	17600
910.108	17524
910.224	17581
910.339	17577
910.454	17478
910.57	17429
910.685	17452
910.8	17596
910.915	17562
911.03	17436
911.145	17200
911.259	17254
911.374	17113
911.489	17102
911.604	17132
911.718	16930
911.833	16873
911.947	16816
912.062	16733
912.176	16877
912.291	16923
912.405	16934
912.519	17079
912.633	17029
912.748	16968
912.862	16824
912.976	16725
913.09	16649
913.204	16618
913.318	16812
913.431	16778
913.545	16717
913.659	16877
913.772	16691
913.886	16550
914	16508
914.113	16554
914.226	16569
914.34	16596
914.453	16325
914.566	16519
914.68	16371
914.793	16413
914.906	16105
915.019	16181
915.132	16048
915.245	16074
915.358	16055
915.47	16131
915.583	16021
915.696	16101
915.809	16162
915.921	16215
916.034	16074
916.146	15968
916.259	15956
916.371	15949
916.483	15926
916.595	15876
916.708	15915
916.82	16006
916.932	15895
917.044	15869
917.156	15846
917.268	15690
917.38	15663
917.491	15686
917.603	15637
917.715	15698
917.826	15808
917.938	15618
918.049	15564
918.161	15705
918.272	15679
918.384	15739
918.495	15625
918.606	15481
918.717	15351
918.828	15439
918.939	15477
919.05	15420
919.161	15378
919.272	15249
919.383	15348
919.494	15405
919.604	15538
919.715	15367
919.826	15336
919.936	15351
920.047	15428
920.157	15317
920.267	15637
920.378	15405
920.488	15302
920.598	15614
920.708	15584
920.818	15447
920.928	15496
921.038	15591
921.148	15599
921.258	15336
921.368	15157
921.477	15135
921.587	15039
921.697	14990
921.806	15203
921.916	14952
922.025	14826
922.134	14762
922.244	14663
922.353	14735
922.462	14602
922.571	14602
922.68	14423
922.789	14370
922.898	14412
923.007	14305
923.116	14396
923.224	14351
923.333	14358
923.442	14237
923.55	14153
923.659	14229
923.767	14275
923.876	14130
923.984	14225
924.092	14069
924.201	14081
924.309	14142
924.417	14069
924.525	14096
924.633	14012
924.741	14967
924.849	13772
924.956	13947
925.064	13719
925.172	13700
925.279	13769
925.387	13784
925.494	13708
925.602	13807
925.709	13803
925.816	13662
925.924	13636
926.031	13757
926.138	13689
926.245	13719
926.352	13597
926.459	13708
926.566	13578
926.673	13609
926.779	13354
926.886	13449
926.993	13407
927.099	13297
927.206	13297
927.312	13152
927.419	13297
927.525	13221
927.631	13206
927.737	13190
927.843	13141
927.95	12966
928.056	13023
928.162	13118
928.267	13050
928.373	13578
928.479	13141
928.585	12916
928.69	13027
928.796	13145
928.901	12890
929.007	12852
929.112	12973
929.218	12837
929.323	12909
929.428	12772
929.533	12916
929.638	12753
929.743	12768
929.848	12825
929.953	12821
930.058	12627
930.163	12456
930.267	12517
930.372	12574
930.477	12380
930.581	12582
930.685	12410
930.79	12228
930.894	12357
930.998	12372
931.103	12429
931.207	12064
931.311	11939
931.415	11847
931.519	11764
931.623	11680
