Data from test_V78500241_3249.txt Node
Date: Fri Mar 25 16:04:18 CST 2022
User: usil
Spectrometer: V785-0024
Trigger mode: 0
Integration Time (sec): 4.000000E-1
Scans to average: 1
Nonlinearity correction enabled: false
Boxcar width: 0
Storing dark spectrum: false
XAxis mode: Wavelengths
Number of Pixels in Spectrum: 1024
>>>>>Begin Spectral Data<<<<<
801.071	28885
801.214	28835
801.356	28672
801.499	28691
801.641	28557
801.783	28675
801.926	28478
802.068	28489
802.211	28379
802.353	28352
802.496	28333
802.638	28295
802.78	28124
802.923	28067
803.065	28010
803.208	28139
803.35	28177
803.492	28261
803.635	28337
803.777	28375
803.919	28485
804.061	28824
804.204	28538
804.346	28497
804.488	28223
804.63	28428
804.773	28303
804.915	28466
805.057	28592
805.199	28394
805.341	28557
805.483	28550
805.626	28656
805.768	28489
805.91	28656
806.052	28626
806.194	28508
806.336	28797
806.478	28706
806.62	28634
806.762	28805
806.904	28927
807.046	29025
807.188	29075
807.33	29094
807.472	29075
807.614	28911
807.756	29029
807.898	29029
808.04	28809
808.182	28900
808.324	28847
808.465	28930
808.607	29200
808.749	29231
808.891	29273
809.033	29444
809.174	29296
809.316	29356
809.458	29345
809.6	29231
809.741	29356
809.883	29471
810.025	29634
810.166	29562
810.308	29566
810.45	29619
810.591	29554
810.733	29353
810.875	29425
811.016	29170
811.158	29235
811.299	29436
811.441	29474
811.582	29589
811.724	29459
811.865	29387
812.007	29353
812.148	29337
812.29	29429
812.431	29554
812.573	29741
812.714	29745
812.855	29832
812.997	29977
813.138	30159
813.279	30022
813.421	29775
813.562	29889
813.703	29562
813.845	29566
813.986	29246
814.127	29067
814.268	29052
814.41	29140
814.551	29037
814.692	29067
814.833	29071
814.974	28995
815.115	29109
815.256	28965
815.397	28976
815.539	28972
815.68	29003
815.821	28801
815.962	28923
816.103	28786
816.244	28828
816.385	28630
816.526	28603
816.666	28341
816.807	28325
816.948	28500
817.089	28436
817.23	28363
817.371	28440
817.512	28367
817.653	28314
817.793	28322
817.934	28314
818.075	28367
818.216	28424
818.356	28257
818.497	28356
818.638	28116
818.778	28299
818.919	28090
819.06	28287
819.2	28280
819.341	28352
819.481	28352
819.622	28611
819.762	28763
819.903	28588
820.043	28508
820.184	28508
820.324	28561
820.465	28668
820.605	28375
820.746	28398
820.886	28466
821.026	28485
821.167	28497
821.307	28428
821.447	28447
821.588	28322
821.728	28150
821.868	27979
822.008	27732
822.149	27987
822.289	27888
822.429	27572
822.569	27576
822.709	27473
822.849	27401
822.99	27351
823.13	27313
823.27	27447
823.41	27150
823.55	27093
823.69	27165
823.83	27283
823.97	27077
824.11	27081
824.25	27093
824.389	27001
824.529	27043
824.669	27043
824.809	27096
824.949	27252
825.089	27146
825.228	27096
825.368	26853
825.508	26826
825.648	26826
825.787	26899
825.927	26887
826.067	26849
826.206	26925
826.346	26963
826.485	27089
826.625	26887
826.765	27081
826.904	26895
827.044	26689
827.183	26804
827.323	26625
827.462	26678
827.601	26735
827.741	26549
827.88	26746
828.02	26651
828.159	26526
828.298	26594
828.437	26659
828.577	26640
828.716	26663
828.855	26473
828.994	26286
829.134	26385
829.273	26374
829.412	26195
829.551	26225
829.69	26332
829.829	26374
829.968	26305
830.107	26404
830.246	26415
830.385	26328
830.524	26214
830.663	26008
830.802	26039
830.941	25970
831.08	25970
831.219	25997
831.357	26035
831.496	26161
831.635	25993
831.774	25902
831.913	25769
832.051	25681
832.19	25780
832.329	25753
832.467	25609
832.606	25582
832.744	25597
832.883	25578
833.022	25514
833.16	25613
833.299	25552
833.437	25681
833.576	25563
833.714	25677
833.852	25578
833.991	25746
834.129	25689
834.267	25734
834.406	25681
834.544	25753
834.682	25696
834.821	25556
834.959	25795
835.097	25552
835.235	25681
835.373	25746
835.511	25540
835.65	25529
835.788	25495
835.926	25331
836.064	25350
836.202	25339
836.34	25441
836.478	25632
836.615	25521
836.753	25548
836.891	25556
837.029	25502
837.167	25365
837.305	25308
837.443	25476
837.58	25209
837.718	25339
837.856	25396
837.993	25327
838.131	25217
838.269	25122
838.406	25194
838.544	25122
838.681	25004
838.819	24837
838.956	24848
839.094	24848
839.231	24757
839.369	25050
839.506	25164
839.643	25084
839.781	24875
839.918	24753
840.055	24738
840.193	24650
840.33	24620
840.467	24719
840.604	24684
840.742	24840
840.879	24494
841.016	24700
841.153	24547
841.29	24829
841.427	24661
841.564	24646
841.701	24650
841.838	24604
841.975	24646
842.112	24620
842.249	24498
842.385	24490
842.522	24677
842.659	24585
842.796	24513
842.933	24418
843.069	24422
843.206	24388
843.343	24525
843.479	24372
843.616	24353
843.752	24121
843.889	24273
844.025	24235
844.162	24159
844.298	24346
844.435	24239
844.571	24117
844.708	24266
844.844	24304
844.98	24350
845.117	24327
845.253	24216
845.389	24114
845.525	24106
845.661	24045
845.798	23927
845.934	23992
846.07	23946
846.206	24007
846.342	23950
846.478	23916
846.614	23691
846.75	23775
846.886	23703
847.022	23786
847.158	23703
847.294	23691
847.429	23756
847.565	23646
847.701	23923
847.837	23383
847.972	23318
848.108	23486
848.244	23463
848.379	23273
848.515	23360
848.65	23292
848.786	23322
848.921	23254
849.057	23311
849.192	23360
849.328	23280
849.463	23242
849.598	23181
849.734	23220
849.869	23124
850.004	22930
850.14	23071
850.275	23098
850.41	22934
850.545	23014
850.68	22984
850.815	23052
850.95	22999
851.085	23258
851.22	23193
851.355	22847
851.49	22858
851.625	23014
851.76	22915
851.895	22866
852.03	22961
852.165	23048
852.299	23048
852.434	23064
852.569	22938
852.703	22927
852.838	23121
852.973	23071
853.107	23109
853.242	23067
853.376	22820
853.511	22721
853.645	22911
853.78	22938
853.914	23022
854.048	22782
854.183	22801
854.317	22915
854.451	23018
854.585	22850
854.72	22850
854.854	22847
854.988	22885
855.122	22816
855.256	22790
855.39	22828
855.524	22953
855.658	22938
855.792	22873
855.926	22782
856.06	22934
856.194	22896
856.327	22812
856.461	22774
856.595	22706
856.729	22809
856.862	22987
856.996	22961
857.13	22904
857.263	22942
857.397	22965
857.53	22786
857.664	22831
857.797	22984
857.931	22816
858.064	22908
858.197	22987
858.331	22805
858.464	22805
858.597	22687
858.731	22831
858.864	22786
858.997	22778
859.13	22892
859.263	22930
859.396	22896
859.529	22668
859.662	22812
859.795	22911
859.928	22892
860.061	23029
860.194	22957
860.327	22892
860.46	22862
860.592	22934
860.725	23048
860.858	22938
860.99	22915
861.123	22831
861.256	22839
861.388	22854
861.521	23493
861.653	22607
861.786	22694
861.918	22736
862.05	22634
862.183	22782
862.315	22702
862.447	22866
862.58	22717
862.712	22630
862.844	22447
862.976	22694
863.108	22691
863.24	22946
863.372	22474
863.504	22592
863.636	22607
863.768	22557
863.9	22523
864.032	22527
864.164	22580
864.296	22554
864.428	22512
864.559	22634
864.691	22634
864.823	22538
864.954	22470
865.086	22580
865.217	22344
865.349	22276
865.48	22478
865.612	22363
865.743	22592
865.875	22375
866.006	22436
866.137	22363
866.269	22402
866.4	22417
866.531	22390
866.662	22230
866.793	22295
866.924	22306
867.055	22375
867.186	22405
867.317	22375
867.448	22253
867.579	22325
867.71	22261
867.841	22405
867.972	22318
868.103	22154
868.233	22394
868.364	22185
868.495	22386
868.625	22580
868.756	22656
868.886	22455
869.017	22546
869.147	22569
869.278	22702
869.408	22527
869.539	22580
869.669	22611
869.799	22710
869.929	22675
870.06	22721
870.19	22930
870.32	22782
870.45	22953
870.58	23003
870.71	23132
870.84	23071
870.97	22946
871.1	22957
871.23	23098
871.36	23105
871.489	23003
871.619	23170
871.749	23174
871.879	23155
872.008	23235
872.138	23151
872.267	23189
872.397	23181
872.526	23025
872.656	22991
872.785	23048
872.915	23151
873.044	23383
873.173	23174
873.303	23261
873.432	23261
873.561	23318
873.69	23296
873.819	23197
873.948	23299
874.077	23258
874.206	23117
874.335	23162
874.464	23269
874.593	23493
874.722	23387
874.851	23516
874.979	23474
875.108	23490
875.237	23364
875.365	23284
875.494	23227
875.623	23497
875.751	23398
875.88	23486
876.008	23516
876.136	23512
876.265	23756
876.393	23931
876.521	23893
876.65	23824
876.778	23809
876.906	23722
877.034	23710
877.162	23760
877.29	23767
877.418	23798
877.546	23809
877.674	23676
877.802	23737
877.93	23703
878.058	23665
878.185	23554
878.313	23710
878.441	23615
878.568	23554
878.696	23665
878.824	23756
878.951	23718
879.079	23878
879.206	24079
879.333	23904
879.461	23786
879.588	23999
879.715	23821
879.842	23931
879.97	23885
880.097	23573
880.224	23657
880.351	23680
880.478	23528
880.605	23482
880.732	23505
880.859	23745
880.986	23543
881.112	23695
881.239	23372
881.366	23372
881.493	23185
881.619	23067
881.746	23204
881.872	22991
881.999	23124
882.125	23029
882.252	23155
882.378	23147
882.505	23178
882.631	22942
882.757	22778
882.883	22957
883.01	22831
883.136	22744
883.262	22672
883.388	22698
883.514	22835
883.64	22828
883.766	22774
883.892	22459
884.018	22626
884.143	22835
884.269	22782
884.395	22485
884.52	22466
884.646	22337
884.772	22405
884.897	22333
885.023	22478
885.148	22497
885.274	22459
885.399	22428
885.524	22493
885.65	22371
885.775	22447
885.9	22291
886.025	22478
886.15	22432
886.275	22455
886.4	22314
886.525	22413
886.65	22371
886.775	22268
886.9	22455
887.025	22588
887.149	22341
887.274	22287
887.399	22124
887.523	22188
887.648	22238
887.773	22124
887.897	22276
888.021	22078
888.146	22112
888.27	22166
888.395	22211
888.519	22166
888.643	22211
888.767	22150
888.891	22040
889.015	21934
889.139	22021
889.263	22021
889.387	22070
889.511	22219
889.635	22158
889.759	22059
889.883	22101
890.006	21998
890.13	22051
890.254	21899
890.377	21854
890.501	21652
890.624	21629
890.748	21736
890.871	21679
890.995	21450
891.118	21450
891.241	21500
891.364	21549
891.488	21538
891.611	21526
891.734	21466
891.857	21762
891.98	21549
892.103	21454
892.226	21538
892.349	21458
892.471	21195
892.594	21473
892.717	21401
892.839	21310
892.962	21378
893.085	21416
893.207	21447
893.33	21332
893.452	21291
893.575	21488
893.697	21207
893.819	21519
893.941	21538
894.064	21504
894.186	21348
894.308	21325
894.43	21469
894.552	21568
894.674	21344
894.796	21302
894.918	21313
895.04	21268
895.161	21496
895.283	21359
895.405	21306
895.526	21332
895.648	21294
895.769	21450
895.891	21405
896.012	21431
896.134	21454
896.255	21355
896.376	21336
896.498	21397
896.619	21420
896.74	21416
896.861	21321
896.982	21633
897.103	21827
897.224	21679
897.345	21557
897.466	21481
897.587	21549
897.708	21682
897.828	21545
897.949	21511
898.07	21367
898.19	21511
898.311	21610
898.431	21481
898.552	21504
898.672	21591
898.792	21545
898.913	21564
899.033	21420
899.153	21260
899.273	21344
899.393	21192
899.513	21386
899.633	21237
899.753	21359
899.873	21397
899.993	21401
900.113	21233
900.232	21283
900.352	21230
900.472	21089
900.591	21017
900.711	21081
900.83	21013
900.95	21070
901.069	21047
901.189	20899
901.308	20815
901.427	20602
901.546	20648
901.665	20583
901.784	20564
901.904	20537
902.023	20309
902.141	20309
902.26	20210
902.379	20229
902.498	20100
902.617	20096
902.735	20199
902.854	20016
902.973	20043
903.091	19845
903.21	19738
903.328	19776
903.446	19563
903.565	19597
903.683	19586
903.801	19388
903.919	19369
904.038	19400
904.156	19285
904.274	19434
904.392	19316
904.51	19331
904.627	19331
904.745	19266
904.863	19476
904.981	19110
905.098	19023
905.216	19015
905.334	19023
905.451	18973
905.569	18901
905.686	18947
905.803	18913
905.921	18673
906.038	18871
906.155	18833
906.272	18745
906.389	18795
906.506	18540
906.623	18445
906.74	18563
906.857	18372
906.974	18429
907.091	18559
907.208	18658
907.324	18555
907.441	18479
907.557	18258
907.674	18308
907.79	18205
907.907	18174
908.023	18239
908.139	18315
908.256	18209
908.372	18095
908.488	18129
908.604	17851
908.72	17897
908.836	18019
908.952	17874
909.068	17965
909.184	17961
909.3	17843
909.415	17939
909.531	17855
909.647	17729
909.762	17680
909.878	17592
909.993	17646
910.108	17551
910.224	17615
910.339	17611
910.454	17440
910.57	17448
910.685	17307
910.8	17611
910.915	17547
911.03	17334
911.145	17231
911.259	17231
911.374	17246
911.489	17159
911.604	17109
911.718	16934
911.833	16942
911.947	16809
912.062	16809
912.176	16946
912.291	16866
912.405	16896
912.519	17128
912.633	17197
912.748	17006
912.862	16900
912.976	16763
913.09	16611
913.204	16767
913.318	16790
913.431	16946
913.545	16793
913.659	16831
913.772	16641
913.886	16599
914	16485
914.113	16675
914.226	16618
914.34	16569
914.453	16443
914.566	16542
914.68	16459
914.793	16402
914.906	16109
915.019	16188
915.132	16002
915.245	16082
915.358	16177
915.47	16112
915.583	16074
915.696	16112
915.809	16230
915.921	16166
916.034	16025
916.146	16025
916.259	15960
916.371	16120
916.483	15987
916.595	15934
916.708	15812
916.82	15816
916.932	15930
917.044	15949
917.156	15884
917.268	15698
917.38	15728
917.491	15759
917.603	15652
917.715	15747
917.826	15861
917.938	15622
918.049	15561
918.161	15652
918.272	15762
918.384	15747
918.495	15682
918.606	15545
918.717	15393
918.828	15454
918.939	15488
919.05	15408
919.161	15405
919.272	15211
919.383	15287
919.494	15466
919.604	15686
919.715	15450
919.826	15374
919.936	15408
920.047	15420
920.157	15397
920.267	15625
920.378	15389
920.488	15401
920.598	15515
920.708	15709
920.818	15447
920.928	15519
921.038	15584
921.148	15584
921.258	15332
921.368	15131
921.477	15157
921.587	15131
921.697	14906
921.806	15157
921.916	15009
922.025	14762
922.134	14781
922.244	14651
922.353	14754
922.462	14541
922.571	14560
922.68	14412
922.789	14301
922.898	14442
923.007	14320
923.116	14450
923.224	14343
923.333	14313
923.442	14176
923.55	14202
923.659	14221
923.767	14248
923.876	14214
923.984	14282
924.092	14054
924.201	14126
924.309	14081
924.417	14005
924.525	14050
924.633	14035
924.741	14792
924.849	13799
924.956	13936
925.064	13776
925.172	13712
925.279	13689
925.387	13753
925.494	13814
925.602	13852
925.709	13776
925.816	13613
925.924	13666
926.031	13788
926.138	13704
926.245	13742
926.352	13578
926.459	13632
926.566	13624
926.673	13620
926.779	13502
926.886	13495
926.993	13381
927.099	13358
927.206	13297
927.312	13194
927.419	13346
927.525	13240
927.631	13362
927.737	13160
927.843	13103
927.95	12935
928.056	13088
928.162	13190
928.267	13069
928.373	13639
928.479	13202
928.585	12962
928.69	13057
928.796	13072
928.901	12909
929.007	12806
929.112	12985
929.218	12947
929.323	12821
929.428	12757
929.533	12863
929.638	12635
929.743	12859
929.848	12768
929.953	12806
930.058	12593
930.163	12479
930.267	12433
930.372	12604
930.477	12464
930.581	12631
930.685	12525
930.79	12399
930.894	12311
930.998	12380
931.103	12410
931.207	12114
931.311	12038
931.415	11901
931.519	11703
931.623	11737
