Data from test_V78500241_462.txt Node
Date: Fri Mar 25 15:45:00 CST 2022
User: usil
Spectrometer: V785-0024
Trigger mode: 0
Integration Time (sec): 4.000000E-1
Scans to average: 1
Nonlinearity correction enabled: false
Boxcar width: 0
Storing dark spectrum: false
XAxis mode: Wavelengths
Number of Pixels in Spectrum: 1024
>>>>>Begin Spectral Data<<<<<
801.071	27789
801.214	27671
801.356	27386
801.499	27462
801.641	27233
801.783	27237
801.926	27344
802.068	27268
802.211	27252
802.353	27161
802.496	26956
802.638	26971
802.78	26902
802.923	26800
803.065	26796
803.208	26906
803.35	26811
803.492	26963
803.635	26967
803.777	26887
803.919	26895
804.061	27233
804.204	26963
804.346	26990
804.488	26921
804.63	27005
804.773	26895
804.915	26883
805.057	27199
805.199	26956
805.341	27055
805.483	27169
805.626	26986
805.768	27005
805.91	27074
806.052	27005
806.194	27055
806.336	27298
806.478	27150
806.62	27142
806.762	27165
806.904	27462
807.046	27561
807.188	27625
807.33	27660
807.472	27671
807.614	27488
807.756	27568
807.898	27393
808.04	27389
808.182	27302
808.324	27329
808.465	27344
808.607	27473
808.749	27747
808.891	27755
809.033	27964
809.174	27842
809.316	27808
809.458	27865
809.6	27823
809.741	27770
809.883	27846
810.025	27922
810.166	28006
810.308	28010
810.45	28082
810.591	27941
810.733	27789
810.875	27743
811.016	27675
811.158	27743
811.299	27701
811.441	28082
811.582	27960
811.724	27785
811.865	27705
812.007	27743
812.148	27781
812.29	27728
812.431	27842
812.573	28112
812.714	28063
812.855	28325
812.997	28489
813.138	28565
813.279	28329
813.421	28261
813.562	28147
813.703	28063
813.845	28013
813.986	27751
814.127	27439
814.268	27389
814.41	27477
814.551	27310
814.692	27618
814.833	27237
814.974	27397
815.115	27515
815.256	27275
815.397	27203
815.539	27351
815.68	27264
815.821	27123
815.962	27169
816.103	27146
816.244	27096
816.385	26998
816.526	27077
816.666	26644
816.807	26773
816.948	26670
817.089	26781
817.23	26720
817.371	26708
817.512	26701
817.653	26663
817.793	26648
817.934	26739
818.075	26769
818.216	26598
818.356	26731
818.497	26613
818.638	26442
818.778	26518
818.919	26351
819.06	26442
819.2	26549
819.341	26678
819.481	26667
819.622	26937
819.762	26933
819.903	26857
820.043	26800
820.184	26883
820.324	26674
820.465	26823
820.605	26781
820.746	26716
820.886	26663
821.026	26743
821.167	26807
821.307	26834
821.447	26773
821.588	26701
821.728	26511
821.868	26351
822.008	26244
822.149	26058
822.289	26164
822.429	25852
822.569	25818
822.709	25772
822.849	25666
822.99	25696
823.13	25601
823.27	25658
823.41	25533
823.55	25312
823.69	25392
823.83	25514
823.97	25434
824.11	25278
824.25	25312
824.389	25232
824.529	25346
824.669	25327
824.809	25540
824.949	25343
825.089	25472
825.228	25453
825.368	25175
825.508	25168
825.648	25228
825.787	25301
825.927	25187
826.067	25107
826.206	25004
826.346	25137
826.485	25221
826.625	25168
826.765	25148
826.904	25103
827.044	24897
827.183	24909
827.323	24738
827.462	24905
827.601	24863
827.741	24939
827.88	24916
828.02	24745
828.159	24856
828.298	24966
828.437	24856
828.577	24760
828.716	24848
828.855	24696
828.994	24563
829.134	24445
829.273	24563
829.412	24578
829.551	24544
829.69	24547
829.829	24707
829.968	24757
830.107	24521
830.246	24486
830.385	24437
830.524	24654
830.663	24330
830.802	24273
830.941	23958
831.08	24129
831.219	24254
831.357	24171
831.496	24483
831.635	24121
831.774	24079
831.913	23999
832.051	23996
832.19	23889
832.329	23977
832.467	23870
832.606	23874
832.744	23840
832.883	23824
833.022	23767
833.16	23832
833.299	23882
833.437	23783
833.576	23859
833.714	23912
833.852	23897
833.991	23863
834.129	23984
834.267	23859
834.406	23870
834.544	23950
834.682	23790
834.821	23805
834.959	23977
835.097	23866
835.235	23961
835.373	23771
835.511	23866
835.65	23680
835.788	23695
835.926	23535
836.064	23440
836.202	23539
836.34	23646
836.478	23581
836.615	23634
836.753	23798
836.891	23748
837.029	23756
837.167	23676
837.305	23585
837.443	23604
837.58	23543
837.718	23638
837.856	23486
837.993	23421
838.131	23505
838.269	23391
838.406	23414
838.544	23349
838.681	23200
838.819	23109
838.956	23010
839.094	22991
839.231	22972
839.369	23181
839.506	23379
839.643	23235
839.781	22946
839.918	23033
840.055	23010
840.193	23010
840.33	22953
840.467	22923
840.604	22915
840.742	23178
840.879	22866
841.016	22862
841.153	22771
841.29	23067
841.427	22755
841.564	23086
841.701	22999
841.838	22911
841.975	22767
842.112	22763
842.249	22733
842.385	22672
842.522	22839
842.659	22820
842.796	22706
842.933	22645
843.069	22668
843.206	22519
843.343	22626
843.479	22660
843.616	22660
843.752	22512
843.889	22489
844.025	22596
844.162	22375
844.298	22398
844.435	22318
844.571	22489
844.708	22538
844.844	22561
844.98	22611
845.117	22470
845.253	22367
845.389	22211
845.525	22272
845.661	22375
845.798	22150
845.934	22223
846.07	22207
846.206	22215
846.342	22447
846.478	22200
846.614	21949
846.75	21827
846.886	21892
847.022	21915
847.158	21903
847.294	21907
847.429	21934
847.565	21831
847.701	22177
847.837	21686
847.972	21587
848.108	21686
848.244	21698
848.379	21603
848.515	21549
848.65	21370
848.786	21481
848.921	21545
849.057	21652
849.192	21614
849.328	21469
849.463	21538
849.598	21397
849.734	21283
849.869	21336
850.004	21374
850.14	21287
850.275	21291
850.41	21321
850.545	21294
850.68	21154
850.815	21252
850.95	21188
851.085	21420
851.22	21367
851.355	21321
851.49	21157
851.625	21283
851.76	21287
851.895	21252
852.03	21233
852.165	21348
852.299	21370
852.434	21310
852.569	21154
852.703	21306
852.838	21298
852.973	21401
853.107	21401
853.242	21176
853.376	21093
853.511	21020
853.645	21020
853.78	21256
853.914	21032
854.048	21066
854.183	21104
854.317	21131
854.451	21367
854.585	20990
854.72	21074
854.854	21116
854.988	21032
855.122	21062
855.256	20967
855.39	21032
855.524	21119
855.658	21047
855.792	21085
855.926	21070
856.06	20994
856.194	21165
856.327	21093
856.461	21032
856.595	21043
856.729	21062
856.862	21138
856.996	21116
857.13	21138
857.263	21241
857.397	21123
857.53	21176
857.664	21089
857.797	21070
857.931	21116
858.064	20982
858.197	21260
858.331	21051
858.464	20979
858.597	20937
858.731	21005
858.864	21081
858.997	21062
859.13	21108
859.263	21096
859.396	21154
859.529	21131
859.662	21085
859.795	21017
859.928	21043
860.061	21256
860.194	21283
860.327	21047
860.46	21032
860.592	21211
860.725	21222
860.858	21138
860.99	21157
861.123	21028
861.256	20929
861.388	20937
861.521	21667
861.653	20952
861.786	20861
861.918	20849
862.05	21093
862.183	21017
862.315	21051
862.447	21123
862.58	20990
862.712	20796
862.844	20785
862.976	20777
863.108	20864
863.24	21310
863.372	20807
863.504	20785
863.636	20743
863.768	20796
863.9	20746
864.032	20708
864.164	20731
864.296	20773
864.428	20853
864.559	20773
864.691	20838
864.823	20754
864.954	20735
865.086	20678
865.217	20659
865.349	20617
865.48	20663
865.612	20693
865.743	20796
865.875	20781
866.006	20659
866.137	20556
866.269	20686
866.4	20632
866.531	20655
866.662	20537
866.793	20594
866.924	20629
867.055	20590
867.186	20606
867.317	20545
867.448	20579
867.579	20571
867.71	20507
867.841	20602
867.972	20568
868.103	20518
868.233	20571
868.364	20655
868.495	20708
868.625	20823
868.756	20887
868.886	20819
869.017	20842
869.147	20975
869.278	20998
869.408	20712
869.539	20781
869.669	20845
869.799	20887
869.929	20906
870.06	20910
870.19	21142
870.32	21116
870.45	21256
870.58	21195
870.71	21268
870.84	21313
870.97	21317
871.1	21264
871.23	21393
871.36	21526
871.489	21294
871.619	21336
871.749	21416
871.879	21507
872.008	21439
872.138	21511
872.267	21408
872.397	21260
872.526	21222
872.656	21310
872.785	21283
872.915	21424
873.044	21599
873.173	21519
873.303	21496
873.432	21538
873.561	21564
873.69	21485
873.819	21488
873.948	21488
874.077	21382
874.206	21378
874.335	21511
874.464	21545
874.593	21755
874.722	21728
874.851	21774
874.979	21743
875.108	21736
875.237	21599
875.365	21671
875.494	21629
875.623	21679
875.751	21599
875.88	21766
876.008	21808
876.136	21911
876.265	22128
876.393	22196
876.521	22143
876.65	22204
876.778	22055
876.906	22082
877.034	22105
877.162	22128
877.29	21930
877.418	22010
877.546	22025
877.674	22010
877.802	21975
877.93	21998
878.058	22154
878.185	21983
878.313	22017
878.441	21945
878.568	21842
878.696	21888
878.824	22055
878.951	22070
879.079	22204
879.206	22299
879.333	22166
879.461	22074
879.588	22181
879.715	22215
879.842	22424
879.97	22215
880.097	21964
880.224	21812
880.351	21918
880.478	21838
880.605	21785
880.732	21960
880.859	22105
880.986	21895
881.112	21842
881.239	21854
881.366	21663
881.493	21663
881.619	21485
881.746	21443
881.872	21507
881.999	21348
882.125	21382
882.252	21462
882.378	21397
882.505	21633
882.631	21332
882.757	21096
882.883	21306
883.01	21298
883.136	21146
883.262	21028
883.388	20986
883.514	21123
883.64	21116
883.766	21058
883.892	20960
884.018	20963
884.143	21116
884.269	21169
884.395	20853
884.52	20769
884.646	20842
884.772	20743
884.897	20708
885.023	20826
885.148	20982
885.274	20975
885.399	20910
885.524	20876
885.65	20823
885.775	20861
885.9	20807
886.025	20895
886.15	20823
886.275	20750
886.4	20724
886.525	20830
886.65	20655
886.775	20765
886.9	20921
887.025	20975
887.149	20678
887.274	20625
887.399	20583
887.523	20568
887.648	20598
887.773	20442
887.897	20560
888.021	20579
888.146	20423
888.27	20655
888.395	20602
888.519	20568
888.643	20609
888.767	20678
888.891	20476
889.015	20358
889.139	20332
889.263	20442
889.387	20377
889.511	20640
889.635	20461
889.759	20267
889.883	20305
890.006	20358
890.13	20446
890.254	20233
890.377	20187
890.501	20138
890.624	20069
890.748	20103
890.871	20039
890.995	19913
891.118	19856
891.241	19936
891.364	19909
891.488	19978
891.611	20077
891.734	19898
891.857	19902
891.98	19963
892.103	19928
892.226	19837
892.349	19898
892.471	19883
892.594	19845
892.717	19902
892.839	19799
892.962	19913
893.085	19967
893.207	19772
893.33	19746
893.452	19788
893.575	19879
893.697	19761
893.819	20081
893.941	20062
894.064	19890
894.186	19826
894.308	19765
894.43	19970
894.552	19921
894.674	19890
894.796	19700
894.918	19791
895.04	19890
895.161	19928
895.283	20001
895.405	19772
895.526	19826
895.648	19780
895.769	19868
895.891	19974
896.012	19928
896.134	19902
896.255	19906
896.376	19871
896.498	19936
896.619	19887
896.74	19906
896.861	19868
896.982	20237
897.103	20355
897.224	20214
897.345	20073
897.466	20046
897.587	20088
897.708	20191
897.828	20195
897.949	20138
898.07	19902
898.19	20043
898.311	20180
898.431	20122
898.552	20001
898.672	20119
898.792	20092
898.913	20122
899.033	19932
899.153	19909
899.273	19795
899.393	19833
899.513	19845
899.633	19750
899.753	19875
899.873	19791
899.993	19757
900.113	19753
900.232	19967
900.352	19769
900.472	19738
900.591	19677
900.711	19594
900.83	19537
900.95	19677
901.069	19734
901.189	19571
901.308	19358
901.427	19259
901.546	19232
901.665	19221
901.784	19209
901.904	19175
902.023	18970
902.141	18768
902.26	18852
902.379	18863
902.498	18692
902.617	18703
902.735	18768
902.854	18608
902.973	18547
903.091	18395
903.21	18460
903.328	18403
903.446	18239
903.565	18167
903.683	18247
903.801	18171
903.919	18102
904.038	18197
904.156	17992
904.274	18133
904.392	17885
904.51	17908
904.627	17939
904.745	18022
904.863	17999
904.981	17668
905.098	17539
905.216	17634
905.334	17619
905.451	17676
905.569	17562
905.686	17608
905.803	17638
905.921	17505
906.038	17520
906.155	17490
906.272	17341
906.389	17280
906.506	17303
906.623	17250
906.74	17242
906.857	16980
906.974	17075
907.091	17189
907.208	17322
907.324	17155
907.441	17178
907.557	16965
907.674	16915
907.79	16748
907.907	16934
908.023	16881
908.139	16911
908.256	16713
908.372	16854
908.488	16774
908.604	16691
908.72	16679
908.836	16607
908.952	16531
909.068	16660
909.184	16679
909.3	16653
909.415	16664
909.531	16592
909.647	16322
909.762	16329
909.878	16375
909.993	16341
910.108	16299
910.224	16265
910.339	16272
910.454	16154
910.57	16219
910.685	16055
910.8	16451
910.915	16192
911.03	16166
911.145	15975
911.259	15922
911.374	15956
911.489	15892
911.604	15857
911.718	15644
911.833	15667
911.947	15584
912.062	15587
912.176	15717
912.291	15709
912.405	15709
912.519	15903
912.633	15766
912.748	15751
912.862	15641
912.976	15553
913.09	15382
913.204	15397
913.318	15466
913.431	15564
913.545	15504
913.659	15538
913.772	15412
913.886	15416
914	15298
914.113	15397
914.226	15420
914.34	15283
914.453	15249
914.566	15233
914.68	15252
914.793	15039
914.906	15047
915.019	14876
915.132	14872
915.245	14746
915.358	14864
915.47	14899
915.583	14929
915.696	14944
915.809	14952
915.921	15047
916.034	14834
916.146	14788
916.259	14670
916.371	14918
916.483	14815
916.595	14758
916.708	14765
916.82	14693
916.932	14689
917.044	14655
917.156	14613
917.268	14545
917.38	14617
917.491	14484
917.603	14415
917.715	14556
917.826	14651
917.938	14564
918.049	14427
918.161	14541
918.272	14583
918.384	14674
918.495	14530
918.606	14484
918.717	14317
918.828	14336
918.939	14358
919.05	14256
919.161	14404
919.272	14134
919.383	14138
919.494	14355
919.604	14473
919.715	14275
919.826	14267
919.936	14252
920.047	14336
920.157	14278
920.267	14492
920.378	14233
920.488	14252
920.598	14495
920.708	14499
920.818	14415
920.928	14457
921.038	14518
921.148	14541
921.258	14210
921.368	14065
921.477	14065
921.587	14092
921.697	13803
921.806	13989
921.916	13890
922.025	13753
922.134	13658
922.244	13643
922.353	13769
922.462	13582
922.571	13449
922.68	13339
922.789	13339
922.898	13388
923.007	13255
923.116	13285
923.224	13343
923.333	13217
923.442	13270
923.55	13221
923.659	13251
923.767	13247
923.876	13122
923.984	13206
924.092	13160
924.201	13126
924.309	13038
924.417	13069
924.525	13050
924.633	13019
924.741	13841
924.849	12848
924.956	12943
925.064	12852
925.172	12757
925.279	12696
925.387	12764
925.494	12757
925.602	12913
925.709	12795
925.816	12650
925.924	12719
926.031	12791
926.138	12802
926.245	12703
926.352	12604
926.459	12810
926.566	12764
926.673	12612
926.779	12521
926.886	12494
926.993	12388
927.099	12353
927.206	12247
927.312	12300
927.419	12308
927.525	12308
927.631	12353
927.737	12228
927.843	12152
927.95	12098
928.056	12148
928.162	12163
928.267	12224
928.373	12802
928.479	12190
928.585	11958
928.69	12098
928.796	12182
928.901	12022
929.007	11847
929.112	12133
929.218	11984
929.323	11920
929.428	11893
929.533	12034
929.638	11828
929.743	11843
929.848	11893
929.953	11859
930.058	11767
930.163	11623
930.267	11619
930.372	11741
930.477	11539
930.581	11752
930.685	11653
930.79	11398
930.894	11471
930.998	11490
931.103	11577
931.207	11269
931.311	11151
931.415	11060
931.519	10831
931.623	10873
