Data from test_V78500241_2895.txt Node
Date: Fri Mar 25 16:01:51 CST 2022
User: usil
Spectrometer: V785-0024
Trigger mode: 0
Integration Time (sec): 4.000000E-1
Scans to average: 1
Nonlinearity correction enabled: false
Boxcar width: 0
Storing dark spectrum: false
XAxis mode: Wavelengths
Number of Pixels in Spectrum: 1024
>>>>>Begin Spectral Data<<<<<
801.071	28995
801.214	28885
801.356	28706
801.499	28603
801.641	28519
801.783	28493
801.926	28523
802.068	28459
802.211	28405
802.353	28440
802.496	28280
802.638	28166
802.78	28013
802.923	28093
803.065	28139
803.208	28158
803.35	28185
803.492	28424
803.635	28478
803.777	28261
803.919	28459
804.061	28797
804.204	28443
804.346	28341
804.488	28375
804.63	28504
804.773	28363
804.915	28523
805.057	28653
805.199	28455
805.341	28527
805.483	28679
805.626	28485
805.768	28451
805.91	28645
806.052	28691
806.194	28592
806.336	28820
806.478	28584
806.62	28508
806.762	28809
806.904	28896
807.046	29174
807.188	29113
807.33	29033
807.472	29136
807.614	29003
807.756	29124
807.898	28938
808.04	28786
808.182	28839
808.324	28957
808.465	28881
808.607	29105
808.749	29292
808.891	29395
809.033	29497
809.174	29246
809.316	29235
809.458	29337
809.6	29360
809.741	29429
809.883	29573
810.025	29600
810.166	29615
810.308	29581
810.45	29474
810.591	29455
810.733	29326
810.875	29448
811.016	29132
811.158	29265
811.299	29467
811.441	29455
811.582	29539
811.724	29440
811.865	29208
812.007	29486
812.148	29417
812.29	29478
812.431	29623
812.573	29722
812.714	29752
812.855	29859
812.997	29897
813.138	30041
813.279	30121
813.421	29897
813.562	29805
813.703	29638
813.845	29520
813.986	29425
814.127	29147
814.268	28991
814.41	29102
814.551	28991
814.692	29124
814.833	28888
814.974	29029
815.115	29064
815.256	28896
815.397	28877
815.539	29006
815.68	28854
815.821	28740
815.962	28896
816.103	28812
816.244	28759
816.385	28599
816.526	28596
816.666	28443
816.807	28329
816.948	28516
817.089	28550
817.23	28512
817.371	28375
817.512	28306
817.653	28379
817.793	28440
817.934	28459
818.075	28413
818.216	28333
818.356	28382
818.497	28295
818.638	28120
818.778	28086
818.919	28116
819.06	28162
819.2	28276
819.341	28405
819.481	28424
819.622	28752
819.762	28649
819.903	28752
820.043	28569
820.184	28535
820.324	28462
820.465	28626
820.605	28474
820.746	28542
820.886	28314
821.026	28401
821.167	28455
821.307	28596
821.447	28363
821.588	28306
821.728	28432
821.868	28036
822.008	27827
822.149	27812
822.289	27865
822.429	27667
822.569	27583
822.709	27507
822.849	27458
822.99	27405
823.13	27408
823.27	27439
823.41	27252
823.55	27028
823.69	27256
823.83	27203
823.97	27108
824.11	27081
824.25	26902
824.389	26834
824.529	27058
824.669	27081
824.809	27051
824.949	27020
825.089	27104
825.228	27135
825.368	26899
825.508	26857
825.648	26971
825.787	26914
825.927	27032
826.067	26899
826.206	26902
826.346	27032
826.485	26842
826.625	26899
826.765	27043
826.904	26960
827.044	26606
827.183	26678
827.323	26514
827.462	26564
827.601	26773
827.741	26571
827.88	26648
828.02	26427
828.159	26594
828.298	26712
828.437	26609
828.577	26530
828.716	26629
828.855	26473
828.994	26358
829.134	26290
829.273	26431
829.412	26263
829.551	26358
829.69	26374
829.829	26343
829.968	26412
830.107	26446
830.246	26275
830.385	26096
830.524	26240
830.663	26138
830.802	26073
830.941	25894
831.08	25830
831.219	26096
831.357	26016
831.496	26149
831.635	26039
831.774	25890
831.913	25928
832.051	25765
832.19	25807
832.329	25715
832.467	25628
832.606	25609
832.744	25563
832.883	25559
833.022	25586
833.16	25556
833.299	25700
833.437	25449
833.576	25738
833.714	25670
833.852	25795
833.991	25689
834.129	25750
834.267	25890
834.406	25784
834.544	25643
834.682	25689
834.821	25582
834.959	25757
835.097	25597
835.235	25616
835.373	25658
835.511	25639
835.65	25647
835.788	25525
835.926	25388
836.064	25164
836.202	25232
836.34	25578
836.478	25616
836.615	25384
836.753	25369
836.891	25540
837.029	25559
837.167	25403
837.305	25419
837.443	25384
837.58	25339
837.718	25396
837.856	25316
837.993	25301
838.131	25213
838.269	25122
838.406	25194
838.544	25110
838.681	24920
838.819	24901
838.956	24772
839.094	24726
839.231	24821
839.369	24852
839.506	25053
839.643	25004
839.781	24741
839.918	24597
840.055	24772
840.193	24711
840.33	24631
840.467	24639
840.604	24776
840.742	24996
840.879	24532
841.016	24555
841.153	24627
841.29	24791
841.427	24471
841.564	24787
841.701	24700
841.838	24593
841.975	24563
842.112	24555
842.249	24395
842.385	24429
842.522	24783
842.659	24494
842.796	24422
842.933	24395
843.069	24502
843.206	24319
843.343	24372
843.479	24460
843.616	24429
843.752	24060
843.889	24330
844.025	24243
844.162	24258
844.298	24277
844.435	24224
844.571	24239
844.708	24159
844.844	24357
844.98	24330
845.117	24296
845.253	24205
845.389	24018
845.525	24064
845.661	24049
845.798	23958
845.934	23999
846.07	23965
846.206	23961
846.342	24034
846.478	23920
846.614	23840
846.75	23657
846.886	23672
847.022	23847
847.158	23535
847.294	23691
847.429	23699
847.565	23558
847.701	23893
847.837	23341
847.972	23452
848.108	23455
848.244	23395
848.379	23261
848.515	23402
848.65	23204
848.786	23345
848.921	23151
849.057	23337
849.192	23246
849.328	23299
849.463	23258
849.598	23269
849.734	23159
849.869	23227
850.004	23071
850.14	23033
850.275	23025
850.41	22908
850.545	23090
850.68	23029
850.815	23071
850.95	22946
851.085	23174
851.22	23143
851.355	23018
851.49	22968
851.625	23090
851.76	22930
851.895	23056
852.03	22972
852.165	23029
852.299	23029
852.434	23102
852.569	22949
852.703	22900
852.838	23136
852.973	23212
853.107	23128
853.242	22923
853.376	22896
853.511	22698
853.645	22755
853.78	23044
853.914	22850
854.048	22698
854.183	22752
854.317	22965
854.451	23079
854.585	22786
854.72	22850
854.854	22854
854.988	22820
855.122	22763
855.256	22759
855.39	22835
855.524	22987
855.658	22889
855.792	22812
855.926	22740
856.06	22877
856.194	22866
856.327	22896
856.461	22881
856.595	22702
856.729	22729
856.862	22908
856.996	22904
857.13	22991
857.263	23022
857.397	22873
857.53	22778
857.664	22835
857.797	22908
857.931	22961
858.064	22919
858.197	22847
858.331	22805
858.464	22790
858.597	22675
858.731	22847
858.864	22869
858.997	22767
859.13	22873
859.263	22706
859.396	22972
859.529	22831
859.662	22797
859.795	22911
859.928	22809
860.061	22976
860.194	23181
860.327	22881
860.46	22873
860.592	23075
860.725	22980
860.858	22957
860.99	22919
861.123	22850
861.256	22733
861.388	22892
861.521	23600
861.653	22752
861.786	22679
861.918	22645
862.05	22744
862.183	22759
862.315	22713
862.447	22774
862.58	22835
862.712	22516
862.844	22607
862.976	22584
863.108	22599
863.24	22904
863.372	22535
863.504	22504
863.636	22527
863.768	22561
863.9	22512
864.032	22497
864.164	22466
864.296	22577
864.428	22694
864.559	22668
864.691	22584
864.823	22622
864.954	22626
865.086	22451
865.217	22584
865.349	22371
865.48	22516
865.612	22455
865.743	22649
865.875	22360
866.006	22436
866.137	22421
866.269	22500
866.4	22569
866.531	22367
866.662	22303
866.793	22344
866.924	22481
867.055	22398
867.186	22386
867.317	22303
867.448	22280
867.579	22291
867.71	22356
867.841	22268
867.972	22318
868.103	22268
868.233	22394
868.364	22394
868.495	22497
868.625	22451
868.756	22721
868.886	22531
869.017	22672
869.147	22755
869.278	22736
869.408	22596
869.539	22531
869.669	22748
869.799	22523
869.929	22748
870.06	22687
870.19	22908
870.32	22911
870.45	22904
870.58	23010
870.71	23216
870.84	23052
870.97	23064
871.1	22980
871.23	23102
871.36	23094
871.489	23056
871.619	23204
871.749	23193
871.879	23273
872.008	23254
872.138	23220
872.267	23166
872.397	23166
872.526	23067
872.656	23113
872.785	23071
872.915	23098
873.044	23326
873.173	23231
873.303	23223
873.432	23280
873.561	23307
873.69	23277
873.819	23189
873.948	23242
874.077	23334
874.206	23060
874.335	23178
874.464	23246
874.593	23467
874.722	23372
874.851	23417
874.979	23410
875.108	23334
875.237	23433
875.365	23307
875.494	23330
875.623	23459
875.751	23501
875.88	23535
876.008	23570
876.136	23596
876.265	23908
876.393	24034
876.521	23958
876.65	24007
876.778	23821
876.906	23722
877.034	23859
877.162	23714
877.29	23657
877.418	23767
877.546	23722
877.674	23718
877.802	23695
877.93	23741
878.058	23653
878.185	23668
878.313	23718
878.441	23893
878.568	23551
878.696	23649
878.824	23737
878.951	23783
879.079	23851
879.206	23965
879.333	23950
879.461	23832
879.588	23946
879.715	23863
879.842	24064
879.97	23836
880.097	23539
880.224	23528
880.351	23558
880.478	23478
880.605	23448
880.732	23627
880.859	23687
880.986	23600
881.112	23467
881.239	23501
881.366	23318
881.493	23261
881.619	23109
881.746	23181
881.872	23079
881.999	23223
882.125	23185
882.252	23140
882.378	23128
882.505	23060
882.631	22919
882.757	22877
882.883	22793
883.01	22763
883.136	22763
883.262	22675
883.388	22634
883.514	22850
883.64	22828
883.766	22748
883.892	22550
884.018	22592
884.143	22717
884.269	22828
884.395	22489
884.52	22417
884.646	22508
884.772	22360
884.897	22234
885.023	22546
885.148	22637
885.274	22611
885.399	22455
885.524	22390
885.65	22443
885.775	22504
885.9	22367
886.025	22561
886.15	22523
886.275	22447
886.4	22333
886.525	22363
886.65	22398
886.775	22329
886.9	22481
887.025	22577
887.149	22379
887.274	22215
887.399	22185
887.523	22090
887.648	22078
887.773	22067
887.897	22371
888.021	22055
888.146	22219
888.27	22299
888.395	22177
888.519	22162
888.643	22154
888.767	22257
888.891	22082
889.015	22048
889.139	22131
889.263	21895
889.387	22006
889.511	22242
889.635	22029
889.759	22017
889.883	21968
890.006	21991
890.13	22078
890.254	21892
890.377	22044
890.501	21705
890.624	21667
890.748	21751
890.871	21641
890.995	21610
891.118	21416
891.241	21439
891.364	21606
891.488	21557
891.611	21583
891.734	21389
891.857	21629
891.98	21405
892.103	21542
892.226	21595
892.349	21386
892.471	21298
892.594	21447
892.717	21393
892.839	21412
892.962	21370
893.085	21397
893.207	21424
893.33	21321
893.452	21344
893.575	21382
893.697	21397
893.819	21557
893.941	21580
894.064	21477
894.186	21351
894.308	21256
894.43	21412
894.552	21481
894.674	21466
894.796	21336
894.918	21359
895.04	21226
895.161	21519
895.283	21458
895.405	21287
895.526	21473
895.648	21329
895.769	21405
895.891	21450
896.012	21378
896.134	21378
896.255	21458
896.376	21321
896.498	21325
896.619	21325
896.74	21302
896.861	21439
896.982	21561
897.103	21778
897.224	21660
897.345	21534
897.466	21519
897.587	21542
897.708	21728
897.828	21549
897.949	21454
898.07	21458
898.19	21473
898.311	21591
898.431	21591
898.552	21595
898.672	21644
898.792	21656
898.913	21660
899.033	21355
899.153	21325
899.273	21180
899.393	21203
899.513	21310
899.633	21214
899.753	21329
899.873	21260
899.993	21397
900.113	21085
900.232	21150
900.352	21165
900.472	21123
900.591	20975
900.711	21058
900.83	20956
900.95	21127
901.069	21123
901.189	20948
901.308	20579
901.427	20655
901.546	20629
901.665	20663
901.784	20495
901.904	20465
902.023	20362
902.141	20035
902.26	20210
902.379	20286
902.498	20100
902.617	20073
902.735	20183
902.854	20122
902.973	19970
903.091	19753
903.21	19830
903.328	19803
903.446	19674
903.565	19487
903.683	19468
903.801	19419
903.919	19403
904.038	19537
904.156	19365
904.274	19346
904.392	19274
904.51	19354
904.627	19373
904.745	19392
904.863	19331
904.981	19107
905.098	19072
905.216	18977
905.334	18985
905.451	18985
905.569	18954
905.686	19008
905.803	18863
905.921	18871
906.038	18875
906.155	18703
906.272	18661
906.389	18700
906.506	18528
906.623	18445
906.74	18418
906.857	18414
906.974	18426
907.091	18536
907.208	18669
907.324	18578
907.441	18467
907.557	18171
907.674	18281
907.79	18110
907.907	18174
908.023	18224
908.139	18270
908.256	18064
908.372	18125
908.488	18190
908.604	17961
908.72	17859
908.836	17965
908.952	17798
909.068	17920
909.184	18064
909.3	17946
909.415	17878
909.531	17935
909.647	17653
909.762	17672
909.878	17657
909.993	17611
910.108	17566
910.224	17539
910.339	17535
910.454	17543
910.57	17547
910.685	17383
910.8	17592
910.915	17634
911.03	17444
911.145	17292
911.259	17216
911.374	17212
911.489	17140
911.604	17140
911.718	16976
911.833	16980
911.947	16835
912.062	16729
912.176	17010
912.291	16930
912.405	16972
912.519	17117
912.633	17094
912.748	16904
912.862	16892
912.976	16710
913.09	16592
913.204	16733
913.318	16793
913.431	16904
913.545	16763
913.659	16824
913.772	16668
913.886	16618
914	16519
914.113	16687
914.226	16691
914.34	16550
914.453	16379
914.566	16558
914.68	16417
914.793	16390
914.906	16215
915.019	16074
915.132	16112
915.245	16112
915.358	16116
915.47	16105
915.583	16071
915.696	16078
915.809	16284
915.921	16211
916.034	15994
916.146	16051
916.259	15953
916.371	16040
916.483	16029
916.595	15934
916.708	15979
916.82	15915
916.932	15918
917.044	15854
917.156	15850
917.268	15698
917.38	15724
917.491	15701
917.603	15755
917.715	15838
917.826	15800
917.938	15629
918.049	15523
918.161	15622
918.272	15759
918.384	15755
918.495	15663
918.606	15424
918.717	15443
918.828	15454
918.939	15435
919.05	15405
919.161	15447
919.272	15154
919.383	15272
919.494	15431
919.604	15701
919.715	15443
919.826	15378
919.936	15348
920.047	15477
920.157	15424
920.267	15576
920.378	15519
920.488	15454
920.598	15618
920.708	15660
920.818	15542
920.928	15568
921.038	15633
921.148	15694
921.258	15310
921.368	15336
921.477	15119
921.587	15047
921.697	15013
921.806	15074
921.916	15024
922.025	14765
922.134	14746
922.244	14758
922.353	14826
922.462	14606
922.571	14473
922.68	14438
922.789	14256
922.898	14374
923.007	14343
923.116	14412
923.224	14438
923.333	14362
923.442	14206
923.55	14282
923.659	14221
923.767	14282
923.876	14187
923.984	14225
924.092	14016
924.201	14081
924.309	14107
924.417	14092
924.525	14069
924.633	14035
924.741	15017
924.849	13708
924.956	13890
925.064	13852
925.172	13731
925.279	13677
925.387	13822
925.494	13818
925.602	13845
925.709	13769
925.816	13624
925.924	13670
926.031	13791
926.138	13685
926.245	13620
926.352	13575
926.459	13693
926.566	13788
926.673	13616
926.779	13400
926.886	13537
926.993	13350
927.099	13278
927.206	13301
927.312	13244
927.419	13354
927.525	13141
927.631	13285
927.737	13103
927.843	13129
927.95	12970
928.056	13149
928.162	13160
928.267	13206
928.373	13696
928.479	13152
928.585	12859
928.69	13076
928.796	13122
928.901	12932
929.007	12882
929.112	13012
929.218	12928
929.323	12913
929.428	12829
929.533	12894
929.638	12722
929.743	12795
929.848	12840
929.953	12779
930.058	12711
930.163	12574
930.267	12448
930.372	12642
930.477	12464
930.581	12681
930.685	12479
930.79	12372
930.894	12410
930.998	12304
931.103	12460
931.207	12091
931.311	12106
931.415	12026
931.519	11649
931.623	11688
