Data from test_V78500241_344.txt Node
Date: Fri Mar 25 15:44:11 CST 2022
User: usil
Spectrometer: V785-0024
Trigger mode: 0
Integration Time (sec): 4.000000E-1
Scans to average: 1
Nonlinearity correction enabled: false
Boxcar width: 0
Storing dark spectrum: false
XAxis mode: Wavelengths
Number of Pixels in Spectrum: 1024
>>>>>Begin Spectral Data<<<<<
801.071	29802
801.214	29710
801.356	29531
801.499	29436
801.641	29277
801.783	29486
801.926	29539
802.068	29478
802.211	29265
802.353	29242
802.496	29060
802.638	29098
802.78	29159
802.923	29102
803.065	28885
803.208	28942
803.35	29121
803.492	29189
803.635	29269
803.777	29204
803.919	29064
804.061	29604
804.204	29341
804.346	29132
804.488	29143
804.63	29341
804.773	29166
804.915	29265
805.057	29277
805.199	29178
805.341	29387
805.483	29512
805.626	29387
805.768	29417
805.91	29334
806.052	29429
806.194	29356
806.336	29699
806.478	29387
806.62	29387
806.762	29410
806.904	29646
807.046	29946
807.188	29912
807.33	29901
807.472	30007
807.614	29726
807.756	29741
807.898	29760
808.04	29589
808.182	29554
808.324	29573
808.465	29573
808.607	29874
808.749	30030
808.891	30079
809.033	30235
809.174	30171
809.316	30007
809.458	30041
809.6	30117
809.741	30194
809.883	30125
810.025	30232
810.166	30308
810.308	30349
810.45	30273
810.591	30395
810.733	30129
810.875	30049
811.016	29889
811.158	30030
811.299	30167
811.441	30228
811.582	30144
811.724	30144
811.865	30095
812.007	30007
812.148	30102
812.29	30095
812.431	30121
812.573	30395
812.714	30399
812.855	30547
812.997	30601
813.138	30783
813.279	30563
813.421	30513
813.562	30536
813.703	30429
813.845	30277
813.986	30083
814.127	29901
814.268	29726
814.41	29798
814.551	29756
814.692	29767
814.833	29684
814.974	29634
815.115	29840
815.256	29589
815.397	29562
815.539	29558
815.68	29551
815.821	29425
815.962	29455
816.103	29337
816.244	29364
816.385	29277
816.526	29326
816.666	29033
816.807	29037
816.948	28965
817.089	29067
817.23	28953
817.371	29064
817.512	29102
817.653	29006
817.793	28839
817.934	29037
818.075	29018
818.216	29056
818.356	28873
818.497	28908
818.638	28733
818.778	28831
818.919	28721
819.06	28763
819.2	28915
819.341	28976
819.481	28854
819.622	29010
819.762	29303
819.903	29269
820.043	29178
820.184	29044
820.324	29056
820.465	29117
820.605	29105
820.746	29140
820.886	28885
821.026	29128
821.167	29064
821.307	29044
821.447	28968
821.588	28733
821.728	28702
821.868	28481
822.008	28417
822.149	28246
822.289	28272
822.429	28131
822.569	28078
822.709	28017
822.849	27808
822.99	27804
823.13	27663
823.27	27857
823.41	27622
823.55	27511
823.69	27671
823.83	27637
823.97	27622
824.11	27523
824.25	27439
824.389	27416
824.529	27705
824.669	27378
824.809	27648
824.949	27564
825.089	27568
825.228	27500
825.368	27386
825.508	27325
825.648	27447
825.787	27374
825.927	27469
826.067	27294
826.206	27287
826.346	27340
826.485	27378
826.625	27302
826.765	27393
826.904	27435
827.044	27188
827.183	27055
827.323	27066
827.462	27096
827.601	27089
827.741	26937
827.88	27150
828.02	26754
828.159	27024
828.298	26895
828.437	27005
828.577	26960
828.716	27096
828.855	26823
828.994	26655
829.134	26724
829.273	26689
829.412	26678
829.551	26560
829.69	26594
829.829	26727
829.968	26689
830.107	26697
830.246	26716
830.385	26476
830.524	26545
830.663	26347
830.802	26400
830.941	26286
831.08	26142
831.219	26309
831.357	26301
831.496	26587
831.635	26294
831.774	26305
831.913	26100
832.051	26107
832.19	25989
832.329	26039
832.467	25947
832.606	25890
832.744	25841
832.883	25871
833.022	25772
833.16	25951
833.299	25925
833.437	25849
833.576	25966
833.714	25940
833.852	26039
833.991	25890
834.129	26050
834.267	25940
834.406	25845
834.544	25955
834.682	25925
834.821	25955
834.959	26092
835.097	25951
835.235	25890
835.373	25906
835.511	25921
835.65	25769
835.788	25658
835.926	25719
836.064	25460
836.202	25567
836.34	25647
836.478	25693
836.615	25689
836.753	25727
836.891	25883
837.029	25795
837.167	25616
837.305	25594
837.443	25590
837.58	25567
837.718	25514
837.856	25472
837.993	25563
838.131	25533
838.269	25449
838.406	25491
838.544	25415
838.681	25278
838.819	25126
838.956	25061
839.094	25023
839.231	25103
839.369	25103
839.506	25316
839.643	25263
839.781	24981
839.918	24787
840.055	24958
840.193	24897
840.33	24894
840.467	24909
840.604	24894
840.742	25103
840.879	24688
841.016	24894
841.153	24772
841.29	24958
841.427	24772
841.564	24795
841.701	24802
841.838	24650
841.975	24719
842.112	24722
842.249	24700
842.385	24658
842.522	24894
842.659	24722
842.796	24498
842.933	24540
843.069	24578
843.206	24566
843.343	24612
843.479	24498
843.616	24593
843.752	24403
843.889	24300
844.025	24323
844.162	24247
844.298	24342
844.435	24243
844.571	24254
844.708	24350
844.844	24403
844.98	24429
845.117	24304
845.253	24296
845.389	24220
845.525	24190
845.661	24182
845.798	23973
845.934	24003
846.07	23996
846.206	24018
846.342	24095
846.478	23904
846.614	23783
846.75	23619
846.886	23737
847.022	23729
847.158	23672
847.294	23691
847.429	23843
847.565	23707
847.701	23897
847.837	23619
847.972	23372
848.108	23573
848.244	23486
848.379	23273
848.515	23299
848.65	23273
848.786	23337
848.921	23303
849.057	23425
849.192	23395
849.328	23395
849.463	23383
849.598	23189
849.734	23155
849.869	23140
850.004	23071
850.14	23064
850.275	23048
850.41	23052
850.545	22938
850.68	22824
850.815	22984
850.95	23064
851.085	23216
851.22	23147
851.355	23052
851.49	23071
851.625	22957
851.76	23006
851.895	22991
852.03	22908
852.165	23109
852.299	23060
852.434	23128
852.569	23212
852.703	23033
852.838	23143
852.973	23117
853.107	23048
853.242	22953
853.376	22957
853.511	22668
853.645	22877
853.78	23014
853.914	22892
854.048	22835
854.183	22752
854.317	22892
854.451	23033
854.585	22843
854.72	22957
854.854	22881
854.988	22782
855.122	22812
855.256	22694
855.39	22771
855.524	22938
855.658	22957
855.792	22866
855.926	22889
856.06	22972
856.194	22892
856.327	22896
856.461	22847
856.595	22862
856.729	22881
856.862	22877
856.996	22953
857.13	22862
857.263	23037
857.397	22824
857.53	22862
857.664	22839
857.797	22904
857.931	22995
858.064	22801
858.197	22862
858.331	22740
858.464	22759
858.597	22656
858.731	22790
858.864	22824
858.997	22828
859.13	22805
859.263	22797
859.396	22820
859.529	22767
859.662	22588
859.795	22763
859.928	22801
860.061	23018
860.194	23041
860.327	22835
860.46	22889
860.592	22862
860.725	22972
860.858	22968
860.99	22858
861.123	22824
861.256	22778
861.388	22744
861.521	23512
861.653	22645
861.786	22561
861.918	22664
862.05	22561
862.183	22721
862.315	22790
862.447	22965
862.58	22694
862.712	22481
862.844	22428
862.976	22630
863.108	22508
863.24	22793
863.372	22390
863.504	22447
863.636	22424
863.768	22436
863.9	22611
864.032	22424
864.164	22447
864.296	22375
864.428	22512
864.559	22478
864.691	22550
864.823	22557
864.954	22459
865.086	22447
865.217	22459
865.349	22310
865.48	22363
865.612	22257
865.743	22557
865.875	22440
866.006	22394
866.137	22341
866.269	22329
866.4	22272
866.531	22299
866.662	22230
866.793	22284
866.924	22280
867.055	22238
867.186	22230
867.317	22299
867.448	22154
867.579	22223
867.71	22131
867.841	22276
867.972	22276
868.103	22169
868.233	22310
868.364	22310
868.495	22253
868.625	22478
868.756	22649
868.886	22489
869.017	22554
869.147	22664
869.278	22660
869.408	22527
869.539	22554
869.669	22634
869.799	22554
869.929	22725
870.06	22672
870.19	22816
870.32	22759
870.45	22869
870.58	22987
870.71	23033
870.84	23048
870.97	22835
871.1	22858
871.23	22991
871.36	22942
871.489	23010
871.619	23064
871.749	23113
871.879	23022
872.008	23292
872.138	23189
872.267	23010
872.397	22949
872.526	22915
872.656	22957
872.785	22938
872.915	23075
873.044	23006
873.173	23143
873.303	23090
873.432	23132
873.561	23105
873.69	23109
873.819	23178
873.948	23197
874.077	23143
874.206	22949
874.335	23143
874.464	23121
874.593	23299
874.722	23250
874.851	23353
874.979	23334
875.108	23402
875.237	23231
875.365	23372
875.494	23326
875.623	23311
875.751	23159
875.88	23326
876.008	23383
876.136	23417
876.265	23745
876.393	23737
876.521	23790
876.65	23718
876.778	23752
876.906	23646
877.034	23604
877.162	23482
877.29	23653
877.418	23573
877.546	23551
877.674	23608
877.802	23695
877.93	23707
878.058	23684
878.185	23592
878.313	23627
878.441	23543
878.568	23417
878.696	23627
878.824	23729
878.951	23627
879.079	23923
879.206	23946
879.333	23790
879.461	23672
879.588	23703
879.715	23908
879.842	23977
879.97	23748
880.097	23425
880.224	23459
880.351	23463
880.478	23440
880.605	23364
880.732	23528
880.859	23805
880.986	23429
881.112	23421
881.239	23337
881.366	23162
881.493	22999
881.619	23056
881.746	23044
881.872	22984
881.999	23052
882.125	22961
882.252	23067
882.378	22972
882.505	23102
882.631	22869
882.757	22767
882.883	23048
883.01	22717
883.136	22812
883.262	22603
883.388	22538
883.514	22771
883.64	22748
883.766	22599
883.892	22459
884.018	22455
884.143	22679
884.269	22774
884.395	22375
884.52	22379
884.646	22295
884.772	22382
884.897	22261
885.023	22382
885.148	22363
885.274	22542
885.399	22432
885.524	22303
885.65	22287
885.775	22375
885.9	22276
886.025	22428
886.15	22398
886.275	22287
886.4	22192
886.525	22234
886.65	22310
886.775	22196
886.9	22489
887.025	22554
887.149	22314
887.274	22196
887.399	22109
887.523	22162
887.648	21941
887.773	22029
887.897	22086
888.021	22204
888.146	22070
888.27	22188
888.395	22105
888.519	22097
888.643	22173
888.767	22067
888.891	21964
889.015	21808
889.139	21865
889.263	21728
889.387	21960
889.511	22230
889.635	22029
889.759	21884
889.883	21819
890.006	21842
890.13	22006
890.254	21637
890.377	21800
890.501	21523
890.624	21656
890.748	21496
890.871	21576
890.995	21370
891.118	21294
891.241	21431
891.364	21313
891.488	21439
891.611	21370
891.734	21397
891.857	21351
891.98	21382
892.103	21386
892.226	21378
892.349	21249
892.471	21252
892.594	21325
892.717	21287
892.839	21188
892.962	21256
893.085	21275
893.207	21237
893.33	21291
893.452	21230
893.575	21291
893.697	21249
893.819	21454
893.941	21405
894.064	21466
894.186	21138
894.308	21192
894.43	21298
894.552	21412
894.674	21428
894.796	21176
894.918	21268
895.04	21184
895.161	21370
895.283	21264
895.405	21161
895.526	21378
895.648	21272
895.769	21294
895.891	21310
896.012	21283
896.134	21336
896.255	21313
896.376	21283
896.498	21203
896.619	21237
896.74	21332
896.861	21272
896.982	21614
897.103	21762
897.224	21671
897.345	21466
897.466	21458
897.587	21466
897.708	21671
897.828	21462
897.949	21355
898.07	21325
898.19	21382
898.311	21610
898.431	21272
898.552	21523
898.672	21500
898.792	21507
898.913	21416
899.033	21268
899.153	21260
899.273	21169
899.393	21272
899.513	20975
899.633	21211
899.753	21142
899.873	21100
899.993	21207
900.113	21165
900.232	21222
900.352	21119
900.472	21017
900.591	21009
900.711	20979
900.83	20872
900.95	21013
901.069	21001
901.189	20823
901.308	20571
901.427	20514
901.546	20457
901.665	20423
901.784	20503
901.904	20431
902.023	20271
902.141	20122
902.26	20046
902.379	19967
902.498	19978
902.617	20008
902.735	19970
902.854	19906
902.973	19894
903.091	19590
903.21	19708
903.328	19556
903.446	19426
903.565	19544
903.683	19381
903.801	19354
903.919	19377
904.038	19278
904.156	19228
904.274	19217
904.392	19168
904.51	19133
904.627	19091
904.745	19247
904.863	19099
904.981	18958
905.098	18837
905.216	18722
905.334	18863
905.451	18894
905.569	18848
905.686	18776
905.803	18875
905.921	18589
906.038	18692
906.155	18684
906.272	18536
906.389	18642
906.506	18437
906.623	18380
906.74	18319
906.857	18300
906.974	18315
907.091	18353
907.208	18441
907.324	18369
907.441	18270
907.557	18087
907.674	18087
907.79	17935
907.907	18091
908.023	18098
908.139	18102
908.256	17935
908.372	17832
908.488	17889
908.604	17676
908.72	17760
908.836	17733
908.952	17733
909.068	17802
909.184	17843
909.3	17634
909.415	17726
909.531	17737
909.647	17463
909.762	17440
909.878	17345
909.993	17337
910.108	17395
910.224	17387
910.339	17467
910.454	17265
910.57	17265
910.685	17185
910.8	17402
910.915	17246
911.03	17212
911.145	17022
911.259	17052
911.374	17064
911.489	16908
911.604	16877
911.718	16679
911.833	16771
911.947	16611
912.062	16641
912.176	16729
912.291	16736
912.405	16679
912.519	16908
912.633	17022
912.748	16713
912.862	16626
912.976	16504
913.09	16379
913.204	16455
913.318	16565
913.431	16558
913.545	16573
913.659	16626
913.772	16580
913.886	16249
914	16363
914.113	16371
914.226	16451
914.34	16451
914.453	16162
914.566	16303
914.68	16150
914.793	16211
914.906	16029
915.019	15918
915.132	15854
915.245	16021
915.358	15865
915.47	15994
915.583	15888
915.696	15869
915.809	16010
915.921	16032
916.034	15895
916.146	15728
916.259	15732
916.371	15960
916.483	15846
916.595	15698
916.708	15789
916.82	15827
916.932	15618
917.044	15610
917.156	15667
917.268	15473
917.38	15576
917.491	15534
917.603	15534
917.715	15561
917.826	15603
917.938	15485
918.049	15294
918.161	15431
918.272	15618
918.384	15511
918.495	15504
918.606	15340
918.717	15146
918.828	15275
918.939	15313
919.05	15146
919.161	15203
919.272	15074
919.383	15116
919.494	15310
919.604	15401
919.715	15237
919.826	15074
919.936	15169
920.047	15237
920.157	15287
920.267	15237
920.378	15203
920.488	15192
920.598	15408
920.708	15374
920.818	15321
920.928	15363
921.038	15481
921.148	15424
921.258	15192
921.368	15017
921.477	14910
921.587	14861
921.697	14754
921.806	14842
921.916	14895
922.025	14568
922.134	14541
922.244	14438
922.353	14526
922.462	14427
922.571	14278
922.68	14240
922.789	14168
922.898	14054
923.007	14138
923.116	14145
923.224	14157
923.333	14100
923.442	14100
923.55	13982
923.659	13986
923.767	14008
923.876	13947
923.984	13997
924.092	13818
924.201	13830
924.309	13928
924.417	13818
924.525	13845
924.633	13803
924.741	14594
924.849	13639
924.956	13826
925.064	13613
925.172	13590
925.279	13495
925.387	13620
925.494	13487
925.602	13620
925.709	13559
925.816	13415
925.924	13548
926.031	13575
926.138	13472
926.245	13571
926.352	13377
926.459	13472
926.566	13514
926.673	13438
926.779	13354
926.886	13274
926.993	13160
927.099	13110
927.206	13080
927.312	13061
927.419	13080
927.525	13084
927.631	13114
927.737	12981
927.843	12909
927.95	12779
928.056	12886
928.162	12916
928.267	12882
928.373	13449
928.479	12985
928.585	12802
928.69	12825
928.796	12848
928.901	12760
929.007	12608
929.112	12696
929.218	12677
929.323	12688
929.428	12604
929.533	12707
929.638	12517
929.743	12517
929.848	12582
929.953	12563
930.058	12350
930.163	12262
930.267	12300
930.372	12407
930.477	12228
930.581	12464
930.685	12270
930.79	12110
930.894	12243
930.998	12114
931.103	12190
931.207	11821
931.311	11767
931.415	11710
931.519	11478
931.623	11467
