Data from test_V78500241_3542.txt Node
Date: Fri Mar 25 16:06:20 CST 2022
User: usil
Spectrometer: V785-0024
Trigger mode: 0
Integration Time (sec): 4.000000E-1
Scans to average: 1
Nonlinearity correction enabled: false
Boxcar width: 0
Storing dark spectrum: false
XAxis mode: Wavelengths
Number of Pixels in Spectrum: 1024
>>>>>Begin Spectral Data<<<<<
801.071	28934
801.214	28938
801.356	28843
801.499	28733
801.641	28592
801.783	28508
801.926	28561
802.068	28729
802.211	28577
802.353	28592
802.496	28379
802.638	28322
802.78	28276
802.923	28131
803.065	28284
803.208	28173
803.35	28348
803.492	28424
803.635	28440
803.777	28504
803.919	28691
804.061	28805
804.204	28542
804.346	28630
804.488	28299
804.63	28367
804.773	28508
804.915	28725
805.057	28626
805.199	28417
805.341	28656
805.483	28733
805.626	28713
805.768	28668
805.91	28923
806.052	28679
806.194	28668
806.336	28934
806.478	28717
806.62	28706
806.762	28949
806.904	29033
807.046	29239
807.188	29258
807.33	29307
807.472	29235
807.614	29197
807.756	29181
807.898	28965
808.04	29052
808.182	28854
808.324	28999
808.465	29109
808.607	29406
808.749	29512
808.891	29516
809.033	29524
809.174	29440
809.316	29543
809.458	29410
809.6	29455
809.741	29570
809.883	29440
810.025	29695
810.166	29623
810.308	29680
810.45	29695
810.591	29665
810.733	29539
810.875	29414
811.016	29250
811.158	29372
811.299	29554
811.441	29531
811.582	29695
811.724	29444
811.865	29737
812.007	29516
812.148	29395
812.29	29558
812.431	29509
812.573	29851
812.714	29931
812.855	30038
812.997	30026
813.138	30182
813.279	29950
813.421	30057
813.562	29923
813.703	29729
813.845	29726
813.986	29375
814.127	29269
814.268	29090
814.41	29216
814.551	29067
814.692	29383
814.833	29067
814.974	29025
815.115	29261
815.256	28953
815.397	29071
815.539	29113
815.68	29033
815.821	28999
815.962	29071
816.103	29014
816.244	28744
816.385	28702
816.526	28611
816.666	28531
816.807	28546
816.948	28641
817.089	28489
817.23	28523
817.371	28535
817.512	28421
817.653	28386
817.793	28360
817.934	28360
818.075	28367
818.216	28489
818.356	28451
818.497	28325
818.638	28253
818.778	28261
818.919	28276
819.06	28223
819.2	28405
819.341	28580
819.481	28485
819.622	28607
819.762	28725
819.903	28755
820.043	28740
820.184	28660
820.324	28740
820.465	28786
820.605	28691
820.746	28527
820.886	28432
821.026	28672
821.167	28626
821.307	28717
821.447	28516
821.588	28493
821.728	28310
821.868	28116
822.008	28040
822.149	27964
822.289	27911
822.429	27667
822.569	27622
822.709	27671
822.849	27507
822.99	27583
823.13	27447
823.27	27504
823.41	27355
823.55	27154
823.69	27447
823.83	27359
823.97	27268
824.11	27135
824.25	27150
824.389	27138
824.529	27241
824.669	27135
824.809	27195
824.949	27233
825.089	27157
825.228	27214
825.368	26902
825.508	26994
825.648	26868
825.787	27104
825.927	27138
826.067	27032
826.206	27009
826.346	27074
826.485	27081
826.625	27017
826.765	27230
826.904	27039
827.044	26796
827.183	26735
827.323	26697
827.462	26727
827.601	26883
827.741	26712
827.88	26800
828.02	26602
828.159	26815
828.298	26689
828.437	26796
828.577	26632
828.716	26720
828.855	26419
828.994	26552
829.134	26419
829.273	26541
829.412	26434
829.551	26457
829.69	26438
829.829	26328
829.968	26488
830.107	26492
830.246	26484
830.385	26374
830.524	26351
830.663	26221
830.802	26240
830.941	26039
831.08	26027
831.219	26142
831.357	26172
831.496	26252
831.635	25989
831.774	25951
831.913	25986
832.051	25849
832.19	25856
832.329	25750
832.467	25696
832.606	25567
832.744	25784
832.883	25693
833.022	25651
833.16	25788
833.299	25890
833.437	25868
833.576	25708
833.714	25799
833.852	25780
833.991	25776
834.129	25940
834.267	25818
834.406	25723
834.544	25803
834.682	25856
834.821	25628
834.959	25913
835.097	25616
835.235	25837
835.373	25765
835.511	25715
835.65	25677
835.788	25655
835.926	25544
836.064	25449
836.202	25445
836.34	25605
836.478	25567
836.615	25441
836.753	25605
836.891	25791
837.029	25609
837.167	25685
837.305	25460
837.443	25441
837.58	25419
837.718	25472
837.856	25491
837.993	25339
838.131	25426
838.269	25266
838.406	25156
838.544	25194
838.681	25012
838.819	25076
838.956	24757
839.094	24905
839.231	24939
839.369	25023
839.506	25327
839.643	25015
839.781	24844
839.918	24837
840.055	24738
840.193	24852
840.33	24715
840.467	24856
840.604	24795
840.742	25141
840.879	24631
841.016	24616
841.153	24669
841.29	24856
841.427	24681
841.564	24863
841.701	24848
841.838	24661
841.975	24669
842.112	24783
842.249	24566
842.385	24566
842.522	24837
842.659	24650
842.796	24445
842.933	24456
843.069	24551
843.206	24536
843.343	24639
843.479	24620
843.616	24441
843.752	24304
843.889	24235
844.025	24490
844.162	24251
844.298	24399
844.435	24289
844.571	24285
844.708	24357
844.844	24544
844.98	24483
845.117	24414
845.253	24277
845.389	24015
845.525	24186
845.661	24140
845.798	24041
845.934	24194
846.07	23992
846.206	24087
846.342	24201
846.478	23980
846.614	23794
846.75	23775
846.886	23920
847.022	23783
847.158	23771
847.294	23684
847.429	23733
847.565	23722
847.701	24155
847.837	23528
847.972	23425
848.108	23623
848.244	23577
848.379	23391
848.515	23421
848.65	23185
848.786	23296
848.921	23368
849.057	23467
849.192	23490
849.328	23292
849.463	23311
849.598	23288
849.734	23303
849.869	23010
850.004	23117
850.14	23174
850.275	23181
850.41	22953
850.545	23044
850.68	22946
850.815	23136
850.95	22980
851.085	23337
851.22	23181
851.355	23128
851.49	23121
851.625	23075
851.76	23090
851.895	23132
852.03	23121
852.165	22953
852.299	23162
852.434	23250
852.569	23105
852.703	23197
852.838	23124
852.973	23189
853.107	23250
853.242	23052
853.376	23014
853.511	22885
853.645	22904
853.78	23105
853.914	22984
854.048	22843
854.183	22904
854.317	22858
854.451	23181
854.585	22942
854.72	22987
854.854	22942
854.988	22957
855.122	22847
855.256	22961
855.39	22889
855.524	22949
855.658	22957
855.792	22927
855.926	22930
856.06	22957
856.194	22930
856.327	22862
856.461	22847
856.595	22812
856.729	22957
856.862	23056
856.996	22866
857.13	22930
857.263	23132
857.397	23006
857.53	22911
857.664	22881
857.797	22995
857.931	22949
858.064	22961
858.197	23014
858.331	22957
858.464	22904
858.597	22816
858.731	22896
858.864	22809
858.997	22911
859.13	22942
859.263	22957
859.396	22980
859.529	22824
859.662	22923
859.795	22862
859.928	22900
860.061	23132
860.194	23151
860.327	22976
860.46	22900
860.592	23018
860.725	23048
860.858	23083
860.99	22862
861.123	22816
861.256	22797
861.388	22991
861.521	23707
861.653	22904
861.786	22683
861.918	22668
862.05	22927
862.183	22835
862.315	22942
862.447	22877
862.58	22771
862.712	22611
862.844	22504
862.976	22839
863.108	22694
863.24	23121
863.372	22596
863.504	22580
863.636	22584
863.768	22679
863.9	22618
864.032	22729
864.164	22607
864.296	22607
864.428	22622
864.559	22740
864.691	22637
864.823	22694
864.954	22592
865.086	22577
865.217	22542
865.349	22519
865.48	22440
865.612	22424
865.743	22706
865.875	22512
866.006	22470
866.137	22462
866.269	22470
866.4	22611
866.531	22348
866.662	22348
866.793	22348
866.924	22379
867.055	22314
867.186	22466
867.317	22337
867.448	22299
867.579	22489
867.71	22341
867.841	22295
867.972	22417
868.103	22367
868.233	22436
868.364	22390
868.495	22478
868.625	22710
868.756	22767
868.886	22424
869.017	22721
869.147	22698
869.278	22721
869.408	22713
869.539	22504
869.669	22771
869.799	22611
869.929	22713
870.06	22736
870.19	22949
870.32	22896
870.45	23033
870.58	22980
870.71	23166
870.84	23178
870.97	23044
871.1	23094
871.23	23265
871.36	23322
871.489	23105
871.619	23212
871.749	23185
871.879	23299
872.008	23383
872.138	23185
872.267	23280
872.397	23208
872.526	23155
872.656	23071
872.785	23124
872.915	23246
873.044	23425
873.173	23227
873.303	23113
873.432	23490
873.561	23531
873.69	23318
873.819	23303
873.948	23379
874.077	23318
874.206	23174
874.335	23284
874.464	23341
874.593	23482
874.722	23589
874.851	23528
874.979	23474
875.108	23471
875.237	23440
875.365	23410
875.494	23345
875.623	23596
875.751	23448
875.88	23493
876.008	23611
876.136	23745
876.265	23897
876.393	23984
876.521	23927
876.65	23958
876.778	23866
876.906	23779
877.034	23866
877.162	23809
877.29	23687
877.418	23840
877.546	23790
877.674	23805
877.802	23863
877.93	23783
878.058	23802
878.185	23859
878.313	23771
878.441	23824
878.568	23630
878.696	23714
878.824	23840
878.951	23893
879.079	23999
879.206	24106
879.333	23980
879.461	23817
879.588	23855
879.715	24064
879.842	24083
879.97	23893
880.097	23638
880.224	23585
880.351	23615
880.478	23661
880.605	23687
880.732	23661
880.859	23813
880.986	23672
881.112	23699
881.239	23471
881.366	23299
881.493	23246
881.619	23197
881.746	23212
881.872	23162
881.999	23162
882.125	23136
882.252	23143
882.378	23216
882.505	23292
882.631	22949
882.757	22812
882.883	22968
883.01	22877
883.136	22824
883.262	22812
883.388	22706
883.514	22831
883.64	23022
883.766	22778
883.892	22694
884.018	22554
884.143	22812
884.269	22885
884.395	22702
884.52	22459
884.646	22512
884.772	22424
884.897	22352
885.023	22504
885.148	22542
885.274	22596
885.399	22573
885.524	22557
885.65	22588
885.775	22497
885.9	22360
886.025	22557
886.15	22584
886.275	22424
886.4	22348
886.525	22481
886.65	22257
886.775	22440
886.9	22588
887.025	22691
887.149	22523
887.274	22379
887.399	22371
887.523	22268
887.648	22188
887.773	22139
887.897	22310
888.021	22337
888.146	22192
888.27	22318
888.395	22333
888.519	22238
888.643	22230
888.767	22242
888.891	22166
889.015	21991
889.139	22128
889.263	22032
889.387	22135
889.511	22230
889.635	22139
889.759	21975
889.883	22090
890.006	22063
890.13	22006
890.254	21880
890.377	21842
890.501	21755
890.624	21709
890.748	21854
890.871	21599
890.995	21564
891.118	21530
891.241	21667
891.364	21557
891.488	21713
891.611	21606
891.734	21576
891.857	21595
891.98	21625
892.103	21542
892.226	21679
892.349	21561
892.471	21408
892.594	21526
892.717	21507
892.839	21500
892.962	21507
893.085	21564
893.207	21336
893.33	21363
893.452	21389
893.575	21496
893.697	21447
893.819	21466
893.941	21652
894.064	21564
894.186	21405
894.308	21492
894.43	21534
894.552	21625
894.674	21603
894.796	21321
894.918	21420
895.04	21576
895.161	21469
895.283	21504
895.405	21458
895.526	21488
895.648	21424
895.769	21443
895.891	21473
896.012	21526
896.134	21622
896.255	21348
896.376	21397
896.498	21469
896.619	21374
896.74	21462
896.861	21397
896.982	21766
897.103	21838
897.224	21545
897.345	21625
897.466	21614
897.587	21519
897.708	21675
897.828	21534
897.949	21652
898.07	21428
898.19	21496
898.311	21660
898.431	21553
898.552	21595
898.672	21709
898.792	21686
898.913	21568
899.033	21519
899.153	21370
899.273	21283
899.393	21359
899.513	21317
899.633	21412
899.753	21462
899.873	21287
899.993	21374
900.113	21249
900.232	21351
900.352	21192
900.472	21165
900.591	21043
900.711	21142
900.83	21017
900.95	21142
901.069	21195
901.189	21013
901.308	20769
901.427	20644
901.546	20636
901.665	20575
901.784	20678
901.904	20602
902.023	20446
902.141	20278
902.26	20313
902.379	20218
902.498	20149
902.617	20081
902.735	20271
902.854	20103
902.973	20096
903.091	19887
903.21	19841
903.328	19822
903.446	19658
903.565	19685
903.683	19548
903.801	19571
903.919	19578
904.038	19651
904.156	19396
904.274	19464
904.392	19312
904.51	19491
904.627	19354
904.745	19403
904.863	19403
904.981	19122
905.098	18989
905.216	18962
905.334	19118
905.451	19129
905.569	19031
905.686	19103
905.803	19027
905.921	18757
906.038	18897
906.155	18886
906.272	18787
906.389	18711
906.506	18525
906.623	18532
906.74	18639
906.857	18437
906.974	18399
907.091	18570
907.208	18627
907.324	18601
907.441	18479
907.557	18353
907.674	18342
907.79	18209
907.907	18216
908.023	18254
908.139	18266
908.256	18171
908.372	18190
908.488	18167
908.604	17999
908.72	17973
908.836	18019
908.952	17950
909.068	18015
909.184	18121
909.3	18026
909.415	17992
909.531	18068
909.647	17722
909.762	17741
909.878	17745
909.993	17691
910.108	17790
910.224	17668
910.339	17573
910.454	17512
910.57	17486
910.685	17406
910.8	17687
910.915	17710
911.03	17379
911.145	17372
911.259	17197
911.374	17334
911.489	17178
911.604	17102
911.718	16991
911.833	17045
911.947	16755
912.062	16854
912.176	16999
912.291	17025
912.405	16927
912.519	17178
912.633	17117
912.748	17041
912.862	16949
912.976	16763
913.09	16721
913.204	16801
913.318	16706
913.431	16892
913.545	16873
913.659	16873
913.772	16531
913.886	16641
914	16561
914.113	16748
914.226	16626
914.34	16615
914.453	16493
914.566	16706
914.68	16436
914.793	16424
914.906	16284
915.019	16158
915.132	16067
915.245	16249
915.358	16109
915.47	16090
915.583	16074
915.696	16135
915.809	16234
915.921	16181
916.034	16002
916.146	16002
916.259	16109
916.371	16112
916.483	16105
916.595	16013
916.708	15983
916.82	16036
916.932	15972
917.044	15876
917.156	15899
917.268	15850
917.38	15827
917.491	15808
917.603	15762
917.715	15819
917.826	15831
917.938	15701
918.049	15564
918.161	15842
918.272	15804
918.384	15770
918.495	15644
918.606	15511
918.717	15431
918.828	15553
918.939	15481
919.05	15363
919.161	15408
919.272	15325
919.383	15325
919.494	15504
919.604	15652
919.715	15485
919.826	15336
919.936	15272
920.047	15526
920.157	15488
920.267	15595
920.378	15469
920.488	15454
920.598	15591
920.708	15736
920.818	15587
920.928	15542
921.038	15698
921.148	15663
921.258	15344
921.368	15382
921.477	15184
921.587	15249
921.697	15089
921.806	15146
921.916	15001
922.025	14830
922.134	14807
922.244	14621
922.353	14883
922.462	14655
922.571	14583
922.68	14415
922.789	14503
922.898	14446
923.007	14355
923.116	14461
923.224	14259
923.333	14389
923.442	14294
923.55	14233
923.659	14244
923.767	14275
923.876	14320
923.984	14237
924.092	14046
924.201	14039
924.309	14145
924.417	14210
924.525	13986
924.633	14115
924.741	14979
924.849	13731
924.956	14008
925.064	13788
925.172	13700
925.279	13784
925.387	13856
925.494	13803
925.602	13803
925.709	13746
925.816	13712
925.924	13765
926.031	13879
926.138	13727
926.245	13803
926.352	13624
926.459	13818
926.566	13803
926.673	13647
926.779	13426
926.886	13529
926.993	13343
927.099	13293
927.206	13320
927.312	13289
927.419	13426
927.525	13331
927.631	13365
927.737	13133
927.843	13190
927.95	13141
928.056	13149
928.162	13156
928.267	13050
928.373	13719
928.479	13206
928.585	12894
928.69	13034
928.796	13057
928.901	12970
929.007	12867
929.112	12916
929.218	12951
929.323	12897
929.428	12817
929.533	12973
929.638	12749
929.743	12779
929.848	12863
929.953	12776
930.058	12658
930.163	12483
930.267	12563
930.372	12635
930.477	12494
930.581	12726
930.685	12502
930.79	12342
930.894	12452
930.998	12380
931.103	12452
931.207	12098
931.311	12019
931.415	11859
931.519	11703
931.623	11680
