Data from test_V78500241_327.txt Node
Date: Fri Mar 25 15:44:03 CST 2022
User: usil
Spectrometer: V785-0024
Trigger mode: 0
Integration Time (sec): 4.000000E-1
Scans to average: 1
Nonlinearity correction enabled: false
Boxcar width: 0
Storing dark spectrum: false
XAxis mode: Wavelengths
Number of Pixels in Spectrum: 1024
>>>>>Begin Spectral Data<<<<<
801.071	29996
801.214	29821
801.356	29589
801.499	29619
801.641	29509
801.783	29524
801.926	29581
802.068	29444
802.211	29478
802.353	29421
802.496	29155
802.638	29181
802.78	29143
802.923	29117
803.065	29022
803.208	28965
803.35	29140
803.492	29094
803.635	29235
803.777	29094
803.919	29277
804.061	29668
804.204	29284
804.346	29277
804.488	29277
804.63	29208
804.773	29109
804.915	29200
805.057	29398
805.199	29258
805.341	29410
805.483	29345
805.626	29459
805.768	29410
805.91	29448
806.052	29535
806.194	29436
806.336	29558
806.478	29573
806.62	29429
806.762	29653
806.904	29741
807.046	30030
807.188	29745
807.33	29859
807.472	29999
807.614	29790
807.756	29805
807.898	29695
808.04	29786
808.182	29585
808.324	29809
808.465	29745
808.607	29908
808.749	30095
808.891	30197
809.033	30273
809.174	30224
809.316	30159
809.458	30060
809.6	30030
809.741	30289
809.883	29992
810.025	30445
810.166	30475
810.308	30391
810.45	30353
810.591	30407
810.733	30133
810.875	30098
811.016	30026
811.158	30022
811.299	30235
811.441	30369
811.582	30285
811.724	30133
811.865	30064
812.007	29942
812.148	30018
812.29	30079
812.431	30395
812.573	30464
812.714	30475
812.855	30471
812.997	30669
813.138	30848
813.279	30612
813.421	30574
813.562	30585
813.703	30471
813.845	30429
813.986	30087
814.127	29882
814.268	29665
814.41	29638
814.551	29703
814.692	29961
814.833	29760
814.974	29737
815.115	29695
815.256	29600
815.397	29516
815.539	29630
815.68	29414
815.821	29452
815.962	29668
816.103	29551
816.244	29429
816.385	29258
816.526	29391
816.666	29258
816.807	28991
816.948	29037
817.089	29147
817.23	29022
817.371	29136
817.512	28835
817.653	28915
817.793	28934
817.934	29079
818.075	28987
818.216	28972
818.356	28900
818.497	28847
818.638	28691
818.778	28752
818.919	28790
819.06	28702
819.2	28847
819.341	28957
819.481	28755
819.622	29014
819.762	29345
819.903	29189
820.043	29128
820.184	29060
820.324	29075
820.465	29193
820.605	29056
820.746	29117
820.886	28915
821.026	29109
821.167	29029
821.307	29044
821.447	29037
821.588	28854
821.728	28816
821.868	28721
822.008	28447
822.149	28436
822.289	28341
822.429	28139
822.569	28147
822.709	28006
822.849	27804
822.99	27945
823.13	27774
823.27	27781
823.41	27648
823.55	27477
823.69	27717
823.83	27743
823.97	27515
824.11	27405
824.25	27492
824.389	27507
824.529	27553
824.669	27561
824.809	27637
824.949	27587
825.089	27671
825.228	27469
825.368	27382
825.508	27458
825.648	27203
825.787	27264
825.927	27329
826.067	27291
826.206	27275
826.346	27386
826.485	27386
826.625	27389
826.765	27397
826.904	27408
827.044	27074
827.183	27066
827.323	27112
827.462	26994
827.601	27081
827.741	27020
827.88	26979
828.02	26861
828.159	27138
828.298	26986
828.437	27058
828.577	27127
828.716	27138
828.855	26880
828.994	26739
829.134	26765
829.273	26743
829.412	26727
829.551	26579
829.69	26731
829.829	26754
829.968	26735
830.107	26678
830.246	26697
830.385	26689
830.524	26720
830.663	26252
830.802	26343
830.941	26275
831.08	26229
831.219	26374
831.357	26313
831.496	26495
831.635	26084
831.774	26218
831.913	26020
832.051	26024
832.19	25940
832.329	26088
832.467	25712
832.606	25944
832.744	25856
832.883	25951
833.022	25894
833.16	25795
833.299	25989
833.437	25993
833.576	25909
833.714	25982
833.852	25955
833.991	26043
834.129	26100
834.267	26012
834.406	26005
834.544	25928
834.682	25921
834.821	25841
834.959	26161
835.097	25746
835.235	25959
835.373	25860
835.511	25811
835.65	25696
835.788	25864
835.926	25594
836.064	25487
836.202	25476
836.34	25655
836.478	25818
836.615	25685
836.753	25704
836.891	25833
837.029	25696
837.167	25635
837.305	25514
837.443	25639
837.58	25575
837.718	25635
837.856	25495
837.993	25483
838.131	25544
838.269	25365
838.406	25468
838.544	25327
838.681	25099
838.819	25126
838.956	24973
839.094	24977
839.231	25008
839.369	25076
839.506	25247
839.643	25285
839.781	24863
839.918	24856
840.055	24913
840.193	24958
840.33	24833
840.467	24875
840.604	24882
840.742	25160
840.879	24795
841.016	24787
841.153	24852
841.29	24962
841.427	24764
841.564	24852
841.701	24814
841.838	24882
841.975	24878
842.112	24715
842.249	24627
842.385	24559
842.522	24760
842.659	24601
842.796	24658
842.933	24525
843.069	24528
843.206	24429
843.343	24616
843.479	24570
843.616	24612
843.752	24243
843.889	24369
844.025	24365
844.162	24144
844.298	24338
844.435	24197
844.571	24273
844.708	24205
844.844	24445
844.98	24414
845.117	24448
845.253	24372
845.389	24213
845.525	24041
845.661	24053
845.798	23969
845.934	23954
846.07	23916
846.206	24091
846.342	24110
846.478	23977
846.614	23737
846.75	23615
846.886	23570
847.022	23748
847.158	23764
847.294	23775
847.429	23672
847.565	23722
847.701	23942
847.837	23482
847.972	23478
848.108	23429
848.244	23474
848.379	23322
848.515	23242
848.65	23208
848.786	23265
848.921	23303
849.057	23356
849.192	23410
849.328	23322
849.463	23269
849.598	23315
849.734	23292
849.869	23132
850.004	23075
850.14	23105
850.275	23083
850.41	22877
850.545	22915
850.68	22934
850.815	22919
850.95	22968
851.085	23090
851.22	23200
851.355	23006
851.49	23029
851.625	22904
851.76	22987
851.895	22892
852.03	23010
852.165	23060
852.299	23025
852.434	22976
852.569	23052
852.703	22904
852.838	23067
852.973	22999
853.107	23128
853.242	22900
853.376	22934
853.511	22740
853.645	22797
853.78	22869
853.914	22850
854.048	22809
854.183	22759
854.317	22881
854.451	22942
854.585	22729
854.72	22820
854.854	22984
854.988	22729
855.122	22793
855.256	22733
855.39	22744
855.524	22729
855.658	23025
855.792	22771
855.926	22763
856.06	22866
856.194	22839
856.327	22790
856.461	22729
856.595	22679
856.729	22793
856.862	22930
856.996	22786
857.13	22858
857.263	22938
857.397	22908
857.53	22824
857.664	22774
857.797	22733
857.931	22942
858.064	22812
858.197	22831
858.331	22790
858.464	22675
858.597	22660
858.731	22733
858.864	22664
858.997	22611
859.13	22820
859.263	22702
859.396	22839
859.529	22755
859.662	22793
859.795	22729
859.928	22736
860.061	22942
860.194	22965
860.327	22786
860.46	22805
860.592	22881
860.725	22858
860.858	22763
860.99	22725
861.123	22668
861.256	22710
861.388	22729
861.521	23554
861.653	22565
861.786	22565
861.918	22656
862.05	22698
862.183	22721
862.315	22740
862.447	22896
862.58	22694
862.712	22508
862.844	22516
862.976	22519
863.108	22436
863.24	22949
863.372	22405
863.504	22447
863.636	22519
863.768	22421
863.9	22428
864.032	22436
864.164	22333
864.296	22561
864.428	22542
864.559	22497
864.691	22618
864.823	22462
864.954	22432
865.086	22451
865.217	22272
865.349	22337
865.48	22337
865.612	22360
865.743	22447
865.875	22329
866.006	22367
866.137	22242
866.269	22322
866.4	22421
866.531	22242
866.662	22261
866.793	22295
866.924	22257
867.055	22295
867.186	22344
867.317	22265
867.448	22230
867.579	22204
867.71	22207
867.841	22185
867.972	22306
868.103	22303
868.233	22348
868.364	22188
868.495	22356
868.625	22493
868.756	22653
868.886	22386
869.017	22481
869.147	22546
869.278	22599
869.408	22497
869.539	22497
869.669	22565
869.799	22409
869.929	22672
870.06	22603
870.19	22774
870.32	22961
870.45	22816
870.58	22824
870.71	22915
870.84	22961
870.97	22797
871.1	22889
871.23	22980
871.36	23079
871.489	22938
871.619	23018
871.749	23060
871.879	23162
872.008	23227
872.138	23189
872.267	23174
872.397	23025
872.526	22919
872.656	22847
872.785	22908
872.915	23029
873.044	23212
873.173	23079
873.303	23071
873.432	23098
873.561	23197
873.69	23132
873.819	23178
873.948	23277
874.077	23181
874.206	23102
874.335	23147
874.464	23193
874.593	23433
874.722	23223
874.851	23414
874.979	23337
875.108	23360
875.237	23360
875.365	23326
875.494	23208
875.623	23452
875.751	23311
875.88	23334
876.008	23353
876.136	23554
876.265	23718
876.393	23691
876.521	23733
876.65	23832
876.778	23634
876.906	23790
877.034	23642
877.162	23520
877.29	23718
877.418	23592
877.546	23665
877.674	23547
877.802	23638
877.93	23596
878.058	23653
878.185	23551
878.313	23570
878.441	23474
878.568	23535
878.696	23589
878.824	23619
878.951	23840
879.079	23760
879.206	23977
879.333	23859
879.461	23604
879.588	23764
879.715	23832
879.842	23813
879.97	23672
880.097	23353
880.224	23379
880.351	23516
880.478	23486
880.605	23497
880.732	23501
880.859	23668
880.986	23421
881.112	23429
881.239	23296
881.366	23197
881.493	23181
881.619	23094
881.746	23022
881.872	23071
881.999	23041
882.125	22919
882.252	23048
882.378	22999
882.505	23220
882.631	22809
882.757	22782
882.883	22801
883.01	22599
883.136	22679
883.262	22733
883.388	22523
883.514	22816
883.64	22805
883.766	22588
883.892	22451
884.018	22409
884.143	22573
884.269	22729
884.395	22474
884.52	22443
884.646	22417
884.772	22382
884.897	22147
885.023	22382
885.148	22409
885.274	22459
885.399	22405
885.524	22265
885.65	22268
885.775	22242
885.9	22219
886.025	22344
886.15	22356
886.275	22375
886.4	22344
886.525	22314
886.65	22200
886.775	22211
886.9	22394
887.025	22557
887.149	22295
887.274	22116
887.399	21991
887.523	22105
887.648	21945
887.773	22078
887.897	22242
888.021	22070
888.146	22032
888.27	22177
888.395	22242
888.519	22112
888.643	22169
888.767	22169
888.891	21884
889.015	21835
889.139	21835
889.263	21797
889.387	22010
889.511	22082
889.635	21956
889.759	21827
889.883	21800
890.006	21800
890.13	21884
890.254	21762
890.377	21770
890.501	21656
890.624	21435
890.748	21576
890.871	21428
890.995	21370
891.118	21272
891.241	21515
891.364	21435
891.488	21393
891.611	21340
891.734	21435
891.857	21466
891.98	21310
892.103	21374
892.226	21405
892.349	21401
892.471	21142
892.594	21272
892.717	21363
892.839	21351
892.962	21279
893.085	21401
893.207	21321
893.33	21074
893.452	21157
893.575	21325
893.697	21332
893.819	21370
893.941	21504
894.064	21435
894.186	21294
894.308	21157
894.43	21329
894.552	21488
894.674	21336
894.796	21150
894.918	21245
895.04	21116
895.161	21294
895.283	21310
895.405	21256
895.526	21184
895.648	21138
895.769	21298
895.891	21275
896.012	21416
896.134	21363
896.255	21252
896.376	21340
896.498	21233
896.619	21348
896.74	21207
896.861	21344
896.982	21542
897.103	21800
897.224	21561
897.345	21504
897.466	21519
897.587	21477
897.708	21504
897.828	21481
897.949	21378
898.07	21389
898.19	21466
898.311	21526
898.431	21363
898.552	21401
898.672	21431
898.792	21519
898.913	21428
899.033	21317
899.153	21302
899.273	21150
899.393	21150
899.513	21108
899.633	21135
899.753	21119
899.873	21077
899.993	21165
900.113	21096
900.232	21085
900.352	20967
900.472	20929
900.591	20842
900.711	20918
900.83	20857
900.95	21062
901.069	21024
901.189	21009
901.308	20613
901.427	20499
901.546	20469
901.665	20503
901.784	20457
901.904	20366
902.023	20328
902.141	20005
902.26	20081
902.379	20115
902.498	19967
902.617	19963
902.735	19982
902.854	19982
902.973	19860
903.091	19681
903.21	19571
903.328	19571
903.446	19658
903.565	19495
903.683	19403
903.801	19327
903.919	19415
904.038	19396
904.156	19232
904.274	19400
904.392	19129
904.51	19160
904.627	19171
904.745	19217
904.863	19225
904.981	18993
905.098	18833
905.216	18810
905.334	18859
905.451	18882
905.569	18711
905.686	18768
905.803	18837
905.921	18635
906.038	18802
906.155	18726
906.272	18433
906.389	18544
906.506	18350
906.623	18350
906.74	18342
906.857	18224
906.974	18292
907.091	18414
907.208	18426
907.324	18365
907.441	18296
907.557	18213
907.674	18087
907.79	17946
907.907	18019
908.023	18121
908.139	17984
908.256	17912
908.372	17904
908.488	17935
908.604	17752
908.72	17710
908.836	17802
908.952	17596
909.068	17805
909.184	17805
909.3	17684
909.415	17783
909.531	17672
909.647	17467
909.762	17436
909.878	17398
909.993	17372
910.108	17448
910.224	17269
910.339	17315
910.454	17296
910.57	17216
910.685	17174
910.8	17402
910.915	17311
911.03	17189
911.145	17018
911.259	17014
911.374	17048
911.489	16843
911.604	16847
911.718	16603
911.833	16702
911.947	16554
912.062	16641
912.176	16771
912.291	16782
912.405	16767
912.519	17033
912.633	16930
912.748	16790
912.862	16656
912.976	16592
913.09	16409
913.204	16470
913.318	16481
913.431	16630
913.545	16634
913.659	16497
913.772	16428
913.886	16287
914	16405
914.113	16367
914.226	16402
914.34	16337
914.453	16238
914.566	16261
914.68	16276
914.793	16124
914.906	15994
915.019	15998
915.132	15903
915.245	15941
915.358	15968
915.47	15895
915.583	15899
915.696	15945
915.809	15979
915.921	15926
916.034	15903
916.146	15701
916.259	15705
916.371	15903
916.483	15804
916.595	15701
916.708	15717
916.82	15724
916.932	15656
917.044	15663
917.156	15591
917.268	15545
917.38	15603
917.491	15462
917.603	15511
917.715	15580
917.826	15530
917.938	15397
918.049	15264
918.161	15496
918.272	15496
918.384	15568
918.495	15397
918.606	15302
918.717	15218
918.828	15306
918.939	15222
919.05	15138
919.161	15192
919.272	14952
919.383	15161
919.494	15226
919.604	15485
919.715	15226
919.826	15066
919.936	15214
920.047	15283
920.157	15176
920.267	15370
920.378	15116
920.488	15100
920.598	15344
920.708	15351
920.818	15355
920.928	15378
921.038	15431
921.148	15374
921.258	15169
921.368	14986
921.477	14986
921.587	14918
921.697	14819
921.806	14960
921.916	14712
922.025	14571
922.134	14476
922.244	14579
922.353	14533
922.462	14362
922.571	14370
922.68	14176
922.789	14149
922.898	14123
923.007	14077
923.116	14142
923.224	14096
923.333	14054
923.442	13986
923.55	13947
923.659	13951
923.767	14031
923.876	13841
923.984	13921
924.092	13799
924.201	13925
924.309	13898
924.417	13875
924.525	13799
924.633	13826
924.741	14568
924.849	13632
924.956	13788
925.064	13559
925.172	13544
925.279	13441
925.387	13601
925.494	13601
925.602	13689
925.709	13514
925.816	13457
925.924	13487
926.031	13529
926.138	13506
926.245	13582
926.352	13358
926.459	13521
926.566	13464
926.673	13445
926.779	13289
926.886	13244
926.993	13278
927.099	13069
927.206	13091
927.312	12996
927.419	13095
927.525	13061
927.631	13141
927.737	12985
927.843	12958
927.95	12798
928.056	12882
928.162	12939
928.267	12977
928.373	13613
928.479	12985
928.585	12726
928.69	12886
928.796	12863
928.901	12741
929.007	12627
929.112	12745
929.218	12707
929.323	12665
929.428	12722
929.533	12700
929.638	12582
929.743	12547
929.848	12631
929.953	12574
930.058	12441
930.163	12251
930.267	12281
930.372	12464
930.477	12300
930.581	12471
930.685	12319
930.79	12148
930.894	12232
930.998	12136
931.103	12296
931.207	11866
931.311	11802
931.415	11790
931.519	11581
931.623	11539
