Data from test_V78500241_961.txt Node
Date: Fri Mar 25 15:48:27 CST 2022
User: usil
Spectrometer: V785-0024
Trigger mode: 0
Integration Time (sec): 4.000000E-1
Scans to average: 1
Nonlinearity correction enabled: false
Boxcar width: 0
Storing dark spectrum: false
XAxis mode: Wavelengths
Number of Pixels in Spectrum: 1024
>>>>>Begin Spectral Data<<<<<
801.071	28828
801.214	28611
801.356	28432
801.499	28348
801.641	28329
801.783	28185
801.926	28382
802.068	28124
802.211	28204
802.353	27991
802.496	27953
802.638	27918
802.78	27873
802.923	27895
803.065	27880
803.208	27865
803.35	27907
803.492	28017
803.635	28128
803.777	28029
803.919	28204
804.061	28557
804.204	28154
804.346	28188
804.488	28055
804.63	28086
804.773	28078
804.915	28147
805.057	28090
805.199	28105
805.341	28242
805.483	28352
805.626	28150
805.768	28169
805.91	28459
806.052	28367
806.194	28272
806.336	28504
806.478	28405
806.62	28481
806.762	28664
806.904	28622
807.046	28862
807.188	28660
807.33	28797
807.472	28748
807.614	28706
807.756	28805
807.898	28698
808.04	28569
808.182	28561
808.324	28618
808.465	28786
808.607	28771
808.749	28877
808.891	29140
809.033	29140
809.174	28984
809.316	28946
809.458	28965
809.6	28991
809.741	29090
809.883	29147
810.025	29364
810.166	29284
810.308	29220
810.45	29353
810.591	29258
810.733	28995
810.875	28938
811.016	28995
811.158	29010
811.299	29121
811.441	29181
811.582	29242
811.724	29094
811.865	29064
812.007	29041
812.148	29102
812.29	29216
812.431	29143
812.573	29436
812.714	29474
812.855	29486
812.997	29623
813.138	29851
813.279	29707
813.421	29665
813.562	29638
813.703	29337
813.845	29337
813.986	29033
814.127	28835
814.268	28831
814.41	28805
814.551	28588
814.692	28805
814.833	28755
814.974	28793
815.115	28809
815.256	28656
815.397	28755
815.539	28634
815.68	28561
815.821	28607
815.962	28672
816.103	28611
816.244	28356
816.385	28398
816.526	28207
816.666	28124
816.807	28010
816.948	28223
817.089	28242
817.23	28131
817.371	27994
817.512	28116
817.653	28051
817.793	28166
817.934	28173
818.075	28078
818.216	28067
818.356	28093
818.497	27991
818.638	27960
818.778	27972
818.919	27812
819.06	27694
819.2	28051
819.341	28169
819.481	28040
819.622	28147
819.762	28459
819.903	28314
820.043	28295
820.184	28181
820.324	28086
820.465	28010
820.605	28177
820.746	28242
820.886	28086
821.026	28173
821.167	28040
821.307	28276
821.447	28074
821.588	28025
821.728	27846
821.868	27759
822.008	27808
822.149	27564
822.289	27663
822.429	27359
822.569	27344
822.709	27332
822.849	27020
822.99	27062
823.13	27043
823.27	27036
823.41	26849
823.55	26773
823.69	26800
823.83	26933
823.97	26918
824.11	26758
824.25	26689
824.389	26659
824.529	26918
824.669	26705
824.809	26708
824.949	26796
825.089	26918
825.228	26731
825.368	26663
825.508	26571
825.648	26609
825.787	26590
825.927	26701
826.067	26556
826.206	26552
826.346	26609
826.485	26590
826.625	26568
826.765	26735
826.904	26583
827.044	26374
827.183	26514
827.323	26339
827.462	26412
827.601	26218
827.741	26206
827.88	26374
828.02	26282
828.159	26214
828.298	26298
828.437	26415
828.577	26271
828.716	26404
828.855	26332
828.994	26134
829.134	25936
829.273	26039
829.412	26130
829.551	26035
829.69	25852
829.829	26039
829.968	25970
830.107	26054
830.246	26081
830.385	25978
830.524	25902
830.663	25955
830.802	25700
830.941	25712
831.08	25582
831.219	25613
831.357	25639
831.496	25791
831.635	25734
831.774	25575
831.913	25518
832.051	25487
832.19	25483
832.329	25419
832.467	25430
832.606	25304
832.744	25362
832.883	25346
833.022	25148
833.16	25320
833.299	25209
833.437	25312
833.576	25472
833.714	25270
833.852	25460
833.991	25320
834.129	25407
834.267	25483
834.406	25411
834.544	25525
834.682	25422
834.821	25293
834.959	25441
835.097	25244
835.235	25350
835.373	25225
835.511	25297
835.65	25202
835.788	25107
835.926	25171
836.064	24928
836.202	24935
836.34	25282
836.478	25419
836.615	25156
836.753	25183
836.891	25247
837.029	25137
837.167	25175
837.305	25012
837.443	24981
837.58	25027
837.718	25072
837.856	25072
837.993	24882
838.131	24985
838.269	24958
838.406	24970
838.544	24833
838.681	24585
838.819	24608
838.956	24521
839.094	24441
839.231	24669
839.369	24627
839.506	24795
839.643	24658
839.781	24456
839.918	24308
840.055	24502
840.193	24429
840.33	24353
840.467	24395
840.604	24445
840.742	24741
840.879	24414
841.016	24338
841.153	24216
841.29	24418
841.427	24346
841.564	24365
841.701	24467
841.838	24376
841.975	24209
842.112	24395
842.249	23958
842.385	23999
842.522	24426
842.659	24296
842.796	24197
842.933	24220
843.069	24030
843.206	23999
843.343	24171
843.479	24148
843.616	23999
843.752	23878
843.889	23923
844.025	24072
844.162	24015
844.298	23874
844.435	23946
844.571	23805
844.708	23927
844.844	24060
844.98	24015
845.117	23988
845.253	23851
845.389	23741
845.525	23741
845.661	23729
845.798	23646
845.934	23737
846.07	23630
846.206	23653
846.342	23737
846.478	23558
846.614	23414
846.75	23239
846.886	23406
847.022	23334
847.158	23315
847.294	23307
847.429	23509
847.565	23345
847.701	23524
847.837	23025
847.972	23098
848.108	23086
848.244	23056
848.379	22919
848.515	23014
848.65	22885
848.786	22938
848.921	22904
849.057	23037
849.192	23064
849.328	22911
849.463	22930
849.598	22984
849.734	22873
849.869	22831
850.004	22653
850.14	22691
850.275	22771
850.41	22672
850.545	22596
850.68	22675
850.815	22698
850.95	22801
851.085	22934
851.22	22790
851.355	22698
851.49	22824
851.625	22656
851.76	22713
851.895	22691
852.03	22626
852.165	22713
852.299	22733
852.434	22763
852.569	22713
852.703	22805
852.838	22763
852.973	22953
853.107	22812
853.242	22717
853.376	22637
853.511	22459
853.645	22538
853.78	22523
853.914	22588
854.048	22580
854.183	22451
854.317	22443
854.451	22858
854.585	22588
854.72	22542
854.854	22516
854.988	22440
855.122	22535
855.256	22500
855.39	22519
855.524	22565
855.658	22649
855.792	22527
855.926	22527
856.06	22698
856.194	22523
856.327	22432
856.461	22557
856.595	22436
856.729	22512
856.862	22573
856.996	22531
857.13	22569
857.263	22618
857.397	22569
857.53	22478
857.664	22363
857.797	22649
857.931	22740
858.064	22588
858.197	22748
858.331	22538
858.464	22462
858.597	22436
858.731	22535
858.864	22516
858.997	22474
859.13	22542
859.263	22584
859.396	22630
859.529	22542
859.662	22409
859.795	22592
859.928	22497
860.061	22717
860.194	22755
860.327	22672
860.46	22580
860.592	22672
860.725	22748
860.858	22672
860.99	22542
861.123	22478
861.256	22485
861.388	22554
861.521	23197
861.653	22440
861.786	22265
861.918	22337
862.05	22405
862.183	22481
862.315	22455
862.447	22421
862.58	22382
862.712	22257
862.844	22211
862.976	22310
863.108	22314
863.24	22729
863.372	22154
863.504	22280
863.636	22329
863.768	22390
863.9	22226
864.032	22257
864.164	22249
864.296	22185
864.428	22379
864.559	22455
864.691	22287
864.823	22207
864.954	22185
865.086	22219
865.217	22196
865.349	21960
865.48	22181
865.612	22253
865.743	22291
865.875	22177
866.006	22070
866.137	22192
866.269	22048
866.4	22036
866.531	22124
866.662	22090
866.793	22078
866.924	21991
867.055	22055
867.186	22147
867.317	22112
867.448	22086
867.579	21968
867.71	21930
867.841	21876
867.972	22017
868.103	22063
868.233	21987
868.364	22055
868.495	22013
868.625	22158
868.756	22440
868.886	22219
869.017	22356
869.147	22409
869.278	22443
869.408	22314
869.539	22287
869.669	22356
869.799	22329
869.929	22398
870.06	22360
870.19	22432
870.32	22599
870.45	22637
870.58	22538
870.71	22847
870.84	22710
870.97	22717
871.1	22679
871.23	22892
871.36	22862
871.489	22759
871.619	22816
871.749	22889
871.879	22892
872.008	22965
872.138	22896
872.267	22961
872.397	22797
872.526	22706
872.656	22622
872.785	22698
872.915	22782
873.044	22984
873.173	22828
873.303	22911
873.432	22961
873.561	22873
873.69	22885
873.819	22938
873.948	23022
874.077	22953
874.206	22858
874.335	22900
874.464	23037
874.593	23132
874.722	23056
874.851	23143
874.979	23220
875.108	23189
875.237	22942
875.365	22976
875.494	23010
875.623	23124
875.751	22995
875.88	22987
876.008	23277
876.136	23414
876.265	23395
876.393	23630
876.521	23585
876.65	23547
876.778	23433
876.906	23372
877.034	23421
877.162	23387
877.29	23406
877.418	23478
877.546	23387
877.674	23440
877.802	23414
877.93	23387
878.058	23311
878.185	23315
878.313	23368
878.441	23395
878.568	23334
878.696	23330
878.824	23516
878.951	23520
879.079	23608
879.206	23726
879.333	23570
879.461	23474
879.588	23516
879.715	23619
879.842	23695
879.97	23509
880.097	23318
880.224	23296
880.351	23322
880.478	23136
880.605	23231
880.732	23231
880.859	23440
880.986	23216
881.112	23360
881.239	23136
881.366	23064
881.493	22949
881.619	22774
881.746	22744
881.872	22771
881.999	22782
882.125	22733
882.252	22915
882.378	22850
882.505	22831
882.631	22535
882.757	22462
882.883	22630
883.01	22314
883.136	22451
883.262	22322
883.388	22287
883.514	22447
883.64	22516
883.766	22474
883.892	22329
884.018	22303
884.143	22455
884.269	22588
884.395	22173
884.52	22116
884.646	22109
884.772	22070
884.897	21941
885.023	22158
885.148	22185
885.274	22242
885.399	22230
885.524	22204
885.65	22093
885.775	22192
885.9	22166
886.025	22185
886.15	22112
886.275	22181
886.4	22097
886.525	22109
886.65	21991
886.775	21899
886.9	22207
887.025	22367
887.149	22135
887.274	21922
887.399	21793
887.523	21728
887.648	21892
887.773	21797
887.897	21907
888.021	21934
888.146	21861
888.27	21903
888.395	21972
888.519	21838
888.643	21922
888.767	21930
888.891	21918
889.015	21580
889.139	21698
889.263	21591
889.387	21774
889.511	21915
889.635	21800
889.759	21568
889.883	21671
890.006	21671
890.13	21751
890.254	21549
890.377	21500
890.501	21359
890.624	21249
890.748	21443
890.871	21310
890.995	21264
891.118	21138
891.241	21241
891.364	21241
891.488	21214
891.611	21169
891.734	21207
891.857	21287
891.98	21275
892.103	21241
892.226	21241
892.349	21169
892.471	21013
892.594	21169
892.717	21214
892.839	21112
892.962	21131
893.085	21184
893.207	21157
893.33	20921
893.452	21024
893.575	21192
893.697	21085
893.819	21291
893.941	21283
894.064	21131
894.186	21070
894.308	20982
894.43	21169
894.552	21161
894.674	21226
894.796	21070
894.918	21043
895.04	21077
895.161	21070
895.283	21036
895.405	21093
895.526	21043
895.648	20967
895.769	21108
895.891	20933
896.012	21146
896.134	21032
896.255	21062
896.376	21081
896.498	21074
896.619	21123
896.74	21051
896.861	21230
896.982	21416
897.103	21469
897.224	21348
897.345	21203
897.466	21279
897.587	21382
897.708	21393
897.828	21241
897.949	21275
898.07	21112
898.19	21237
898.311	21302
898.431	21211
898.552	21260
898.672	21321
898.792	21283
898.913	21203
899.033	21116
899.153	21161
899.273	20883
899.393	21039
899.513	20937
899.633	21093
899.753	21005
899.873	20804
899.993	21074
900.113	20914
900.232	21036
900.352	20994
900.472	20830
900.591	20754
900.711	20754
900.83	20872
900.95	20842
901.069	20921
901.189	20712
901.308	20427
901.427	20275
901.546	20389
901.665	20374
901.784	20298
901.904	20237
902.023	20081
902.141	19822
902.26	19955
902.379	19947
902.498	19868
902.617	19871
902.735	19940
902.854	19689
902.973	19795
903.091	19457
903.21	19529
903.328	19624
903.446	19438
903.565	19289
903.683	19308
903.801	19247
903.919	19232
904.038	19278
904.156	19194
904.274	19206
904.392	19126
904.51	19065
904.627	19019
904.745	19129
904.863	19076
904.981	18905
905.098	18810
905.216	18726
905.334	18916
905.451	18859
905.569	18779
905.686	18848
905.803	18726
905.921	18483
906.038	18597
906.155	18578
906.272	18407
906.389	18490
906.506	18285
906.623	18239
906.74	18232
906.857	18178
906.974	18258
907.091	18285
907.208	18475
907.324	18342
907.441	18129
907.557	18041
907.674	18114
907.79	17961
907.907	17870
908.023	17912
908.139	17992
908.256	17908
908.372	17752
908.488	17923
908.604	17676
908.72	17752
908.836	17691
908.952	17691
909.068	17760
909.184	17802
909.3	17687
909.415	17684
909.531	17710
909.647	17429
909.762	17459
909.878	17341
909.993	17322
910.108	17395
910.224	17356
910.339	17326
910.454	17197
910.57	17174
910.685	17067
910.8	17330
910.915	17303
911.03	17242
911.145	17022
911.259	16976
911.374	16949
911.489	16930
911.604	16812
911.718	16599
911.833	16706
911.947	16580
912.062	16550
912.176	16736
912.291	16740
912.405	16717
912.519	16850
912.633	16892
912.748	16774
912.862	16653
912.976	16504
913.09	16303
913.204	16447
913.318	16424
913.431	16519
913.545	16588
913.659	16599
913.772	16497
913.886	16417
914	16272
914.113	16352
914.226	16367
914.34	16432
914.453	16185
914.566	16295
914.68	16105
914.793	16147
914.906	15964
915.019	15895
915.132	15812
915.245	15968
915.358	15865
915.47	15945
915.583	15892
915.696	15850
915.809	16082
915.921	15987
916.034	15762
916.146	15751
916.259	15838
916.371	15926
916.483	15770
916.595	15629
916.708	15679
916.82	15739
916.932	15743
917.044	15633
917.156	15656
917.268	15481
917.38	15561
917.491	15473
917.603	15530
917.715	15469
917.826	15622
917.938	15408
918.049	15340
918.161	15405
918.272	15504
918.384	15519
918.495	15469
918.606	15283
918.717	15203
918.828	15268
918.939	15310
919.05	15123
919.161	15252
919.272	15108
919.383	14975
919.494	15294
919.604	15469
919.715	15237
919.826	15089
919.936	15207
920.047	15252
920.157	15188
920.267	15435
920.378	15176
920.488	15142
920.598	15283
920.708	15435
920.818	15241
920.928	15264
921.038	15439
921.148	15424
921.258	15138
921.368	15020
921.477	14948
921.587	14937
921.697	14811
921.806	14944
921.916	14804
922.025	14632
922.134	14568
922.244	14533
922.353	14625
922.462	14480
922.571	14317
922.68	14370
922.789	14210
922.898	14256
923.007	14077
923.116	14271
923.224	14252
923.333	14149
923.442	13974
923.55	13982
923.659	14054
923.767	14092
923.876	13932
923.984	13997
924.092	13917
924.201	13906
924.309	13925
924.417	13852
924.525	13833
924.633	13807
924.741	14800
924.849	13559
924.956	13811
925.064	13624
925.172	13476
925.279	13457
925.387	13658
925.494	13605
925.602	13727
925.709	13586
925.816	13468
925.924	13506
926.031	13491
926.138	13529
926.245	13605
926.352	13403
926.459	13460
926.566	13525
926.673	13483
926.779	13339
926.886	13240
926.993	13156
927.099	13129
927.206	13107
927.312	13023
927.419	13076
927.525	13031
927.631	13107
927.737	12962
927.843	12951
927.95	12814
928.056	12993
928.162	12977
928.267	12981
928.373	13483
928.479	13004
928.585	12840
928.69	12897
928.796	12852
928.901	12684
929.007	12623
929.112	12795
929.218	12734
929.323	12696
929.428	12677
929.533	12798
929.638	12627
929.743	12547
929.848	12608
929.953	12570
930.058	12456
930.163	12315
930.267	12258
930.372	12403
930.477	12251
930.581	12490
930.685	12452
930.79	12167
930.894	12247
930.998	12186
931.103	12292
931.207	11805
931.311	11855
931.415	11851
931.519	11604
931.623	11543
