Data from test_V78500241_40.txt Node
Date: Fri Mar 25 15:42:04 CST 2022
User: usil
Spectrometer: V785-0024
Trigger mode: 0
Integration Time (sec): 4.000000E-1
Scans to average: 1
Nonlinearity correction enabled: false
Boxcar width: 0
Storing dark spectrum: false
XAxis mode: Wavelengths
Number of Pixels in Spectrum: 1024
>>>>>Begin Spectral Data<<<<<
801.071	28691
801.214	28641
801.356	28474
801.499	28481
801.641	28196
801.783	28223
801.926	28109
802.068	28067
802.211	28150
802.353	28078
802.496	27918
802.638	27857
802.78	27854
802.923	27865
803.065	27751
803.208	27831
803.35	27812
803.492	27975
803.635	28006
803.777	27861
803.919	27926
804.061	28268
804.204	27979
804.346	27926
804.488	27797
804.63	27949
804.773	27789
804.915	27736
805.057	27827
805.199	27701
805.341	27899
805.483	28086
805.626	27956
805.768	27705
805.91	27907
806.052	28017
806.194	27793
806.336	28139
806.478	27876
806.62	27800
806.762	28063
806.904	28154
807.046	28303
807.188	28196
807.33	28291
807.472	28375
807.614	28272
807.756	28257
807.898	28101
808.04	28025
808.182	28086
808.324	28051
808.465	27899
808.607	28166
808.749	28428
808.891	28344
809.033	28618
809.174	28436
809.316	28344
809.458	28421
809.6	28348
809.741	28341
809.883	28405
810.025	28550
810.166	28569
810.308	28626
810.45	28580
810.591	28546
810.733	28265
810.875	28318
811.016	28188
811.158	28150
811.299	28424
811.441	28303
811.582	28329
811.724	28166
811.865	28284
812.007	28299
812.148	28242
812.29	28341
812.431	28508
812.573	28542
812.714	28675
812.855	28763
812.997	28869
813.138	28995
813.279	28934
813.421	28774
813.562	28679
813.703	28538
813.845	28371
813.986	28109
814.127	27960
814.268	27922
814.41	27823
814.551	27846
814.692	27998
814.833	27770
814.974	27610
815.115	27838
815.256	27618
815.397	27759
815.539	27686
815.68	27500
815.821	27386
815.962	27614
816.103	27469
816.244	27378
816.385	27291
816.526	27264
816.666	27074
816.807	26925
816.948	27127
817.089	27081
817.23	26998
817.371	26887
817.512	26963
817.653	26963
817.793	26940
817.934	26880
818.075	26914
818.216	26830
818.356	26785
818.497	26788
818.638	26594
818.778	26545
818.919	26644
819.06	26613
819.2	26762
819.341	26746
819.481	26864
819.622	26990
819.762	27116
819.903	26891
820.043	26918
820.184	26792
820.324	26880
820.465	26800
820.605	26887
820.746	26876
820.886	26644
821.026	26883
821.167	26788
821.307	26849
821.447	26754
821.588	26503
821.728	26663
821.868	26336
822.008	26233
822.149	26278
822.289	26176
822.429	26050
822.569	25928
822.709	25761
822.849	25772
822.99	25620
823.13	25582
823.27	25476
823.41	25411
823.55	25381
823.69	25491
823.83	25502
823.97	25278
824.11	25103
824.25	25251
824.389	25232
824.529	25381
824.669	25282
824.809	25263
824.949	25346
825.089	25209
825.228	25175
825.368	25065
825.508	25114
825.648	25069
825.787	25145
825.927	25133
826.067	25065
826.206	24943
826.346	25084
826.485	24989
826.625	25046
826.765	25095
826.904	24966
827.044	24726
827.183	24764
827.323	24547
827.462	24703
827.601	24612
827.741	24753
827.88	24681
828.02	24490
828.159	24486
828.298	24639
828.437	24787
828.577	24642
828.716	24654
828.855	24544
828.994	24273
829.134	24300
829.273	24308
829.412	24209
829.551	24159
829.69	24197
829.829	24353
829.968	24334
830.107	24433
830.246	24311
830.385	24319
830.524	24125
830.663	24083
830.802	24064
830.941	23878
831.08	23855
831.219	23988
831.357	23843
831.496	24015
831.635	23745
831.774	23855
831.913	23646
832.051	23551
832.19	23562
832.329	23596
832.467	23535
832.606	23482
832.744	23383
832.883	23349
833.022	23516
833.16	23531
833.299	23497
833.437	23531
833.576	23539
833.714	23452
833.852	23448
833.991	23490
834.129	23505
834.267	23467
834.406	23364
834.544	23562
834.682	23436
834.821	23448
834.959	23493
835.097	23387
835.235	23474
835.373	23372
835.511	23326
835.65	23277
835.788	23246
835.926	23235
836.064	22984
836.202	23022
836.34	23284
836.478	23334
836.615	23273
836.753	23246
836.891	23223
837.029	23284
837.167	23231
837.305	23250
837.443	23284
837.58	23102
837.718	23216
837.856	23109
837.993	23037
838.131	23060
838.269	22942
838.406	22999
838.544	23006
838.681	22885
838.819	22615
838.956	22554
839.094	22428
839.231	22523
839.369	22538
839.506	22904
839.643	22710
839.781	22451
839.918	22440
840.055	22417
840.193	22424
840.33	22417
840.467	22325
840.604	22573
840.742	22793
840.879	22314
841.016	22356
841.153	22272
841.29	22497
841.427	22436
841.564	22470
841.701	22246
841.838	22215
841.975	22333
842.112	22120
842.249	22246
842.385	22147
842.522	22382
842.659	22124
842.796	22177
842.933	22078
843.069	22105
843.206	21960
843.343	22128
843.479	22044
843.616	22036
843.752	21907
843.889	21873
844.025	21903
844.162	21732
844.298	21785
844.435	21644
844.571	21682
844.708	21838
844.844	21869
844.98	21895
845.117	21884
845.253	21732
845.389	21720
845.525	21759
845.661	21686
845.798	21530
845.934	21545
846.07	21477
846.206	21530
846.342	21564
846.478	21466
846.614	21310
846.75	21268
846.886	21218
847.022	21359
847.158	21329
847.294	21131
847.429	21306
847.565	21214
847.701	21416
847.837	20948
847.972	20811
848.108	21066
848.244	21123
848.379	20750
848.515	20895
848.65	20769
848.786	20674
848.921	20853
849.057	20937
849.192	20872
849.328	20746
849.463	20750
849.598	20708
849.734	20670
849.869	20651
850.004	20415
850.14	20564
850.275	20537
850.41	20427
850.545	20427
850.68	20522
850.815	20442
850.95	20526
851.085	20693
851.22	20712
851.355	20446
851.49	20362
851.625	20442
851.76	20438
851.895	20431
852.03	20309
852.165	20370
852.299	20594
852.434	20545
852.569	20450
852.703	20499
852.838	20419
852.973	20564
853.107	20564
853.242	20370
853.376	20336
853.511	20332
853.645	20210
853.78	20336
853.914	20218
854.048	20351
854.183	20240
854.317	20351
854.451	20381
854.585	20412
854.72	20324
854.854	20343
854.988	20275
855.122	20263
855.256	20176
855.39	20210
855.524	20389
855.658	20275
855.792	20343
855.926	20355
856.06	20415
856.194	20381
856.327	20256
856.461	20145
856.595	20119
856.729	20282
856.862	20408
856.996	20389
857.13	20309
857.263	20355
857.397	20434
857.53	20275
857.664	20305
857.797	20377
857.931	20343
858.064	20290
858.197	20408
858.331	20278
858.464	20062
858.597	20073
858.731	20195
858.864	20221
858.997	20153
859.13	20172
859.263	20134
859.396	20309
859.529	20157
859.662	20126
859.795	20081
859.928	20134
860.061	20347
860.194	20450
860.327	20252
860.46	20142
860.592	20225
860.725	20309
860.858	20313
860.99	20191
861.123	20077
861.256	20100
861.388	20142
861.521	20663
861.653	19944
861.786	20027
861.918	20134
862.05	20164
862.183	20225
862.315	20202
862.447	20301
862.58	20294
862.712	19925
862.844	19913
862.976	20134
863.108	20046
863.24	20339
863.372	19776
863.504	19871
863.636	19868
863.768	20024
863.9	19894
864.032	19947
864.164	19772
864.296	19860
864.428	19963
864.559	19902
864.691	19997
864.823	19852
864.954	19807
865.086	19902
865.217	19784
865.349	19677
865.48	19868
865.612	19738
865.743	19940
865.875	19811
866.006	19643
866.137	19837
866.269	19769
866.4	19803
866.531	19811
866.662	19750
866.793	19689
866.924	19742
867.055	19723
867.186	19727
867.317	19689
867.448	19578
867.579	19674
867.71	19750
867.841	19712
867.972	19780
868.103	19693
868.233	19803
868.364	19693
868.495	19708
868.625	19921
868.756	19993
868.886	19917
869.017	19909
869.147	20005
869.278	20092
869.408	19909
869.539	19959
869.669	20005
869.799	19921
869.929	20050
870.06	20062
870.19	20358
870.32	20183
870.45	20328
870.58	20355
870.71	20419
870.84	20473
870.97	20309
871.1	20347
871.23	20598
871.36	20495
871.489	20446
871.619	20514
871.749	20503
871.879	20518
872.008	20689
872.138	20568
872.267	20533
872.397	20351
872.526	20355
872.656	20461
872.785	20404
872.915	20560
873.044	20636
873.173	20571
873.303	20541
873.432	20640
873.561	20743
873.69	20571
873.819	20568
873.948	20648
874.077	20556
874.206	20423
874.335	20583
874.464	20678
874.593	20971
874.722	20804
874.851	20811
874.979	20910
875.108	20944
875.237	20777
875.365	20712
875.494	20750
875.623	20845
875.751	20762
875.88	20899
876.008	20994
876.136	21085
876.265	21233
876.393	21374
876.521	21412
876.65	21351
876.778	21230
876.906	21005
877.034	21173
877.162	21062
877.29	21142
877.418	21180
877.546	21142
877.674	21336
877.802	21264
877.93	21169
878.058	21150
878.185	21211
878.313	21135
878.441	21207
878.568	21055
878.696	21100
878.824	21100
878.951	21275
879.079	21340
879.206	21538
879.333	21340
879.461	21344
879.588	21294
879.715	21412
879.842	21523
879.97	21233
880.097	21070
880.224	20994
880.351	20960
880.478	21020
880.605	21001
880.732	21112
880.859	21275
880.986	21138
881.112	20948
881.239	20895
881.366	20777
881.493	20743
881.619	20522
881.746	20530
881.872	20598
881.999	20511
882.125	20632
882.252	20739
882.378	20568
882.505	20868
882.631	20541
882.757	20374
882.883	20457
883.01	20374
883.136	20240
883.262	20202
883.388	20183
883.514	20393
883.64	20431
883.766	20347
883.892	20149
884.018	20183
884.143	20336
884.269	20419
884.395	20134
884.52	20050
884.646	20100
884.772	19982
884.897	19978
885.023	20145
885.148	20050
885.274	20271
885.399	20058
885.524	20050
885.65	20012
885.775	20027
885.9	20073
886.025	20065
886.15	20058
886.275	19982
886.4	19940
886.525	20065
886.65	19849
886.775	19997
886.9	20103
887.025	20172
887.149	20035
887.274	19788
887.399	19776
887.523	19738
887.648	19788
887.773	19693
887.897	19875
888.021	19803
888.146	19723
888.27	19898
888.395	19970
888.519	19807
888.643	19830
888.767	19849
888.891	19628
889.015	19472
889.139	19704
889.263	19613
889.387	19693
889.511	19708
889.635	19761
889.759	19529
889.883	19381
890.006	19544
890.13	19613
890.254	19331
890.377	19525
890.501	19137
890.624	19232
890.748	19396
890.871	19225
890.995	19133
891.118	19110
891.241	19114
891.364	19133
891.488	19244
891.611	19114
891.734	19133
891.857	19206
891.98	19091
892.103	19217
892.226	19053
892.349	19061
892.471	19015
892.594	19084
892.717	19080
892.839	19228
892.962	19099
893.085	19183
893.207	19008
893.33	18966
893.452	19004
893.575	19194
893.697	19053
893.819	19194
893.941	19232
894.064	19228
894.186	18943
894.308	19023
894.43	19050
894.552	19198
894.674	19148
894.796	19012
894.918	19000
895.04	19053
895.161	19118
895.283	19091
895.405	19019
895.526	18985
895.648	19118
895.769	19015
895.891	19141
896.012	19164
896.134	19183
896.255	19042
896.376	19072
896.498	19118
896.619	19160
896.74	19232
896.861	19255
896.982	19495
897.103	19639
897.224	19426
897.345	19525
897.466	19346
897.587	19449
897.708	19411
897.828	19381
897.949	19206
898.07	19179
898.19	19209
898.311	19449
898.431	19263
898.552	19278
898.672	19480
898.792	19293
898.913	19301
899.033	19206
899.153	19145
899.273	19038
899.393	19057
899.513	19084
899.633	19050
899.753	19076
899.873	18985
899.993	19004
900.113	19072
900.232	18993
900.352	19042
900.472	18886
900.591	18840
900.711	18886
900.83	18791
900.95	18920
901.069	18947
901.189	18738
901.308	18608
901.427	18452
901.546	18585
901.665	18433
901.784	18342
901.904	18361
902.023	18243
902.141	18015
902.26	17984
902.379	18087
902.498	17927
902.617	17912
902.735	17999
902.854	17920
902.973	17767
903.091	17577
903.21	17665
903.328	17722
903.446	17478
903.565	17490
903.683	17360
903.801	17395
903.919	17414
904.038	17387
904.156	17143
904.274	17376
904.392	17064
904.51	17220
904.627	17143
904.745	17235
904.863	17273
904.981	16999
905.098	16866
905.216	16949
905.334	16968
905.451	16839
905.569	16812
905.686	16930
905.803	16908
905.921	16660
906.038	16759
906.155	16649
906.272	16554
906.389	16527
906.506	16375
906.623	16417
906.74	16375
906.857	16249
906.974	16398
907.091	16470
907.208	16653
907.324	16394
907.441	16280
907.557	16063
907.674	16116
907.79	15953
907.907	16010
908.023	16101
908.139	16173
908.256	16040
908.372	16029
908.488	15926
908.604	15812
908.72	15671
908.836	15732
908.952	15766
909.068	15774
909.184	15876
909.3	15842
909.415	15857
909.531	15755
909.647	15568
909.762	15370
909.878	15466
909.993	15424
910.108	15351
910.224	15424
910.339	15431
910.454	15458
910.57	15245
910.685	15207
910.8	15504
910.915	15447
911.03	15382
911.145	15058
911.259	15119
911.374	15013
911.489	15047
911.604	14891
911.718	14804
911.833	14914
911.947	14762
912.062	14697
912.176	14830
912.291	14826
912.405	14857
912.519	15085
912.633	14963
912.748	14834
912.862	14788
912.976	14648
913.09	14473
913.204	14549
913.318	14518
913.431	14731
913.545	14712
913.659	14750
913.772	14613
913.886	14454
914	14427
914.113	14602
914.226	14556
914.34	14450
914.453	14332
914.566	14518
914.68	14423
914.793	14355
914.906	14168
915.019	14092
915.132	13959
915.245	14046
915.358	14161
915.47	14115
915.583	14149
915.696	14161
915.809	14263
915.921	14180
916.034	14031
916.146	14024
916.259	14020
916.371	14081
916.483	14043
916.595	13917
916.708	13959
916.82	13974
916.932	13925
917.044	13955
917.156	13898
917.268	13917
917.38	13765
917.491	13780
917.603	13765
917.715	13837
917.826	13959
917.938	13795
918.049	13757
918.161	13742
918.272	13902
918.384	13883
918.495	13719
918.606	13590
918.717	13491
918.828	13639
918.939	13597
919.05	13510
919.161	13521
919.272	13415
919.383	13388
919.494	13468
919.604	13734
919.715	13586
919.826	13453
919.936	13563
920.047	13632
920.157	13628
920.267	13712
920.378	13601
920.488	13468
920.598	13780
920.708	13879
920.818	13685
920.928	13666
921.038	13830
921.148	13753
921.258	13514
921.368	13499
921.477	13232
921.587	13301
921.697	13110
921.806	13255
921.916	13129
922.025	12943
922.134	13031
922.244	12798
922.353	13050
922.462	12875
922.571	12741
922.68	12642
922.789	12563
922.898	12616
923.007	12623
923.116	12662
923.224	12513
923.333	12456
923.442	12498
923.55	12464
923.659	12471
923.767	12479
923.876	12327
923.984	12426
924.092	12266
924.201	12346
924.309	12319
924.417	12300
924.525	12266
924.633	12342
924.741	13228
924.849	12079
924.956	12152
925.064	12072
925.172	12015
925.279	12064
925.387	11996
925.494	12072
925.602	12117
925.709	12175
925.816	11977
925.924	12098
926.031	12144
926.138	12068
926.245	12083
926.352	11965
926.459	12060
926.566	12117
926.673	12053
926.779	11741
926.886	11874
926.993	11703
927.099	11661
927.206	11539
927.312	11532
927.419	11703
927.525	11646
927.631	11668
927.737	11528
927.843	11448
927.95	11322
928.056	11482
928.162	11471
928.267	11570
928.373	12152
928.479	11592
928.585	11261
928.69	11452
928.796	11463
928.901	11349
929.007	11147
929.112	11315
929.218	11280
929.323	11201
929.428	11128
929.533	11376
929.638	11022
929.743	11102
929.848	11242
929.953	11159
930.058	11071
930.163	10938
930.267	10961
930.372	11006
930.477	10816
930.581	11185
930.685	10919
930.79	10854
930.894	10816
930.998	10729
931.103	10828
931.207	10535
931.311	10474
931.415	10413
931.519	10207
931.623	10177
