Data from test_V78500241_3195.txt Node
Date: Fri Mar 25 16:03:56 CST 2022
User: usil
Spectrometer: V785-0024
Trigger mode: 0
Integration Time (sec): 4.000000E-1
Scans to average: 1
Nonlinearity correction enabled: false
Boxcar width: 0
Storing dark spectrum: false
XAxis mode: Wavelengths
Number of Pixels in Spectrum: 1024
>>>>>Begin Spectral Data<<<<<
801.071	28322
801.214	28504
801.356	28242
801.499	28055
801.641	28036
801.783	28029
801.926	28044
802.068	28040
802.211	28093
802.353	27812
802.496	27762
802.638	27720
802.78	27713
802.923	27511
803.065	27641
803.208	27587
803.35	27667
803.492	27789
803.635	27873
803.777	27869
803.919	27838
804.061	28246
804.204	28078
804.346	27861
804.488	27751
804.63	27869
804.773	27865
804.915	27941
805.057	28166
805.199	27956
805.341	28063
805.483	28219
805.626	28032
805.768	28090
805.91	28017
806.052	28055
806.194	28010
806.336	28204
806.478	28120
806.62	27956
806.762	28352
806.904	28417
807.046	28512
807.188	28580
807.33	28626
807.472	28580
807.614	28356
807.756	28538
807.898	28367
808.04	28386
808.182	28401
808.324	28451
808.465	28401
808.607	28626
808.749	28713
808.891	28820
809.033	28824
809.174	28824
809.316	28816
809.458	28793
809.6	28649
809.741	28835
809.883	28866
810.025	29124
810.166	29083
810.308	29113
810.45	28995
810.591	29060
810.733	28839
810.875	28805
811.016	28694
811.158	28782
811.299	28778
811.441	29018
811.582	28908
811.724	28812
811.865	28771
812.007	28752
812.148	28653
812.29	28869
812.431	28930
812.573	29060
812.714	29193
812.855	29250
812.997	29398
813.138	29516
813.279	29349
813.421	29334
813.562	29242
813.703	29090
813.845	29033
813.986	28641
814.127	28683
814.268	28337
814.41	28519
814.551	28557
814.692	28565
814.833	28459
814.974	28337
815.115	28352
815.256	28432
815.397	28253
815.539	28352
815.68	28284
815.821	28105
815.962	28185
816.103	28363
816.244	28211
816.385	28078
816.526	27991
816.666	27857
816.807	27819
816.948	27838
817.089	27804
817.23	27774
817.371	27709
817.512	27671
817.653	27778
817.793	27652
817.934	27823
818.075	27907
818.216	27831
818.356	27709
818.497	27618
818.638	27485
818.778	27485
818.919	27477
819.06	27561
819.2	27667
819.341	27892
819.481	27861
819.622	27945
819.762	28040
819.903	27994
820.043	27972
820.184	27857
820.324	27819
820.465	27972
820.605	27983
820.746	27934
820.886	27739
821.026	27770
821.167	27888
821.307	27884
821.447	27835
821.588	27759
821.728	27720
821.868	27389
822.008	27165
822.149	27142
822.289	27218
822.429	26918
822.569	26918
822.709	26925
822.849	26701
822.99	26861
823.13	26826
823.27	26720
823.41	26518
823.55	26484
823.69	26583
823.83	26686
823.97	26427
824.11	26202
824.25	26355
824.389	26374
824.529	26545
824.669	26476
824.809	26526
824.949	26518
825.089	26545
825.228	26461
825.368	26298
825.508	26233
825.648	26431
825.787	26221
825.927	26351
826.067	26309
826.206	26301
826.346	26503
826.485	26332
826.625	26324
826.765	26431
826.904	26400
827.044	26107
827.183	26187
827.323	26027
827.462	26172
827.601	26020
827.741	25974
827.88	26206
828.02	25921
828.159	25894
828.298	25978
828.437	26058
828.577	25951
828.716	26046
828.855	25799
828.994	25818
829.134	25666
829.273	25822
829.412	25635
829.551	25556
829.69	25647
829.829	25780
829.968	25712
830.107	25693
830.246	25784
830.385	25685
830.524	25540
830.663	25552
830.802	25403
830.941	25293
831.08	25244
831.219	25430
831.357	25297
831.496	25449
831.635	25282
831.774	25198
831.913	25187
832.051	25175
832.19	25240
832.329	25023
832.467	25031
832.606	24897
832.744	24894
832.883	24951
833.022	25008
833.16	24935
833.299	25088
833.437	24981
833.576	25065
833.714	25004
833.852	25152
833.991	25019
834.129	25312
834.267	25080
834.406	25122
834.544	25034
834.682	25107
834.821	24951
834.959	25107
835.097	24928
835.235	25019
835.373	24913
835.511	25069
835.65	24981
835.788	24943
835.926	24711
836.064	24768
836.202	24810
836.34	24947
836.478	24894
836.615	24875
836.753	24776
836.891	24875
837.029	24798
837.167	24749
837.305	24764
837.443	24722
837.58	24646
837.718	24753
837.856	24658
837.993	24620
838.131	24593
838.269	24544
838.406	24631
838.544	24570
838.681	24334
838.819	24285
838.956	24133
839.094	24182
839.231	24178
839.369	24342
839.506	24627
839.643	24338
839.781	24091
839.918	24148
840.055	24129
840.193	24182
840.33	24053
840.467	24007
840.604	23999
840.742	24365
840.879	23821
841.016	23923
841.153	23859
841.29	24060
841.427	24057
841.564	23988
841.701	24053
841.838	24064
841.975	23920
842.112	23916
842.249	23843
842.385	23821
842.522	24003
842.659	23942
842.796	23756
842.933	23946
843.069	23863
843.206	23798
843.343	23783
843.479	23821
843.616	23786
843.752	23600
843.889	23619
844.025	23802
844.162	23497
844.298	23638
844.435	23547
844.571	23562
844.708	23707
844.844	23790
844.98	23870
845.117	23649
845.253	23611
845.389	23452
845.525	23630
845.661	23490
845.798	23341
845.934	23402
846.07	23315
846.206	23322
846.342	23421
846.478	23379
846.614	23162
846.75	23079
846.886	22908
847.022	23037
847.158	23136
847.294	23094
847.429	23083
847.565	23025
847.701	23318
847.837	22839
847.972	22790
848.108	22961
848.244	22835
848.379	22713
848.515	22736
848.65	22603
848.786	22717
848.921	22603
849.057	22683
849.192	22816
849.328	22672
849.463	22554
849.598	22710
849.734	22577
849.869	22474
850.004	22516
850.14	22303
850.275	22443
850.41	22333
850.545	22287
850.68	22310
850.815	22280
850.95	22485
851.085	22626
851.22	22504
851.355	22550
851.49	22367
851.625	22337
851.76	22242
851.895	22367
852.03	22299
852.165	22424
852.299	22527
852.434	22516
852.569	22443
852.703	22360
852.838	22459
852.973	22504
853.107	22580
853.242	22440
853.376	22173
853.511	22188
853.645	22150
853.78	22303
853.914	22158
854.048	22238
854.183	22128
854.317	22379
854.451	22485
854.585	22234
854.72	22318
854.854	22265
854.988	22105
855.122	22211
855.256	22196
855.39	22272
855.524	22352
855.658	22325
855.792	22166
855.926	22333
856.06	22314
856.194	22265
856.327	22177
856.461	22173
856.595	22181
856.729	22238
856.862	22219
856.996	22322
857.13	22424
857.263	22223
857.397	22284
857.53	22249
857.664	22139
857.797	22360
857.931	22188
858.064	22322
858.197	22447
858.331	22181
858.464	22162
858.597	22109
858.731	22181
858.864	22101
858.997	22211
859.13	22246
859.263	22234
859.396	22333
859.529	22204
859.662	22215
859.795	22105
859.928	22158
860.061	22459
860.194	22386
860.327	22325
860.46	22249
860.592	22333
860.725	22398
860.858	22356
860.99	22204
861.123	22196
861.256	22188
861.388	22188
861.521	22877
861.653	22147
861.786	21930
861.918	22090
862.05	22006
862.183	22105
862.315	22204
862.447	22219
862.58	22112
862.712	21876
862.844	21930
862.976	22002
863.108	21895
863.24	22249
863.372	21956
863.504	21953
863.636	21941
863.768	21850
863.9	21968
864.032	21842
864.164	21983
864.296	21941
864.428	22032
864.559	21949
864.691	21918
864.823	22010
864.954	21926
865.086	21823
865.217	21869
865.349	21747
865.48	21895
865.612	21846
865.743	22013
865.875	21781
866.006	21762
866.137	21842
866.269	21770
866.4	21816
866.531	21709
866.662	21743
866.793	21705
866.924	21789
867.055	21717
867.186	21717
867.317	21755
867.448	21614
867.579	21675
867.71	21652
867.841	21507
867.972	21759
868.103	21629
868.233	21614
868.364	21720
868.495	21915
868.625	22013
868.756	22078
868.886	21873
869.017	21945
869.147	22139
869.278	22040
869.408	22029
869.539	22070
869.669	22082
869.799	22055
869.929	22101
870.06	22048
870.19	22215
870.32	22295
870.45	22318
870.58	22402
870.71	22497
870.84	22493
870.97	22390
871.1	22352
871.23	22580
871.36	22615
871.489	22523
871.619	22630
871.749	22637
871.879	22694
872.008	22835
872.138	22664
872.267	22702
872.397	22398
872.526	22382
872.656	22363
872.785	22455
872.915	22596
873.044	22812
873.173	22653
873.303	22641
873.432	22710
873.561	22675
873.69	22603
873.819	22599
873.948	22664
874.077	22687
874.206	22615
874.335	22634
874.464	22615
874.593	22896
874.722	22721
874.851	22904
874.979	22892
875.108	22938
875.237	22843
875.365	22771
875.494	22694
875.623	22896
875.751	22812
875.88	22877
876.008	22980
876.136	23037
876.265	23178
876.393	23299
876.521	23216
876.65	23246
876.778	23265
876.906	23102
877.034	23162
877.162	23303
877.29	23083
877.418	23242
877.546	23299
877.674	23212
877.802	23166
877.93	23288
878.058	23124
878.185	23048
878.313	23067
878.441	23189
878.568	22946
878.696	22991
878.824	23246
878.951	23159
879.079	23383
879.206	23528
879.333	23307
879.461	23117
879.588	23254
879.715	23284
879.842	23410
879.97	23280
880.097	23052
880.224	23010
880.351	22991
880.478	23060
880.605	23003
880.732	23102
880.859	23181
880.986	23052
881.112	22987
881.239	22831
881.366	22664
881.493	22622
881.619	22611
881.746	22546
881.872	22603
881.999	22504
882.125	22508
882.252	22485
882.378	22466
882.505	22687
882.631	22265
882.757	22234
882.883	22417
883.01	22287
883.136	22215
883.262	22055
883.388	22059
883.514	22204
883.64	22322
883.766	22147
883.892	21987
884.018	22032
884.143	22207
884.269	22287
884.395	21949
884.52	21865
884.646	21956
884.772	21781
884.897	21743
885.023	21850
885.148	21884
885.274	22036
885.399	21873
885.524	21770
885.65	21835
885.775	21953
885.9	21785
886.025	21911
886.15	21945
886.275	21823
886.4	21736
886.525	21778
886.65	21755
886.775	21759
886.9	21918
887.025	22101
887.149	21793
887.274	21675
887.399	21568
887.523	21660
887.648	21519
887.773	21595
887.897	21747
888.021	21720
888.146	21679
888.27	21625
888.395	21804
888.519	21694
888.643	21720
888.767	21686
888.891	21603
889.015	21469
889.139	21694
889.263	21374
889.387	21473
889.511	21576
889.635	21496
889.759	21348
889.883	21306
890.006	21397
890.13	21469
890.254	21408
890.377	21317
890.501	21161
890.624	21047
890.748	21165
890.871	21036
890.995	20994
891.118	20906
891.241	20914
891.364	20864
891.488	21051
891.611	20895
891.734	21081
891.857	21055
891.98	20990
892.103	20998
892.226	20967
892.349	20933
892.471	20796
892.594	20815
892.717	20830
892.839	20735
892.962	20906
893.085	20823
893.207	20941
893.33	20796
893.452	20823
893.575	20921
893.697	20872
893.819	20948
893.941	21074
894.064	21009
894.186	20815
894.308	20773
894.43	20933
894.552	21020
894.674	20948
894.796	20826
894.918	20804
895.04	20735
895.161	20925
895.283	21009
895.405	20842
895.526	20876
895.648	20739
895.769	20819
895.891	20853
896.012	20998
896.134	20914
896.255	20785
896.376	20842
896.498	20739
896.619	20792
896.74	20781
896.861	20895
896.982	21096
897.103	21348
897.224	21001
897.345	21051
897.466	20956
897.587	21093
897.708	21180
897.828	21131
897.949	21062
898.07	20975
898.19	20960
898.311	21108
898.431	20933
898.552	21108
898.672	21157
898.792	21199
898.913	21100
899.033	21017
899.153	20914
899.273	20701
899.393	20815
899.513	20807
899.633	20754
899.753	20785
899.873	20724
899.993	20781
900.113	20682
900.232	20781
900.352	20720
900.472	20587
900.591	20518
900.711	20571
900.83	20621
900.95	20655
901.069	20549
901.189	20450
901.308	20202
901.427	20210
901.546	20153
901.665	20134
901.784	20176
901.904	20035
902.023	19963
902.141	19628
902.26	19693
902.379	19712
902.498	19753
902.617	19582
902.735	19712
902.854	19563
902.973	19491
903.091	19373
903.21	19270
903.328	19434
903.446	19133
903.565	19137
903.683	19076
903.801	19046
903.919	19069
904.038	19141
904.156	18962
904.274	18989
904.392	18852
904.51	18810
904.627	18875
904.745	18981
904.863	18894
904.981	18601
905.098	18547
905.216	18593
905.334	18547
905.451	18563
905.569	18414
905.686	18460
905.803	18559
905.921	18350
906.038	18445
906.155	18342
906.272	18194
906.389	18289
906.506	18087
906.623	18117
906.74	17790
906.857	18057
906.974	18015
907.091	18136
907.208	18254
907.324	18064
907.441	18003
907.557	17779
907.674	17779
907.79	17653
907.907	17733
908.023	17756
908.139	17745
908.256	17684
908.372	17661
908.488	17581
908.604	17493
908.72	17478
908.836	17512
908.952	17436
909.068	17467
909.184	17524
909.3	17501
909.415	17524
909.531	17482
909.647	17193
909.762	17227
909.878	17147
909.993	17189
910.108	17128
910.224	17250
910.339	17189
910.454	17006
910.57	16972
910.685	16961
910.8	17216
910.915	17193
911.03	17025
911.145	16820
911.259	16675
911.374	16710
911.489	16634
911.604	16588
911.718	16512
911.833	16554
911.947	16352
912.062	16325
912.176	16440
912.291	16558
912.405	16508
912.519	16656
912.633	16634
912.748	16596
912.862	16462
912.976	16367
913.09	16223
913.204	16242
913.318	16253
913.431	16363
913.545	16409
913.659	16432
913.772	16192
913.886	16177
914	16116
914.113	16143
914.226	16280
914.34	16196
914.453	15972
914.566	16017
914.68	16093
914.793	15953
914.906	15854
915.019	15709
915.132	15618
915.245	15641
915.358	15557
915.47	15652
915.583	15705
915.696	15739
915.809	15724
915.921	15831
916.034	15591
916.146	15481
916.259	15450
916.371	15739
916.483	15709
916.595	15488
916.708	15564
916.82	15561
916.932	15408
917.044	15496
917.156	15450
917.268	15344
917.38	15302
917.491	15283
917.603	15447
917.715	15367
917.826	15450
917.938	15351
918.049	15142
918.161	15291
918.272	15416
918.384	15431
918.495	15264
918.606	15272
918.717	15089
918.828	15043
918.939	15127
919.05	14986
919.161	14998
919.272	14762
919.383	14895
919.494	15119
919.604	15188
919.715	14994
919.826	14941
919.936	14998
920.047	15150
920.157	14982
920.267	15233
920.378	15051
920.488	14952
920.598	15211
920.708	15424
920.818	15138
920.928	15188
921.038	15367
921.148	15237
921.258	14998
921.368	14845
921.477	14830
921.587	14724
921.697	14613
921.806	14758
921.916	14587
922.025	14522
922.134	14438
922.244	14374
922.353	14503
922.462	14317
922.571	14145
922.68	13986
922.789	14088
922.898	13989
923.007	13978
923.116	14039
923.224	13970
923.333	13993
923.442	13864
923.55	13837
923.659	13909
923.767	13925
923.876	13784
923.984	13879
924.092	13715
924.201	13841
924.309	13750
924.417	13765
924.525	13586
924.633	13712
924.741	14533
924.849	13430
924.956	13632
925.064	13438
925.172	13289
925.279	13419
925.387	13411
925.494	13430
925.602	13559
925.709	13415
925.816	13350
925.924	13304
926.031	13362
926.138	13453
926.245	13396
926.352	13255
926.459	13407
926.566	13407
926.673	13179
926.779	13149
926.886	13118
926.993	13069
927.099	13038
927.206	12920
927.312	12954
927.419	12943
927.525	12935
927.631	12993
927.737	12837
927.843	12909
927.95	12688
928.056	12852
928.162	12779
928.267	12791
928.373	13308
928.479	12844
928.585	12642
928.69	12604
928.796	12779
928.901	12627
929.007	12460
929.112	12566
929.218	12620
929.323	12498
929.428	12486
929.533	12669
929.638	12346
929.743	12490
929.848	12536
929.953	12483
930.058	12285
930.163	12121
930.267	12148
930.372	12304
930.477	12144
930.581	12357
930.685	12254
930.79	12041
930.894	12133
930.998	12026
931.103	12087
931.207	11760
931.311	11783
931.415	11600
931.519	11539
931.623	11520
