Data from test_V78500241_648.txt Node
Date: Fri Mar 25 15:46:17 CST 2022
User: usil
Spectrometer: V785-0024
Trigger mode: 0
Integration Time (sec): 4.000000E-1
Scans to average: 1
Nonlinearity correction enabled: false
Boxcar width: 0
Storing dark spectrum: false
XAxis mode: Wavelengths
Number of Pixels in Spectrum: 1024
>>>>>Begin Spectral Data<<<<<
801.071	27568
801.214	27443
801.356	27279
801.499	27256
801.641	27188
801.783	27096
801.926	27222
802.068	27116
802.211	27055
802.353	27051
802.496	26880
802.638	26933
802.78	26944
802.923	26861
803.065	26773
803.208	26743
803.35	26838
803.492	27017
803.635	27028
803.777	26948
803.919	26933
804.061	27211
804.204	27070
804.346	27005
804.488	26796
804.63	26960
804.773	26769
804.915	27051
805.057	27104
805.199	27032
805.341	27066
805.483	27127
805.626	27211
805.768	27043
805.91	27089
806.052	27070
806.194	27199
806.336	27348
806.478	27119
806.62	27176
806.762	27245
806.904	27542
807.046	27618
807.188	27549
807.33	27724
807.472	27599
807.614	27450
807.756	27447
807.898	27431
808.04	27447
808.182	27332
808.324	27386
808.465	27401
808.607	27686
808.749	27770
808.891	27895
809.033	28029
809.174	27914
809.316	27743
809.458	27793
809.6	27770
809.741	28032
809.883	27930
810.025	27983
810.166	28070
810.308	28097
810.45	28010
810.591	27793
810.733	27698
810.875	27846
811.016	27732
811.158	27679
811.299	27960
811.441	27937
811.582	27998
811.724	27785
811.865	27812
812.007	27671
812.148	27895
812.29	27781
812.431	27869
812.573	28109
812.714	28128
812.855	28192
812.997	28405
813.138	28580
813.279	28356
813.421	28284
813.562	28265
813.703	28215
813.845	27922
813.986	27728
814.127	27545
814.268	27412
814.41	27450
814.551	27519
814.692	27454
814.833	27351
814.974	27473
815.115	27313
815.256	27344
815.397	27226
815.539	27218
815.68	27298
815.821	27173
815.962	27207
816.103	27294
816.244	27169
816.385	26933
816.526	27013
816.666	26811
816.807	26667
816.948	26834
817.089	26876
817.23	26800
817.371	26743
817.512	26712
817.653	26682
817.793	26663
817.934	26648
818.075	26925
818.216	26708
818.356	26701
818.497	26636
818.638	26457
818.778	26530
818.919	26537
819.06	26434
819.2	26636
819.341	26670
819.481	26678
819.622	26925
819.762	27211
819.903	27100
820.043	26758
820.184	26883
820.324	26849
820.465	26883
820.605	26769
820.746	26906
820.886	26750
821.026	26716
821.167	26777
821.307	26982
821.447	26804
821.588	26712
821.728	26583
821.868	26393
822.008	26248
822.149	26199
822.289	26145
822.429	25932
822.569	25966
822.709	25902
822.849	25734
822.99	25742
823.13	25677
823.27	25738
823.41	25521
823.55	25487
823.69	25647
823.83	25407
823.97	25403
824.11	25358
824.25	25232
824.389	25225
824.529	25373
824.669	25521
824.809	25556
824.949	25335
825.089	25411
825.228	25403
825.368	25297
825.508	25168
825.648	25270
825.787	25213
825.927	25114
826.067	25190
826.206	25126
826.346	25388
826.485	25202
826.625	25221
826.765	25403
826.904	25232
827.044	25008
827.183	24878
827.323	24863
827.462	24897
827.601	24875
827.741	24852
827.88	24871
828.02	24795
828.159	24989
828.298	25023
828.437	24932
828.577	24882
828.716	24954
828.855	24837
828.994	24654
829.134	24585
829.273	24654
829.412	24585
829.551	24525
829.69	24589
829.829	24566
829.968	24703
830.107	24840
830.246	24646
830.385	24585
830.524	24505
830.663	24452
830.802	24429
830.941	24262
831.08	24243
831.219	24209
831.357	24330
831.496	24384
831.635	24300
831.774	24114
831.913	24144
832.051	24083
832.19	24026
832.329	24125
832.467	23832
832.606	23874
832.744	23729
832.883	23916
833.022	23771
833.16	23866
833.299	23882
833.437	23885
833.576	23942
833.714	23999
833.852	24060
833.991	23935
834.129	24087
834.267	24133
834.406	23996
834.544	24018
834.682	24003
834.821	23882
834.959	24152
835.097	23969
835.235	24018
835.373	23893
835.511	23874
835.65	23786
835.788	23828
835.926	23604
836.064	23490
836.202	23585
836.34	23802
836.478	23783
836.615	23817
836.753	23847
836.891	23923
837.029	23859
837.167	23676
837.305	23699
837.443	23752
837.58	23619
837.718	23748
837.856	23741
837.993	23566
838.131	23634
838.269	23509
838.406	23528
838.544	23474
838.681	23261
838.819	23315
838.956	23102
839.094	23079
839.231	23189
839.369	23242
839.506	23520
839.643	23452
839.781	23208
839.918	23018
840.055	23151
840.193	23025
840.33	23037
840.467	22995
840.604	23029
840.742	23140
840.879	22915
841.016	23022
841.153	22847
841.29	23109
841.427	22915
841.564	23006
841.701	22889
841.838	22965
841.975	22805
842.112	22942
842.249	22900
842.385	22736
842.522	23025
842.659	22892
842.796	22698
842.933	22843
843.069	22710
843.206	22748
843.343	22877
843.479	22771
843.616	22641
843.752	22637
843.889	22462
844.025	22641
844.162	22466
844.298	22615
844.435	22485
844.571	22451
844.708	22641
844.844	22713
844.98	22641
845.117	22577
845.253	22508
845.389	22481
845.525	22443
845.661	22382
845.798	22337
845.934	22394
846.07	22276
846.206	22363
846.342	22352
846.478	22310
846.614	22078
846.75	21873
846.886	21991
847.022	22051
847.158	21991
847.294	21892
847.429	22128
847.565	21960
847.701	22284
847.837	21686
847.972	21732
848.108	21911
848.244	21812
848.379	21682
848.515	21633
848.65	21511
848.786	21614
848.921	21599
849.057	21808
849.192	21671
849.328	21652
849.463	21759
849.598	21534
849.734	21534
849.869	21466
850.004	21420
850.14	21500
850.275	21367
850.41	21218
850.545	21291
850.68	21370
850.815	21458
850.95	21294
851.085	21511
851.22	21496
851.355	21332
851.49	21264
851.625	21249
851.76	21291
851.895	21252
852.03	21344
852.165	21325
852.299	21523
852.434	21466
852.569	21511
852.703	21386
852.838	21443
852.973	21500
853.107	21526
853.242	21397
853.376	21264
853.511	21074
853.645	21180
853.78	21374
853.914	21370
854.048	21108
854.183	21142
854.317	21184
854.451	21363
854.585	21180
854.72	20982
854.854	21302
854.988	21150
855.122	21157
855.256	21100
855.39	21275
855.524	21245
855.658	21211
855.792	21272
855.926	21138
856.06	21275
856.194	21233
856.327	21154
856.461	21146
856.595	21085
856.729	21199
856.862	21386
856.996	21161
857.13	21211
857.263	21359
857.397	21340
857.53	21321
857.664	21252
857.797	21272
857.931	21230
858.064	21294
858.197	21325
858.331	21188
858.464	21192
858.597	21112
858.731	21214
858.864	21173
858.997	21188
859.13	21161
859.263	21249
859.396	21211
859.529	21135
859.662	21070
859.795	21245
859.928	21066
860.061	21416
860.194	21363
860.327	21233
860.46	21203
860.592	21256
860.725	21287
860.858	21306
860.99	21241
861.123	21093
861.256	21180
861.388	21146
861.521	21709
861.653	21123
861.786	20986
861.918	21081
862.05	21173
862.183	21119
862.315	21055
862.447	21131
862.58	21157
862.712	20876
862.844	20883
862.976	21013
863.108	20998
863.24	21173
863.372	20914
863.504	20781
863.636	20762
863.768	20948
863.9	20758
864.032	20754
864.164	20796
864.296	20914
864.428	20967
864.559	21062
864.691	21036
864.823	20872
864.954	20823
865.086	20834
865.217	20914
865.349	20716
865.48	20811
865.612	20773
865.743	20986
865.875	20899
866.006	20762
866.137	20743
866.269	20754
866.4	20708
866.531	20750
866.662	20670
866.793	20792
866.924	20629
867.055	20705
867.186	20804
867.317	20682
867.448	20560
867.579	20682
867.71	20655
867.841	20731
867.972	20689
868.103	20826
868.233	20659
868.364	20739
868.495	20807
868.625	20998
868.756	21051
868.886	20937
869.017	20929
869.147	21081
869.278	21058
869.408	21055
869.539	20948
869.669	21036
869.799	21055
869.929	21211
870.06	21157
870.19	21332
870.32	21226
870.45	21245
870.58	21321
870.71	21496
870.84	21466
870.97	21462
871.1	21405
871.23	21545
871.36	21492
871.489	21405
871.619	21485
871.749	21504
871.879	21652
872.008	21671
872.138	21530
872.267	21496
872.397	21580
872.526	21370
872.656	21469
872.785	21310
872.915	21576
873.044	21519
873.173	21595
873.303	21709
873.432	21717
873.561	21538
873.69	21530
873.819	21599
873.948	21728
874.077	21549
874.206	21485
874.335	21603
874.464	21656
874.593	21747
874.722	21808
874.851	21751
874.979	21819
875.108	21835
875.237	21899
875.365	21637
875.494	21766
875.623	21831
875.751	21846
875.88	21930
876.008	21884
876.136	21972
876.265	22112
876.393	22261
876.521	22257
876.65	22196
876.778	22246
876.906	22223
877.034	22177
877.162	22268
877.29	22059
877.418	22310
877.546	22150
877.674	22139
877.802	22169
877.93	22150
878.058	22002
878.185	22120
878.313	22131
878.441	22249
878.568	21892
878.696	21998
878.824	22169
878.951	22337
879.079	22314
879.206	22405
879.333	22333
879.461	22131
879.588	22284
879.715	22356
879.842	22329
879.97	22261
880.097	21975
880.224	21945
880.351	22074
880.478	22002
880.605	21861
880.732	21968
880.859	22265
880.986	22086
881.112	21953
881.239	21888
881.366	21614
881.493	21576
881.619	21595
881.746	21663
881.872	21599
881.999	21603
882.125	21545
882.252	21504
882.378	21549
882.505	21656
882.631	21378
882.757	21260
882.883	21348
883.01	21230
883.136	21260
883.262	21203
883.388	21165
883.514	21313
883.64	21374
883.766	21272
883.892	21093
884.018	21142
884.143	21291
884.269	21378
884.395	21055
884.52	20868
884.646	20914
884.772	20906
884.897	20773
885.023	20971
885.148	21131
885.274	21116
885.399	21009
885.524	20838
885.65	20857
885.775	20982
885.9	20941
886.025	21013
886.15	21039
886.275	21001
886.4	20785
886.525	20948
886.65	20933
886.775	20826
886.9	21039
887.025	21150
887.149	20891
887.274	20667
887.399	20792
887.523	20682
887.648	20705
887.773	20587
887.897	20739
888.021	20834
888.146	20746
888.27	20933
888.395	20781
888.519	20750
888.643	20697
888.767	20769
888.891	20693
889.015	20465
889.139	20499
889.263	20511
889.387	20560
889.511	20785
889.635	20659
889.759	20473
889.883	20522
890.006	20484
890.13	20621
890.254	20476
890.377	20454
890.501	20362
890.624	20298
890.748	20358
890.871	20199
890.995	20008
891.118	20138
891.241	20149
891.364	20172
891.488	20199
891.611	20214
891.734	20199
891.857	20149
891.98	20157
892.103	20145
892.226	20069
892.349	20008
892.471	19845
892.594	20111
892.717	20035
892.839	20046
892.962	20073
893.085	19989
893.207	20111
893.33	19837
893.452	19940
893.575	19997
893.697	19898
893.819	20210
893.941	20164
894.064	20122
894.186	20035
894.308	19833
894.43	20050
894.552	20081
894.674	20119
894.796	19963
894.918	20046
895.04	19906
895.161	20043
895.283	20005
895.405	19871
895.526	19909
895.648	20005
895.769	20096
895.891	20142
896.012	20043
896.134	19955
896.255	20001
896.376	19951
896.498	20024
896.619	20043
896.74	19837
896.861	19989
896.982	20339
897.103	20396
897.224	20233
897.345	20275
897.466	20214
897.587	20233
897.708	20275
897.828	20252
897.949	20107
898.07	20069
898.19	20202
898.311	20324
898.431	20115
898.552	20298
898.672	20332
898.792	20214
898.913	20244
899.033	20119
899.153	19982
899.273	19849
899.393	19963
899.513	20062
899.633	20054
899.753	19989
899.873	19963
899.993	19928
900.113	19928
900.232	19921
900.352	19902
900.472	19837
900.591	19666
900.711	19609
900.83	19719
900.95	19925
901.069	19879
901.189	19616
901.308	19457
901.427	19365
901.546	19365
901.665	19388
901.784	19495
901.904	19297
902.023	19198
902.141	19015
902.26	18825
902.379	19015
902.498	18947
902.617	18856
902.735	18913
902.854	18913
902.973	18654
903.091	18604
903.21	18521
903.328	18429
903.446	18483
903.565	18330
903.683	18365
903.801	18308
903.919	18285
904.038	18232
904.156	18091
904.274	18194
904.392	18019
904.51	18102
904.627	18076
904.745	18064
904.863	18102
904.981	17969
905.098	17714
905.216	17775
905.334	17783
905.451	17741
905.569	17661
905.686	17821
905.803	17684
905.921	17562
906.038	17729
906.155	17665
906.272	17440
906.389	17436
906.506	17429
906.623	17391
906.74	17330
906.857	17250
906.974	17246
907.091	17398
907.208	17471
907.324	17303
907.441	17193
907.557	17166
907.674	17105
907.79	16965
907.907	16919
908.023	17041
908.139	16987
908.256	17010
908.372	16892
908.488	16911
908.604	16790
908.72	16649
908.836	16793
908.952	16774
909.068	16736
909.184	16965
909.3	16752
909.415	16801
909.531	16713
909.647	16558
909.762	16516
909.878	16443
909.993	16462
910.108	16432
910.224	16382
910.339	16409
910.454	16284
910.57	16204
910.685	16215
910.8	16504
910.915	16348
911.03	16284
911.145	16173
911.259	16017
911.374	16162
911.489	15960
911.604	15816
911.718	15819
911.833	15739
911.947	15728
912.062	15736
912.176	15743
912.291	15827
912.405	15808
912.519	15907
912.633	16021
912.748	15823
912.862	15816
912.976	15584
913.09	15511
913.204	15530
913.318	15580
913.431	15618
913.545	15698
913.659	15717
913.772	15599
913.886	15515
914	15389
914.113	15382
914.226	15500
914.34	15523
914.453	15298
914.566	15473
914.68	15272
914.793	15256
914.906	15173
915.019	15058
915.132	15013
915.245	14929
915.358	15013
915.47	15093
915.583	14982
915.696	15017
915.809	15032
915.921	15199
916.034	14925
916.146	15005
916.259	14891
916.371	14933
916.483	14960
916.595	14891
916.708	14868
916.82	14963
916.932	14823
917.044	14868
917.156	14864
917.268	14701
917.38	14746
917.491	14724
917.603	14686
917.715	14785
917.826	14724
917.938	14617
918.049	14537
918.161	14598
918.272	14811
918.384	14739
918.495	14571
918.606	14495
918.717	14381
918.828	14434
918.939	14442
919.05	14339
919.161	14358
919.272	14149
919.383	14271
919.494	14473
919.604	14602
919.715	14556
919.826	14271
919.936	14377
920.047	14427
920.157	14339
920.267	14617
920.378	14511
920.488	14377
920.598	14518
920.708	14708
920.818	14533
920.928	14518
921.038	14731
921.148	14746
921.258	14343
921.368	14248
921.477	14111
921.587	14180
921.697	13982
921.806	14092
921.916	14031
922.025	13902
922.134	13807
922.244	13830
922.353	13818
922.462	13715
922.571	13476
922.68	13533
922.789	13400
922.898	13533
923.007	13445
923.116	13464
923.224	13377
923.333	13453
923.442	13312
923.55	13198
923.659	13320
923.767	13388
923.876	13190
923.984	13293
924.092	13209
924.201	13137
924.309	13190
924.417	13129
924.525	13137
924.633	13027
924.741	13913
924.849	12897
924.956	13050
925.064	12943
925.172	12871
925.279	12806
925.387	12871
925.494	12863
925.602	13008
925.709	12920
925.816	12760
925.924	12768
926.031	12905
926.138	12764
926.245	12833
926.352	12734
926.459	12856
926.566	12928
926.673	12673
926.779	12555
926.886	12589
926.993	12426
927.099	12460
927.206	12289
927.312	12399
927.419	12445
927.525	12445
927.631	12509
927.737	12338
927.843	12296
927.95	12167
928.056	12209
928.162	12235
928.267	12281
928.373	12973
928.479	12365
928.585	12060
928.69	12213
928.796	12209
928.901	12121
929.007	11999
929.112	12148
929.218	12019
929.323	12072
929.428	11965
929.533	12030
929.638	11908
929.743	11874
929.848	12034
929.953	11969
930.058	11931
930.163	11638
930.267	11752
930.372	11775
930.477	11638
930.581	11840
930.685	11737
930.79	11577
930.894	11722
930.998	11558
931.103	11668
931.207	11292
931.311	11242
931.415	11090
931.519	10987
931.623	10957
