Data from test_V78500241_2379.txt Node
Date: Fri Mar 25 15:58:16 CST 2022
User: usil
Spectrometer: V785-0024
Trigger mode: 0
Integration Time (sec): 4.000000E-1
Scans to average: 1
Nonlinearity correction enabled: false
Boxcar width: 0
Storing dark spectrum: false
XAxis mode: Wavelengths
Number of Pixels in Spectrum: 1024
>>>>>Begin Spectral Data<<<<<
801.071	28965
801.214	28854
801.356	28687
801.499	28634
801.641	28516
801.783	28516
801.926	28401
802.068	28489
802.211	28394
802.353	28497
802.496	28306
802.638	28105
802.78	28173
802.923	27972
803.065	28150
803.208	28070
803.35	28306
803.492	28280
803.635	28329
803.777	28219
803.919	28344
804.061	28630
804.204	28485
804.346	28234
804.488	28382
804.63	28417
804.773	28379
804.915	28478
805.057	28523
805.199	28497
805.341	28523
805.483	28656
805.626	28573
805.768	28485
805.91	28596
806.052	28603
806.194	28504
806.336	28641
806.478	28660
806.62	28516
806.762	28759
806.904	28812
807.046	29094
807.188	29071
807.33	29128
807.472	29010
807.614	29048
807.756	29052
807.898	28816
808.04	28866
808.182	28835
808.324	28930
808.465	28930
808.607	28980
808.749	29159
808.891	29425
809.033	29296
809.174	29459
809.316	29368
809.458	29239
809.6	29216
809.741	29402
809.883	29395
810.025	29741
810.166	29528
810.308	29661
810.45	29501
810.591	29482
810.733	29356
810.875	29315
811.016	29170
811.158	29208
811.299	29387
811.441	29402
811.582	29315
811.724	29368
811.865	29273
812.007	29410
812.148	29364
812.29	29204
812.431	29509
812.573	29589
812.714	29752
812.855	29824
812.997	29954
813.138	30060
813.279	29977
813.421	29809
813.562	29726
813.703	29581
813.845	29531
813.986	29178
814.127	29193
814.268	28938
814.41	29086
814.551	29003
814.692	29105
814.833	29044
814.974	28888
815.115	29083
815.256	28927
815.397	28888
815.539	28938
815.68	28862
815.821	28763
815.962	28888
816.103	28900
816.244	28691
816.385	28497
816.526	28546
816.666	28459
816.807	28207
816.948	28287
817.089	28478
817.23	28291
817.371	28390
817.512	28287
817.653	28390
817.793	28341
817.934	28333
818.075	28295
818.216	28200
818.356	28234
818.497	28268
818.638	28158
818.778	28048
818.919	28093
819.06	28116
819.2	28177
819.341	28322
819.481	28417
819.622	28504
819.762	28713
819.903	28592
820.043	28649
820.184	28531
820.324	28417
820.465	28554
820.605	28409
820.746	28344
820.886	28363
821.026	28333
821.167	28306
821.307	28485
821.447	28394
821.588	28261
821.728	28219
821.868	28051
822.008	27899
822.149	27846
822.289	27812
822.429	27606
822.569	27420
822.709	27488
822.849	27272
822.99	27310
823.13	27306
823.27	27157
823.41	27233
823.55	27043
823.69	27081
823.83	27043
823.97	27081
824.11	27043
824.25	26948
824.389	26937
824.529	27028
824.669	26895
824.809	26971
824.949	26979
825.089	27150
825.228	26998
825.368	26754
825.508	26811
825.648	26804
825.787	26902
825.927	26986
826.067	26693
826.206	26796
826.346	26838
826.485	26834
826.625	26986
826.765	26944
826.904	26887
827.044	26674
827.183	26594
827.323	26537
827.462	26678
827.601	26602
827.741	26419
827.88	26617
828.02	26575
828.159	26594
828.298	26590
828.437	26590
828.577	26507
828.716	26651
828.855	26499
828.994	26183
829.134	26248
829.273	26218
829.412	26221
829.551	26149
829.69	26240
829.829	26320
829.968	26438
830.107	26309
830.246	26248
830.385	26240
830.524	26244
830.663	26069
830.802	25940
830.941	25913
831.08	25902
831.219	25944
831.357	25936
831.496	26024
831.635	25845
831.774	25693
831.913	25670
832.051	25700
832.19	25578
832.329	25582
832.467	25521
832.606	25472
832.744	25597
832.883	25460
833.022	25571
833.16	25472
833.299	25616
833.437	25487
833.576	25666
833.714	25731
833.852	25681
833.991	25693
834.129	25803
834.267	25609
834.406	25590
834.544	25685
834.682	25609
834.821	25464
834.959	25738
835.097	25384
835.235	25445
835.373	25578
835.511	25506
835.65	25407
835.788	25392
835.926	25282
836.064	25107
836.202	25225
836.34	25289
836.478	25445
836.615	25464
836.753	25495
836.891	25449
837.029	25331
837.167	25274
837.305	25225
837.443	25331
837.58	25194
837.718	25266
837.856	25289
837.993	25099
838.131	25171
838.269	25145
838.406	25194
838.544	25027
838.681	24897
838.819	24760
838.956	24578
839.094	24585
839.231	24730
839.369	24928
839.506	25122
839.643	24970
839.781	24684
839.918	24486
840.055	24738
840.193	24696
840.33	24570
840.467	24677
840.604	24555
840.742	24871
840.879	24509
841.016	24467
841.153	24452
841.29	24635
841.427	24505
841.564	24658
841.701	24669
841.838	24585
841.975	24532
842.112	24353
842.249	24475
842.385	24201
842.522	24464
842.659	24323
842.796	24384
842.933	24346
843.069	24243
843.206	24327
843.343	24414
843.479	24448
843.616	24414
843.752	24117
843.889	24190
844.025	24155
844.162	24243
844.298	24114
844.435	24117
844.571	24041
844.708	24201
844.844	24235
844.98	24254
845.117	24308
845.253	24053
845.389	23958
845.525	24098
845.661	23931
845.798	23821
845.934	23893
846.07	23714
846.206	23901
846.342	24030
846.478	23790
846.614	23691
846.75	23531
846.886	23383
847.022	23619
847.158	23638
847.294	23562
847.429	23657
847.565	23627
847.701	23764
847.837	23258
847.972	23208
848.108	23425
848.244	23448
848.379	23246
848.515	23162
848.65	23212
848.786	23147
848.921	23250
849.057	23299
849.192	23178
849.328	23170
849.463	23174
849.598	22980
849.734	23071
849.869	22980
850.004	22930
850.14	22965
850.275	22965
850.41	22790
850.545	22801
850.68	22915
850.815	22858
850.95	22942
851.085	23010
851.22	23006
851.355	22938
851.49	22892
851.625	22847
851.76	22885
851.895	22873
852.03	22831
852.165	22968
852.299	22869
852.434	23018
852.569	22885
852.703	22843
852.838	22942
852.973	23052
853.107	23090
853.242	22702
853.376	22774
853.511	22603
853.645	22554
853.78	22843
853.914	22786
854.048	22630
854.183	22691
854.317	22725
854.451	22999
854.585	22679
854.72	22767
854.854	22763
854.988	22634
855.122	22683
855.256	22599
855.39	22683
855.524	22793
855.658	22816
855.792	22736
855.926	22850
856.06	22847
856.194	22873
856.327	22740
856.461	22603
856.595	22809
856.729	22599
856.862	22767
856.996	22763
857.13	22752
857.263	22847
857.397	22740
857.53	22748
857.664	22759
857.797	22930
857.931	22873
858.064	22759
858.197	22782
858.331	22843
858.464	22725
858.597	22691
858.731	22736
858.864	22721
858.997	22672
859.13	22668
859.263	22706
859.396	22816
859.529	22797
859.662	22706
859.795	22641
859.928	22759
860.061	22778
860.194	22847
860.327	22679
860.46	22790
860.592	22831
860.725	22885
860.858	22797
860.99	22729
861.123	22675
861.256	22801
861.388	22767
861.521	23299
861.653	22550
861.786	22428
861.918	22656
862.05	22656
862.183	22694
862.315	22634
862.447	22672
862.58	22649
862.712	22493
862.844	22508
862.976	22535
863.108	22455
863.24	22850
863.372	22341
863.504	22474
863.636	22443
863.768	22421
863.9	22481
864.032	22424
864.164	22352
864.296	22436
864.428	22523
864.559	22398
864.691	22447
864.823	22421
864.954	22512
865.086	22322
865.217	22455
865.349	22230
865.48	22329
865.612	22379
865.743	22459
865.875	22405
866.006	22291
866.137	22386
866.269	22306
866.4	22299
866.531	22124
866.662	22139
866.793	22147
866.924	22128
867.055	22295
867.186	22207
867.317	22226
867.448	22181
867.579	22196
867.71	22070
867.841	22090
867.972	22169
868.103	22249
868.233	22169
868.364	22185
868.495	22363
868.625	22485
868.756	22569
868.886	22409
869.017	22436
869.147	22508
869.278	22626
869.408	22527
869.539	22428
869.669	22603
869.799	22363
869.929	22645
870.06	22645
870.19	22679
870.32	22656
870.45	22809
870.58	22892
870.71	23025
870.84	22957
870.97	22915
871.1	22930
871.23	23037
871.36	23079
871.489	22957
871.619	23022
871.749	23067
871.879	23102
872.008	23117
872.138	23102
872.267	22957
872.397	22980
872.526	22778
872.656	22900
872.785	22938
872.915	23098
873.044	23208
873.173	22949
873.303	23102
873.432	23025
873.561	23189
873.69	23155
873.819	23003
873.948	23075
874.077	23124
874.206	22987
874.335	23033
874.464	23315
874.593	23383
874.722	23200
874.851	23398
874.979	23353
875.108	23261
875.237	23246
875.365	23102
875.494	23322
875.623	23463
875.751	23334
875.88	23414
876.008	23376
876.136	23429
876.265	23638
876.393	23718
876.521	23798
876.65	23771
876.778	23691
876.906	23649
877.034	23661
877.162	23661
877.29	23665
877.418	23726
877.546	23589
877.674	23589
877.802	23604
877.93	23623
878.058	23505
878.185	23406
878.313	23512
878.441	23516
878.568	23452
878.696	23558
878.824	23710
878.951	23714
879.079	23878
879.206	23912
879.333	23843
879.461	23726
879.588	23851
879.715	23813
879.842	23794
879.97	23638
880.097	23410
880.224	23512
880.351	23414
880.478	23406
880.605	23497
880.732	23414
880.859	23589
880.986	23566
881.112	23490
881.239	23193
881.366	23269
881.493	23086
881.619	23044
881.746	23067
881.872	23041
881.999	22991
882.125	22976
882.252	23029
882.378	22915
882.505	23181
882.631	22809
882.757	22630
882.883	22828
883.01	22672
883.136	22561
883.262	22649
883.388	22474
883.514	22740
883.64	22691
883.766	22679
883.892	22424
884.018	22421
884.143	22596
884.269	22630
884.395	22394
884.52	22394
884.646	22333
884.772	22143
884.897	22253
885.023	22268
885.148	22428
885.274	22405
885.399	22413
885.524	22432
885.65	22322
885.775	22344
885.9	22207
886.025	22409
886.15	22325
886.275	22257
886.4	22192
886.525	22276
886.65	22101
886.775	22242
886.9	22318
887.025	22481
887.149	22314
887.274	22181
887.399	22055
887.523	22078
887.648	22063
887.773	21956
887.897	22150
888.021	22059
888.146	21884
888.27	22120
888.395	22238
888.519	22143
888.643	21975
888.767	22082
888.891	21930
889.015	21979
889.139	21869
889.263	21800
889.387	21857
889.511	22059
889.635	21903
889.759	21739
889.883	21842
890.006	21892
890.13	21991
890.254	21838
890.377	21907
890.501	21625
890.624	21500
890.748	21625
890.871	21435
890.995	21389
891.118	21287
891.241	21466
891.364	21389
891.488	21466
891.611	21435
891.734	21401
891.857	21526
891.98	21389
892.103	21428
892.226	21329
892.349	21173
892.471	21249
892.594	21256
892.717	21283
892.839	21336
892.962	21291
893.085	21370
893.207	21272
893.33	21233
893.452	21348
893.575	21378
893.697	21291
893.819	21443
893.941	21389
894.064	21382
894.186	21218
894.308	21211
894.43	21420
894.552	21405
894.674	21393
894.796	21138
894.918	21275
895.04	21165
895.161	21256
895.283	21283
895.405	21275
895.526	21195
895.648	21252
895.769	21332
895.891	21233
896.012	21397
896.134	21211
896.255	21256
896.376	21218
896.498	21252
896.619	21256
896.74	21245
896.861	21310
896.982	21545
897.103	21637
897.224	21485
897.345	21485
897.466	21355
897.587	21504
897.708	21523
897.828	21564
897.949	21485
898.07	21317
898.19	21428
898.311	21519
898.431	21294
898.552	21447
898.672	21526
898.792	21488
898.913	21458
899.033	21382
899.153	21165
899.273	21066
899.393	21245
899.513	21127
899.633	21207
899.753	21214
899.873	21058
899.993	21283
900.113	21203
900.232	21123
900.352	21127
900.472	20948
900.591	21005
900.711	20990
900.83	20944
900.95	20986
901.069	21089
901.189	20823
901.308	20575
901.427	20568
901.546	20594
901.665	20431
901.784	20537
901.904	20431
902.023	20339
902.141	20039
902.26	20031
902.379	20145
902.498	19978
902.617	19936
902.735	20020
902.854	20031
902.973	19864
903.091	19647
903.21	19632
903.328	19655
903.446	19552
903.565	19597
903.683	19521
903.801	19346
903.919	19529
904.038	19403
904.156	19316
904.274	19339
904.392	19194
904.51	19088
904.627	19129
904.745	19225
904.863	19327
904.981	19008
905.098	18882
905.216	18913
905.334	18867
905.451	18935
905.569	18856
905.686	18970
905.803	18928
905.921	18589
906.038	18783
906.155	18730
906.272	18570
906.389	18597
906.506	18460
906.623	18464
906.74	18399
906.857	18220
906.974	18213
907.091	18399
907.208	18490
907.324	18407
907.441	18232
907.557	18163
907.674	18102
907.79	18076
907.907	18144
908.023	18213
908.139	18140
908.256	18155
908.372	18007
908.488	17999
908.604	18022
908.72	17809
908.836	17729
908.952	17691
909.068	17946
909.184	17874
909.3	17695
909.415	17794
909.531	17771
909.647	17585
909.762	17474
909.878	17398
909.993	17497
910.108	17490
910.224	17490
910.339	17501
910.454	17440
910.57	17299
910.685	17159
910.8	17448
910.915	17463
911.03	17326
911.145	17136
911.259	17064
911.374	17079
911.489	16938
911.604	16991
911.718	16869
911.833	16892
911.947	16778
912.062	16679
912.176	16869
912.291	16786
912.405	16820
912.519	17052
912.633	17037
912.748	16904
912.862	16847
912.976	16622
913.09	16531
913.204	16725
913.318	16535
913.431	16793
913.545	16679
913.659	16645
913.772	16656
913.886	16527
914	16519
914.113	16512
914.226	16523
914.34	16470
914.453	16405
914.566	16527
914.68	16348
914.793	16249
914.906	16128
915.019	15991
915.132	15960
915.245	16013
915.358	15979
915.47	15949
915.583	15937
915.696	16082
915.809	16150
915.921	16139
916.034	15907
916.146	15888
916.259	15915
916.371	15979
916.483	15884
916.595	15918
916.708	15831
916.82	15861
916.932	15819
917.044	15671
917.156	15652
917.268	15633
917.38	15682
917.491	15610
917.603	15629
917.715	15663
917.826	15827
917.938	15542
918.049	15492
918.161	15511
918.272	15694
918.384	15713
918.495	15568
918.606	15355
918.717	15340
918.828	15424
918.939	15317
919.05	15355
919.161	15313
919.272	15176
919.383	15173
919.494	15294
919.604	15538
919.715	15370
919.826	15279
919.936	15348
920.047	15348
920.157	15329
920.267	15488
920.378	15336
920.488	15348
920.598	15477
920.708	15667
920.818	15378
920.928	15469
921.038	15610
921.148	15473
921.258	15203
921.368	15074
921.477	15097
921.587	15024
921.697	14956
921.806	15001
921.916	14944
922.025	14674
922.134	14739
922.244	14602
922.353	14708
922.462	14590
922.571	14461
922.68	14374
922.789	14286
922.898	14343
923.007	14313
923.116	14362
923.224	14244
923.333	14221
923.442	14206
923.55	14187
923.659	14180
923.767	14134
923.876	14024
923.984	14199
924.092	13974
924.201	14084
924.309	14024
924.417	14103
924.525	14016
924.633	13978
924.741	14842
924.849	13765
924.956	13837
925.064	13693
925.172	13700
925.279	13670
925.387	13662
925.494	13708
925.602	13776
925.709	13704
925.816	13537
925.924	13578
926.031	13685
926.138	13601
926.245	13662
926.352	13563
926.459	13613
926.566	13601
926.673	13521
926.779	13369
926.886	13362
926.993	13266
927.099	13171
927.206	13247
927.312	13145
927.419	13160
927.525	13270
927.631	13190
927.737	13027
927.843	13107
927.95	13027
928.056	13031
928.162	13057
928.267	13072
928.373	13757
928.479	13156
928.585	12935
928.69	12905
928.796	12973
928.901	12932
929.007	12791
929.112	12901
929.218	12783
929.323	12741
929.428	12798
929.533	12871
929.638	12703
929.743	12696
929.848	12684
929.953	12722
930.058	12551
930.163	12422
930.267	12437
930.372	12452
930.477	12384
930.581	12540
930.685	12395
930.79	12289
930.894	12300
930.998	12239
931.103	12327
931.207	12091
931.311	11935
931.415	11840
931.519	11657
931.623	11710
