Data from test_V78500241_3316.txt Node
Date: Fri Mar 25 16:04:46 CST 2022
User: usil
Spectrometer: V785-0024
Trigger mode: 0
Integration Time (sec): 4.000000E-1
Scans to average: 1
Nonlinearity correction enabled: false
Boxcar width: 0
Storing dark spectrum: false
XAxis mode: Wavelengths
Number of Pixels in Spectrum: 1024
>>>>>Begin Spectral Data<<<<<
801.071	28748
801.214	28664
801.356	28447
801.499	28550
801.641	28371
801.783	28280
801.926	28493
802.068	28455
802.211	28246
802.353	28261
802.496	28207
802.638	28086
802.78	28013
802.923	27941
803.065	27934
803.208	28139
803.35	28002
803.492	28143
803.635	28257
803.777	28211
803.919	28356
804.061	28478
804.204	28443
804.346	28265
804.488	28295
804.63	28337
804.773	28200
804.915	28242
805.057	28367
805.199	28314
805.341	28204
805.483	28527
805.626	28401
805.768	28394
805.91	28489
806.052	28333
806.194	28341
806.336	28630
806.478	28428
806.62	28489
806.762	28580
806.904	28679
807.046	28965
807.188	28828
807.33	28828
807.472	28927
807.614	28824
807.756	28729
807.898	28774
808.04	28721
808.182	28664
808.324	28702
808.465	28778
808.607	28949
808.749	29090
808.891	29208
809.033	29372
809.174	29193
809.316	29162
809.458	29128
809.6	28987
809.741	29299
809.883	29273
810.025	29440
810.166	29353
810.308	29463
810.45	29440
810.591	29372
810.733	29151
810.875	29315
811.016	29208
811.158	29006
811.299	29220
811.441	29318
811.582	29360
811.724	29094
811.865	29090
812.007	29136
812.148	29220
812.29	29292
812.431	29421
812.573	29543
812.714	29657
812.855	29676
812.997	29726
813.138	29840
813.279	29809
813.421	29813
813.562	29611
813.703	29433
813.845	29204
813.986	29117
814.127	28984
814.268	28972
814.41	28892
814.551	28653
814.692	28866
814.833	28660
814.974	28683
815.115	28786
815.256	28843
815.397	28740
815.539	28771
815.68	28736
815.821	28679
815.962	28679
816.103	28786
816.244	28550
816.385	28519
816.526	28284
816.666	28265
816.807	28249
816.948	28150
817.089	28405
817.23	28158
817.371	28169
817.512	28207
817.653	28135
817.793	28097
817.934	28219
818.075	28173
818.216	28219
818.356	28207
818.497	28097
818.638	27991
818.778	27987
818.919	27975
819.06	28074
819.2	28109
819.341	28135
819.481	28196
819.622	28382
819.762	28584
819.903	28630
820.043	28371
820.184	28169
820.324	28394
820.465	28371
820.605	28394
820.746	28272
820.886	28158
821.026	28360
821.167	28363
821.307	28470
821.447	28196
821.588	28139
821.728	27979
821.868	27899
822.008	27660
822.149	27709
822.289	27682
822.429	27405
822.569	27370
822.709	27344
822.849	27241
822.99	27272
823.13	27195
823.27	27195
823.41	27051
823.55	26948
823.69	26998
823.83	27032
823.97	26940
824.11	26891
824.25	26701
824.389	26724
824.529	26918
824.669	26727
824.809	26986
824.949	26979
825.089	26906
825.228	27039
825.368	26636
825.508	26625
825.648	26838
825.787	26762
825.927	26834
826.067	26689
826.206	26674
826.346	26720
826.485	26769
826.625	26739
826.765	26796
826.904	26811
827.044	26465
827.183	26659
827.323	26408
827.462	26438
827.601	26396
827.741	26305
827.88	26423
828.02	26385
828.159	26408
828.298	26533
828.437	26511
828.577	26286
828.716	26453
828.855	26290
828.994	26035
829.134	26054
829.273	26050
829.412	26153
829.551	26077
829.69	26130
829.829	26202
829.968	26366
830.107	26130
830.246	26240
830.385	26111
830.524	26043
830.663	25887
830.802	25845
830.941	25780
831.08	25567
831.219	25799
831.357	25788
831.496	26001
831.635	25826
831.774	25700
831.913	25647
832.051	25491
832.19	25483
832.329	25578
832.467	25335
832.606	25403
832.744	25335
832.883	25411
833.022	25232
833.16	25373
833.299	25403
833.437	25476
833.576	25506
833.714	25514
833.852	25571
833.991	25457
834.129	25567
834.267	25533
834.406	25460
834.544	25514
834.682	25419
834.821	25381
834.959	25765
835.097	25358
835.235	25620
835.373	25575
835.511	25487
835.65	25346
835.788	25438
835.926	25339
836.064	25160
836.202	25088
836.34	25259
836.478	25499
836.615	25282
836.753	25297
836.891	25312
837.029	25407
837.167	25164
837.305	25194
837.443	25148
837.58	25015
837.718	25244
837.856	25225
837.993	25114
838.131	25069
838.269	25008
838.406	25061
838.544	25088
838.681	24779
838.819	24719
838.956	24726
839.094	24490
839.231	24646
839.369	24798
839.506	24981
839.643	24897
839.781	24654
839.918	24536
840.055	24631
840.193	24593
840.33	24437
840.467	24471
840.604	24536
840.742	24829
840.879	24361
841.016	24445
841.153	24471
841.29	24574
841.427	24452
841.564	24654
841.701	24460
841.838	24445
841.975	24346
842.112	24456
842.249	24243
842.385	24353
842.522	24559
842.659	24369
842.796	24273
842.933	24296
843.069	24258
843.206	24114
843.343	24262
843.479	24224
843.616	24273
843.752	24060
843.889	24152
844.025	24140
844.162	24060
844.298	24133
844.435	24007
844.571	24041
844.708	24057
844.844	24300
844.98	24110
845.117	24087
845.253	24015
845.389	23942
845.525	23935
845.661	23897
845.798	23695
845.934	23790
846.07	23802
846.206	23817
846.342	23916
846.478	23718
846.614	23558
846.75	23471
846.886	23448
847.022	23615
847.158	23551
847.294	23486
847.429	23528
847.565	23440
847.701	23756
847.837	23170
847.972	23143
848.108	23254
848.244	23296
848.379	22881
848.515	22968
848.65	23022
848.786	23044
848.921	23094
849.057	23185
849.192	23067
849.328	23006
849.463	22946
849.598	23056
849.734	23025
849.869	23018
850.004	22816
850.14	22915
850.275	22938
850.41	22771
850.545	22755
850.68	22835
850.815	22744
850.95	22858
851.085	22949
851.22	22904
851.355	22885
851.49	22740
851.625	22854
851.76	22873
851.895	22889
852.03	22774
852.165	22881
852.299	22759
852.434	22771
852.569	22930
852.703	22831
852.838	22801
852.973	22934
853.107	22904
853.242	22713
853.376	22809
853.511	22596
853.645	22675
853.78	22771
853.914	22664
854.048	22706
854.183	22588
854.317	22523
854.451	22896
854.585	22615
854.72	22618
854.854	22793
854.988	22660
855.122	22691
855.256	22512
855.39	22615
855.524	22656
855.658	22542
855.792	22702
855.926	22637
856.06	22740
856.194	22752
856.327	22637
856.461	22618
856.595	22565
856.729	22710
856.862	22748
856.996	22717
857.13	22675
857.263	22782
857.397	22790
857.53	22599
857.664	22675
857.797	22668
857.931	22649
858.064	22603
858.197	22862
858.331	22573
858.464	22626
858.597	22493
858.731	22611
858.864	22615
858.997	22675
859.13	22607
859.263	22672
859.396	22805
859.529	22596
859.662	22584
859.795	22599
859.928	22835
860.061	22824
860.194	22862
860.327	22649
860.46	22634
860.592	22767
860.725	22873
860.858	22740
860.99	22645
861.123	22607
861.256	22557
861.388	22603
861.521	23341
861.653	22550
861.786	22375
861.918	22455
862.05	22565
862.183	22626
862.315	22584
862.447	22565
862.58	22554
862.712	22379
862.844	22341
862.976	22356
863.108	22409
863.24	22801
863.372	22390
863.504	22314
863.636	22299
863.768	22455
863.9	22322
864.032	22215
864.164	22322
864.296	22440
864.428	22375
864.559	22481
864.691	22485
864.823	22352
864.954	22272
865.086	22249
865.217	22226
865.349	22246
865.48	22188
865.612	22101
865.743	22413
865.875	22291
866.006	22215
866.137	22261
866.269	22306
866.4	22265
866.531	22086
866.662	22078
866.793	22223
866.924	22268
867.055	22253
867.186	22291
867.317	22120
867.448	22143
867.579	22097
867.71	22124
867.841	22093
867.972	22261
868.103	22177
868.233	22181
868.364	22287
868.495	22284
868.625	22394
868.756	22519
868.886	22337
869.017	22428
869.147	22577
869.278	22542
869.408	22424
869.539	22344
869.669	22523
869.799	22440
869.929	22683
870.06	22421
870.19	22683
870.32	22653
870.45	22733
870.58	22797
870.71	22839
870.84	22930
870.97	22763
871.1	22866
871.23	22923
871.36	22976
871.489	22858
871.619	22999
871.749	22908
871.879	22995
872.008	22987
872.138	22987
872.267	22881
872.397	22896
872.526	22835
872.656	22835
872.785	22835
872.915	23105
873.044	23178
873.173	23105
873.303	23052
873.432	23109
873.561	23239
873.69	23037
873.819	22930
873.948	23067
874.077	23056
874.206	22965
874.335	23033
874.464	23102
874.593	23254
874.722	23197
874.851	23181
874.979	23326
875.108	23250
875.237	23132
875.365	23159
875.494	23155
875.623	23421
875.751	23231
875.88	23227
876.008	23391
876.136	23444
876.265	23627
876.393	23760
876.521	23775
876.65	23684
876.778	23551
876.906	23581
877.034	23589
877.162	23589
877.29	23642
877.418	23581
877.546	23615
877.674	23615
877.802	23516
877.93	23478
878.058	23448
878.185	23292
878.313	23543
878.441	23619
878.568	23292
878.696	23596
878.824	23581
878.951	23577
879.079	23752
879.206	23969
879.333	23691
879.461	23581
879.588	23646
879.715	23813
879.842	23809
879.97	23684
880.097	23501
880.224	23364
880.351	23505
880.478	23376
880.605	23402
880.732	23398
880.859	23592
880.986	23455
881.112	23383
881.239	23170
881.366	23025
881.493	23090
881.619	22999
881.746	22938
881.872	22953
881.999	22869
882.125	22824
882.252	23003
882.378	23010
882.505	23067
882.631	22805
882.757	22645
882.883	22656
883.01	22634
883.136	22660
883.262	22500
883.388	22618
883.514	22615
883.64	22713
883.766	22622
883.892	22417
884.018	22470
884.143	22584
884.269	22672
884.395	22417
884.52	22268
884.646	22325
884.772	22154
884.897	22215
885.023	22276
885.148	22295
885.274	22428
885.399	22333
885.524	22265
885.65	22318
885.775	22226
885.9	22196
886.025	22204
886.15	22352
886.275	22253
886.4	22234
886.525	22215
886.65	22200
886.775	22287
886.9	22329
887.025	22428
887.149	22124
887.274	21945
887.399	21876
887.523	22013
887.648	22063
887.773	21865
887.897	22082
888.021	21937
888.146	21949
888.27	22067
888.395	22112
888.519	22013
888.643	22086
888.767	22109
888.891	21793
889.015	21873
889.139	21907
889.263	21728
889.387	21812
889.511	21922
889.635	21991
889.759	21838
889.883	21846
890.006	21800
890.13	21915
890.254	21648
890.377	21656
890.501	21553
890.624	21568
890.748	21542
890.871	21370
890.995	21412
891.118	21344
891.241	21302
891.364	21386
891.488	21416
891.611	21363
891.734	21420
891.857	21424
891.98	21313
892.103	21420
892.226	21351
892.349	21218
892.471	21173
892.594	21207
892.717	21279
892.839	21306
892.962	21283
893.085	21374
893.207	21367
893.33	21009
893.452	21055
893.575	21306
893.697	21226
893.819	21431
893.941	21534
894.064	21252
894.186	21157
894.308	21203
894.43	21287
894.552	21397
894.674	21256
894.796	21043
894.918	21146
895.04	21173
895.161	21260
895.283	21268
895.405	21207
895.526	21218
895.648	21093
895.769	21203
895.891	21211
896.012	21264
896.134	21321
896.255	21272
896.376	21138
896.498	21154
896.619	21207
896.74	21176
896.861	21275
896.982	21511
897.103	21705
897.224	21591
897.345	21447
897.466	21458
897.587	21408
897.708	21515
897.828	21317
897.949	21389
898.07	21192
898.19	21260
898.311	21439
898.431	21310
898.552	21374
898.672	21492
898.792	21416
898.913	21336
899.033	21340
899.153	21146
899.273	21043
899.393	21157
899.513	21119
899.633	21127
899.753	21195
899.873	21039
899.993	21055
900.113	21089
900.232	21013
900.352	21013
900.472	20956
900.591	21005
900.711	20918
900.83	20807
900.95	20849
901.069	20857
901.189	20644
901.308	20655
901.427	20533
901.546	20431
901.665	20442
901.784	20446
901.904	20370
902.023	20252
902.141	19974
902.26	19928
902.379	20126
902.498	19967
902.617	19913
902.735	19875
902.854	19879
902.973	19906
903.091	19708
903.21	19715
903.328	19647
903.446	19525
903.565	19422
903.683	19396
903.801	19335
903.919	19422
904.038	19297
904.156	19133
904.274	19278
904.392	19171
904.51	19221
904.627	19236
904.745	19312
904.863	19278
904.981	18993
905.098	18829
905.216	18787
905.334	18890
905.451	18840
905.569	18764
905.686	18913
905.803	18856
905.921	18681
906.038	18730
906.155	18711
906.272	18536
906.389	18570
906.506	18399
906.623	18365
906.74	18372
906.857	18174
906.974	18270
907.091	18433
907.208	18418
907.324	18330
907.441	18357
907.557	18072
907.674	18015
907.79	18057
907.907	18049
908.023	18125
908.139	18114
908.256	18022
908.372	17946
908.488	17885
908.604	17885
908.72	17707
908.836	17798
908.952	17600
909.068	17821
909.184	17878
909.3	17767
909.415	17832
909.531	17760
909.647	17497
909.762	17398
909.878	17429
909.993	17535
910.108	17436
910.224	17497
910.339	17417
910.454	17368
910.57	17326
910.685	17334
910.8	17474
910.915	17471
911.03	17227
911.145	17124
911.259	17025
911.374	17075
911.489	17018
911.604	17075
911.718	16797
911.833	16889
911.947	16778
912.062	16664
912.176	16869
912.291	16786
912.405	16755
912.519	17037
912.633	16999
912.748	16820
912.862	16778
912.976	16592
913.09	16481
913.204	16573
913.318	16717
913.431	16596
913.545	16725
913.659	16641
913.772	16573
913.886	16485
914	16337
914.113	16512
914.226	16527
914.34	16455
914.453	16284
914.566	16508
914.68	16177
914.793	16356
914.906	16029
915.019	15930
915.132	15968
915.245	16002
915.358	16036
915.47	15903
915.583	16025
915.696	16059
915.809	16021
915.921	16071
916.034	15930
916.146	15793
916.259	15899
916.371	15907
916.483	15960
916.595	15819
916.708	15797
916.82	15854
916.932	15652
917.044	15774
917.156	15698
917.268	15614
917.38	15614
917.491	15561
917.603	15504
917.715	15713
917.826	15774
917.938	15542
918.049	15534
918.161	15599
918.272	15576
918.384	15549
918.495	15507
918.606	15340
918.717	15211
918.828	15325
918.939	15344
919.05	15192
919.161	15256
919.272	15100
919.383	15169
919.494	15313
919.604	15466
919.715	15279
919.826	15245
919.936	15188
920.047	15294
920.157	15302
920.267	15515
920.378	15325
920.488	15230
920.598	15488
920.708	15580
920.818	15431
920.928	15424
921.038	15515
921.148	15504
921.258	15268
921.368	15100
921.477	15070
921.587	14982
921.697	14872
921.806	14986
921.916	14811
922.025	14735
922.134	14674
922.244	14682
922.353	14678
922.462	14499
922.571	14377
922.68	14275
922.789	14195
922.898	14248
923.007	14336
923.116	14263
923.224	14278
923.333	14263
923.442	14206
923.55	14024
923.659	14031
923.767	14126
923.876	14157
923.984	14130
924.092	13909
924.201	13989
924.309	14043
924.417	14084
924.525	13902
924.633	13963
924.741	14918
924.849	13791
924.956	13856
925.064	13643
925.172	13658
925.279	13597
925.387	13753
925.494	13556
925.602	13734
925.709	13742
925.816	13544
925.924	13514
926.031	13632
926.138	13533
926.245	13639
926.352	13464
926.459	13628
926.566	13685
926.673	13468
926.779	13403
926.886	13480
926.993	13221
927.099	13187
927.206	13198
927.312	13038
927.419	13259
927.525	13179
927.631	13247
927.737	13038
927.843	13008
927.95	12905
928.056	13042
928.162	13149
928.267	13000
928.373	13616
928.479	13050
928.585	12833
928.69	12947
928.796	12989
928.901	12909
929.007	12753
929.112	12837
929.218	12764
929.323	12703
929.428	12665
929.533	12817
929.638	12551
929.743	12604
929.848	12688
929.953	12612
930.058	12555
930.163	12426
930.267	12388
930.372	12509
930.477	12361
930.581	12604
930.685	12403
930.79	12220
930.894	12251
930.998	12205
931.103	12369
931.207	11942
931.311	11946
931.415	11798
931.519	11676
931.623	11630
