Data from test_V78500241_236.txt Node
Date: Fri Mar 25 15:43:26 CST 2022
User: usil
Spectrometer: V785-0024
Trigger mode: 0
Integration Time (sec): 4.000000E-1
Scans to average: 1
Nonlinearity correction enabled: false
Boxcar width: 0
Storing dark spectrum: false
XAxis mode: Wavelengths
Number of Pixels in Spectrum: 1024
>>>>>Begin Spectral Data<<<<<
801.071	29634
801.214	29710
801.356	29398
801.499	29337
801.641	29299
801.783	29227
801.926	29181
802.068	29239
802.211	29170
802.353	29151
802.496	28942
802.638	28888
802.78	28812
802.923	28694
803.065	28763
803.208	28831
803.35	28919
803.492	28968
803.635	29003
803.777	28888
803.919	28999
804.061	29254
804.204	29109
804.346	28923
804.488	28748
804.63	28942
804.773	28752
804.915	28961
805.057	28942
805.199	29003
805.341	29022
805.483	29181
805.626	29147
805.768	29014
805.91	28980
806.052	29075
806.194	29060
806.336	29356
806.478	29246
806.62	29117
806.762	29250
806.904	29452
807.046	29657
807.188	29467
807.33	29463
807.472	29684
807.614	29505
807.756	29531
807.898	29322
808.04	29284
808.182	29261
808.324	29318
808.465	29296
808.607	29573
808.749	29653
808.891	29977
809.033	29908
809.174	29771
809.316	29691
809.458	29642
809.6	29748
809.741	29866
809.883	29687
810.025	29939
810.166	29916
810.308	29961
810.45	29824
810.591	29935
810.733	29794
810.875	29611
811.016	29638
811.158	29619
811.299	29752
811.441	29912
811.582	29889
811.724	29630
811.865	29585
812.007	29699
812.148	29672
812.29	29710
812.431	29779
812.573	29996
812.714	30174
812.855	30213
812.997	30224
813.138	30483
813.279	30349
813.421	30327
813.562	30114
813.703	30117
813.845	29764
813.986	29467
814.127	29410
814.268	29345
814.41	29337
814.551	29414
814.692	29311
814.833	29189
814.974	29277
815.115	29250
815.256	29193
815.397	29086
815.539	29056
815.68	29128
815.821	29181
815.962	29155
816.103	29052
816.244	28908
816.385	28934
816.526	28774
816.666	28542
816.807	28493
816.948	28580
817.089	28527
817.23	28527
817.371	28478
817.512	28649
817.653	28588
817.793	28295
817.934	28550
818.075	28565
818.216	28622
818.356	28436
818.497	28310
818.638	28204
818.778	28291
818.919	28261
819.06	28398
819.2	28390
819.341	28318
819.481	28367
819.622	28542
819.762	28820
819.903	28740
820.043	28611
820.184	28497
820.324	28554
820.465	28531
820.605	28588
820.746	28565
820.886	28428
821.026	28481
821.167	28493
821.307	28622
821.447	28451
821.588	28341
821.728	28131
821.868	28128
822.008	28032
822.149	27941
822.289	27808
822.429	27694
822.569	27523
822.709	27656
822.849	27363
822.99	27477
823.13	27214
823.27	27367
823.41	27184
823.55	27176
823.69	27093
823.83	27074
823.97	27116
824.11	27032
824.25	26921
824.389	26940
824.529	27116
824.669	26883
824.809	27100
824.949	26933
825.089	27169
825.228	27074
825.368	26838
825.508	26693
825.648	26861
825.787	26773
825.927	26967
826.067	26750
826.206	26876
826.346	26834
826.485	26819
826.625	26853
826.765	26921
826.904	26830
827.044	26564
827.183	26594
827.323	26453
827.462	26461
827.601	26629
827.741	26484
827.88	26446
828.02	26301
828.159	26442
828.298	26294
828.437	26495
828.577	26275
828.716	26556
828.855	26450
828.994	26202
829.134	26187
829.273	26206
829.412	26077
829.551	26054
829.69	26065
829.829	26126
829.968	26202
830.107	26218
830.246	26145
830.385	25951
830.524	25917
830.663	25833
830.802	25674
830.941	25639
831.08	25685
831.219	25776
831.357	25757
831.496	25982
831.635	25776
831.774	25742
831.913	25761
832.051	25559
832.19	25316
832.329	25354
832.467	25400
832.606	25293
832.744	25289
832.883	25270
833.022	25289
833.16	25422
833.299	25339
833.437	25400
833.576	25460
833.714	25441
833.852	25529
833.991	25438
834.129	25476
834.267	25358
834.406	25209
834.544	25346
834.682	25415
834.821	25274
834.959	25358
835.097	25240
835.235	25460
835.373	25354
835.511	25388
835.65	25198
835.788	25114
835.926	24916
836.064	24962
836.202	25034
836.34	25156
836.478	25069
836.615	25103
836.753	25187
836.891	25335
837.029	25263
837.167	25107
837.305	25129
837.443	25042
837.58	24939
837.718	25015
837.856	25042
837.993	25004
838.131	24962
838.269	24894
838.406	24814
838.544	24859
838.681	24498
838.819	24650
838.956	24281
839.094	24441
839.231	24486
839.369	24547
839.506	24810
839.643	24661
839.781	24308
839.918	24323
840.055	24448
840.193	24357
840.33	24216
840.467	24213
840.604	24357
840.742	24498
840.879	24186
841.016	24251
841.153	24098
841.29	24407
841.427	24292
841.564	24353
841.701	24395
841.838	24254
841.975	24125
842.112	24106
842.249	24125
842.385	23958
842.522	24182
842.659	24152
842.796	24098
842.933	23969
843.069	23878
843.206	23935
843.343	24026
843.479	23961
843.616	23977
843.752	23680
843.889	23657
844.025	23889
844.162	23615
844.298	23843
844.435	23752
844.571	23714
844.708	23756
844.844	23824
844.98	23832
845.117	23798
845.253	23653
845.389	23429
845.525	23646
845.661	23379
845.798	23414
845.934	23360
846.07	23509
846.206	23383
846.342	23444
846.478	23299
846.614	23159
846.75	23071
846.886	23086
847.022	23223
847.158	23166
847.294	23235
847.429	23151
847.565	23132
847.701	23421
847.837	22850
847.972	22809
848.108	23075
848.244	22892
848.379	22713
848.515	22668
848.65	22668
848.786	22679
848.921	22782
849.057	22797
849.192	22656
849.328	22717
849.463	22656
849.598	22523
849.734	22565
849.869	22497
850.004	22413
850.14	22531
850.275	22440
850.41	22417
850.545	22375
850.68	22405
850.815	22523
850.95	22363
851.085	22618
851.22	22504
851.355	22341
851.49	22489
851.625	22424
851.76	22573
851.895	22337
852.03	22306
852.165	22337
852.299	22421
852.434	22531
852.569	22485
852.703	22402
852.838	22447
852.973	22481
853.107	22523
853.242	22371
853.376	22261
853.511	22002
853.645	22135
853.78	22356
853.914	22226
854.048	22135
854.183	22082
854.317	22280
854.451	22257
854.585	22318
854.72	22070
854.854	22211
854.988	22067
855.122	22230
855.256	22040
855.39	22200
855.524	22226
855.658	22303
855.792	22318
855.926	22249
856.06	22185
856.194	22238
856.327	22261
856.461	22143
856.595	22109
856.729	22154
856.862	22352
856.996	22261
857.13	22249
857.263	22299
857.397	22284
857.53	22257
857.664	22150
857.797	22181
857.931	22295
858.064	22143
858.197	22211
858.331	22124
858.464	22143
858.597	22063
858.731	22093
858.864	22226
858.997	22070
859.13	22162
859.263	22162
859.396	22150
859.529	22158
859.662	22128
859.795	22055
859.928	22173
860.061	22310
860.194	22325
860.327	22116
860.46	22185
860.592	22185
860.725	22363
860.858	22352
860.99	22086
861.123	22036
861.256	22181
861.388	22265
861.521	22828
861.653	22032
861.786	21934
861.918	21975
862.05	22105
862.183	22063
862.315	22215
862.447	22325
862.58	22124
862.712	21884
862.844	21793
862.976	21918
863.108	21880
863.24	22382
863.372	21709
863.504	21720
863.636	21960
863.768	21918
863.9	21743
864.032	21690
864.164	21690
864.296	21937
864.428	21835
864.559	21922
864.691	21808
864.823	21800
864.954	21797
865.086	21747
865.217	21865
865.349	21599
865.48	21667
865.612	21698
865.743	21934
865.875	21751
866.006	21728
866.137	21671
866.269	21766
866.4	21679
866.531	21675
866.662	21580
866.793	21610
866.924	21618
867.055	21717
867.186	21523
867.317	21542
867.448	21553
867.579	21580
867.71	21603
867.841	21568
867.972	21675
868.103	21637
868.233	21599
868.364	21728
868.495	21686
868.625	21953
868.756	21876
868.886	21827
869.017	21865
869.147	21880
869.278	22055
869.408	21797
869.539	21812
869.669	21956
869.799	21907
869.929	22017
870.06	21968
870.19	22112
870.32	22154
870.45	22162
870.58	22265
870.71	22360
870.84	22417
870.97	22242
871.1	22242
871.23	22379
871.36	22535
871.489	22341
871.619	22424
871.749	22512
871.879	22417
872.008	22596
872.138	22497
872.267	22584
872.397	22360
872.526	22306
872.656	22242
872.785	22405
872.915	22493
873.044	22580
873.173	22550
873.303	22561
873.432	22618
873.561	22656
873.69	22428
873.819	22565
873.948	22493
874.077	22546
874.206	22512
874.335	22481
874.464	22637
874.593	22542
874.722	22584
874.851	22782
874.979	22759
875.108	22596
875.237	22801
875.365	22497
875.494	22748
875.623	22923
875.751	22580
875.88	22645
876.008	22805
876.136	22946
876.265	23102
876.393	23223
876.521	23170
876.65	23239
876.778	23140
876.906	23014
877.034	23121
877.162	22953
877.29	23064
877.418	23079
877.546	23109
877.674	22927
877.802	22930
877.93	23022
878.058	23098
878.185	22885
878.313	22968
878.441	22965
878.568	22957
878.696	23064
878.824	23083
878.951	23086
879.079	23181
879.206	23410
879.333	23185
879.461	23006
879.588	23132
879.715	23212
879.842	23341
879.97	23136
880.097	22949
880.224	22717
880.351	22938
880.478	22850
880.605	22839
880.732	22793
880.859	23033
880.986	22965
881.112	22915
881.239	22717
881.366	22531
881.493	22580
881.619	22382
881.746	22538
881.872	22436
881.999	22478
882.125	22344
882.252	22531
882.378	22432
882.505	22573
882.631	22287
882.757	22265
882.883	22166
883.01	22124
883.136	22101
883.262	22093
883.388	21846
883.514	22109
883.64	22200
883.766	21911
883.892	21941
884.018	21850
884.143	22097
884.269	22265
884.395	21823
884.52	21816
884.646	21755
884.772	21812
884.897	21736
885.023	21838
885.148	21808
885.274	21983
885.399	21968
885.524	21648
885.65	21949
885.775	21637
885.9	21667
886.025	21888
886.15	21865
886.275	21800
886.4	21759
886.525	21713
886.65	21682
886.775	21576
886.9	21812
887.025	21888
887.149	21679
887.274	21568
887.399	21458
887.523	21526
887.648	21428
887.773	21439
887.897	21633
888.021	21492
888.146	21519
888.27	21561
888.395	21488
888.519	21603
888.643	21561
888.767	21629
888.891	21355
889.015	21393
889.139	21374
889.263	21325
889.387	21310
889.511	21496
889.635	21389
889.759	21203
889.883	21291
890.006	21142
890.13	21382
890.254	21184
890.377	21173
890.501	20979
890.624	21024
890.748	21123
890.871	21028
890.995	20811
891.118	20853
891.241	20944
891.364	20891
891.488	20967
891.611	20967
891.734	20883
891.857	20838
891.98	20845
892.103	20902
892.226	20815
892.349	20739
892.471	20655
892.594	20720
892.717	20701
892.839	20739
892.962	20754
893.085	20800
893.207	20842
893.33	20625
893.452	20739
893.575	20918
893.697	20705
893.819	20880
893.941	21013
894.064	20811
894.186	20686
894.308	20731
894.43	20849
894.552	20918
894.674	20788
894.796	20587
894.918	20667
895.04	20788
895.161	20838
895.283	20724
895.405	20663
895.526	20735
895.648	20750
895.769	20701
895.891	20807
896.012	20857
896.134	20785
896.255	20701
896.376	20648
896.498	20819
896.619	20880
896.74	20739
896.861	20914
896.982	21020
897.103	21203
897.224	21032
897.345	20967
897.466	20979
897.587	20967
897.708	21024
897.828	21005
897.949	20819
898.07	20826
898.19	20842
898.311	20975
898.431	20872
898.552	21036
898.672	21154
898.792	21009
898.913	20872
899.033	20819
899.153	20629
899.273	20651
899.393	20632
899.513	20659
899.633	20720
899.753	20613
899.873	20602
899.993	20693
900.113	20609
900.232	20667
900.352	20484
900.472	20431
900.591	20408
900.711	20377
900.83	20465
900.95	20465
901.069	20659
901.189	20328
901.308	20157
901.427	19947
901.546	20092
901.665	20024
901.784	19955
901.904	19807
902.023	19852
902.141	19578
902.26	19567
902.379	19556
902.498	19426
902.617	19468
902.735	19521
902.854	19358
902.973	19392
903.091	19202
903.21	19057
903.328	19053
903.446	19202
903.565	18844
903.683	18875
903.801	18901
903.919	18882
904.038	18833
904.156	18715
904.274	18726
904.392	18700
904.51	18707
904.627	18631
904.745	18658
904.863	18620
904.981	18448
905.098	18334
905.216	18327
905.334	18395
905.451	18403
905.569	18376
905.686	18388
905.803	18346
905.921	18205
906.038	18285
906.155	18243
906.272	18026
906.389	18098
906.506	17961
906.623	17904
906.74	17859
906.857	17745
906.974	17798
907.091	17863
907.208	17954
907.324	17904
907.441	17729
907.557	17661
907.674	17539
907.79	17585
907.907	17539
908.023	17490
908.139	17570
908.256	17490
908.372	17379
908.488	17356
908.604	17254
908.72	17204
908.836	17299
908.952	17136
909.068	17368
909.184	17299
909.3	17258
909.415	17223
909.531	17178
909.647	17041
909.762	16953
909.878	16930
909.993	17018
910.108	16900
910.224	16790
910.339	16858
910.454	16706
910.57	16793
910.685	16653
910.8	16987
910.915	16892
911.03	16729
911.145	16546
911.259	16508
911.374	16421
911.489	16432
911.604	16337
911.718	16325
911.833	16265
911.947	16154
912.062	16090
912.176	16211
912.291	16272
912.405	16154
912.519	16455
912.633	16394
912.748	16280
912.862	16219
912.976	16044
913.09	15941
913.204	15994
913.318	16109
913.431	16097
913.545	16032
913.659	16147
913.772	16051
913.886	15869
914	15876
914.113	15903
914.226	16025
914.34	15808
914.453	15663
914.566	15823
914.68	15800
914.793	15637
914.906	15485
915.019	15469
915.132	15458
915.245	15397
915.358	15466
915.47	15553
915.583	15428
915.696	15386
915.809	15549
915.921	15538
916.034	15454
916.146	15329
916.259	15363
916.371	15363
916.483	15348
916.595	15351
916.708	15218
916.82	15214
916.932	15233
917.044	15154
917.156	15188
917.268	15013
917.38	15070
917.491	15051
917.603	15024
917.715	15104
917.826	15108
917.938	15043
918.049	14880
918.161	15001
918.272	15070
918.384	15150
918.495	14902
918.606	14853
918.717	14743
918.828	14906
918.939	14796
919.05	14667
919.161	14845
919.272	14541
919.383	14697
919.494	14834
919.604	14990
919.715	14838
919.826	14644
919.936	14743
920.047	14830
920.157	14746
920.267	14895
920.378	14796
920.488	14693
920.598	14902
920.708	15062
920.818	14963
920.928	15005
921.038	15009
921.148	15013
921.258	14674
921.368	14632
921.477	14503
921.587	14537
921.697	14377
921.806	14484
921.916	14298
922.025	14225
922.134	14077
922.244	14123
922.353	14218
922.462	13997
922.571	13970
922.68	13784
922.789	13784
922.898	13727
923.007	13719
923.116	13685
923.224	13731
923.333	13693
923.442	13597
923.55	13556
923.659	13540
923.767	13708
923.876	13609
923.984	13586
924.092	13571
924.201	13518
924.309	13544
924.417	13559
924.525	13441
924.633	13453
924.741	14252
924.849	13316
924.956	13464
925.064	13217
925.172	13126
925.279	13217
925.387	13278
925.494	13179
925.602	13331
925.709	13255
925.816	13187
925.924	13206
926.031	12996
926.138	13046
926.245	13126
926.352	13008
926.459	13247
926.566	13175
926.673	13050
926.779	12897
926.886	12875
926.993	12783
927.099	12833
927.206	12665
927.312	12623
927.419	12764
927.525	12738
927.631	12791
927.737	12677
927.843	12589
927.95	12513
928.056	12601
928.162	12521
928.267	12593
928.373	13217
928.479	12490
928.585	12403
928.69	12513
928.796	12410
928.901	12357
929.007	12228
929.112	12502
929.218	12296
929.323	12323
929.428	12319
929.533	12399
929.638	12247
929.743	12315
929.848	12232
929.953	12308
930.058	12095
930.163	12019
930.267	11950
930.372	12053
930.477	11889
930.581	12163
930.685	11893
930.79	11866
930.894	11836
930.998	11752
931.103	11961
931.207	11562
931.311	11539
931.415	11360
931.519	11181
931.623	11064
