Data from test_V78500241_503.txt Node
Date: Fri Mar 25 15:45:17 CST 2022
User: usil
Spectrometer: V785-0024
Trigger mode: 0
Integration Time (sec): 4.000000E-1
Scans to average: 1
Nonlinearity correction enabled: false
Boxcar width: 0
Storing dark spectrum: false
XAxis mode: Wavelengths
Number of Pixels in Spectrum: 1024
>>>>>Begin Spectral Data<<<<<
801.071	26948
801.214	26994
801.356	26857
801.499	26629
801.641	26594
801.783	26476
801.926	26598
802.068	26655
802.211	26533
802.353	26355
802.496	26256
802.638	26172
802.78	26244
802.923	26084
803.065	26043
803.208	26275
803.35	26172
803.492	26130
803.635	26419
803.777	26191
803.919	26324
804.061	26541
804.204	26415
804.346	26157
804.488	26126
804.63	26206
804.773	26069
804.915	26298
805.057	26332
805.199	26298
805.341	26263
805.483	26374
805.626	26381
805.768	26161
805.91	26488
806.052	26298
806.194	26389
806.336	26617
806.478	26495
806.62	26286
806.762	26469
806.904	26518
807.046	26921
807.188	26864
807.33	26823
807.472	26838
807.614	26716
807.756	26769
807.898	26522
808.04	26720
808.182	26651
808.324	26590
808.465	26629
808.607	26815
808.749	26937
808.891	27047
809.033	27214
809.174	27100
809.316	27047
809.458	27100
809.6	27024
809.741	27138
809.883	27135
810.025	27237
810.166	27279
810.308	27268
810.45	27188
810.591	27176
810.733	27001
810.875	26925
811.016	26815
811.158	26853
811.299	27074
811.441	27017
811.582	27009
811.724	27032
811.865	26937
812.007	26758
812.148	26998
812.29	26963
812.431	27252
812.573	27222
812.714	27416
812.855	27355
812.997	27488
813.138	27644
813.279	27660
813.421	27564
813.562	27507
813.703	27272
813.845	27150
813.986	27104
814.127	26750
814.268	26629
814.41	26617
814.551	26613
814.692	26765
814.833	26499
814.974	26564
815.115	26568
815.256	26419
815.397	26362
815.539	26450
815.68	26495
815.821	26423
815.962	26457
816.103	26415
816.244	26229
816.385	26180
816.526	26183
816.666	25906
816.807	25772
816.948	25978
817.089	26043
817.23	25803
817.371	25746
817.512	25890
817.653	25845
817.793	25738
817.934	25936
818.075	25765
818.216	25811
818.356	25887
818.497	25632
818.638	25521
818.778	25647
818.919	25613
819.06	25666
819.2	25677
819.341	25712
819.481	25879
819.622	25909
819.762	26138
819.903	26134
820.043	26024
820.184	25894
820.324	25947
820.465	26191
820.605	25917
820.746	26005
820.886	25917
821.026	25925
821.167	25902
821.307	25997
821.447	25909
821.588	25651
821.728	25674
821.868	25415
822.008	25354
822.149	25236
822.289	25274
822.429	24981
822.569	25015
822.709	24977
822.849	24878
822.99	24810
823.13	24730
823.27	24703
823.41	24627
823.55	24525
823.69	24738
823.83	24563
823.97	24509
824.11	24448
824.25	24357
824.389	24357
824.529	24384
824.669	24384
824.809	24517
824.949	24620
825.089	24631
825.228	24505
825.368	24266
825.508	24281
825.648	24361
825.787	24407
825.927	24247
826.067	24228
826.206	24353
826.346	24376
826.485	24365
826.625	24205
826.765	24323
826.904	24251
827.044	24102
827.183	24018
827.323	23980
827.462	23954
827.601	23980
827.741	23954
827.88	23920
828.02	23965
828.159	24045
828.298	24011
828.437	24030
828.577	24011
828.716	24022
828.855	23935
828.994	23733
829.134	23729
829.273	23687
829.412	23657
829.551	23665
829.69	23672
829.829	23805
829.968	23843
830.107	23756
830.246	23775
830.385	23543
830.524	23581
830.663	23585
830.802	23345
830.941	23315
831.08	23261
831.219	23395
831.357	23364
831.496	23589
831.635	23299
831.774	23143
831.913	23239
832.051	23170
832.19	23041
832.329	23102
832.467	23052
832.606	22938
832.744	22873
832.883	22968
833.022	22885
833.16	22908
833.299	22995
833.437	23010
833.576	23052
833.714	23033
833.852	23254
833.991	23094
834.129	23083
834.267	23071
834.406	23178
834.544	23147
834.682	23090
834.821	22957
834.959	23231
835.097	23018
835.235	23075
835.373	23029
835.511	23086
835.65	22934
835.788	22847
835.926	22812
836.064	22721
836.202	22736
836.34	22896
836.478	22984
836.615	22862
836.753	22889
836.891	22938
837.029	22915
837.167	22812
837.305	22820
837.443	22763
837.58	22744
837.718	22839
837.856	22847
837.993	22744
838.131	22588
838.269	22592
838.406	22759
838.544	22622
838.681	22440
838.819	22493
838.956	22257
839.094	22154
839.231	22246
839.369	22474
839.506	22653
839.643	22367
839.781	22177
839.918	22249
840.055	22265
840.193	22200
840.33	22185
840.467	22192
840.604	22306
840.742	22466
840.879	22032
841.016	22093
841.153	22150
841.29	22246
841.427	22105
841.564	22238
841.701	22105
841.838	22124
841.975	22090
842.112	22059
842.249	21857
842.385	21827
842.522	21983
842.659	22010
842.796	21831
842.933	21991
843.069	21899
843.206	21762
843.343	21819
843.479	21819
843.616	21934
843.752	21637
843.889	21724
844.025	21816
844.162	21629
844.298	21770
844.435	21614
844.571	21633
844.708	21705
844.844	21823
844.98	21823
845.117	21781
845.253	21538
845.389	21614
845.525	21641
845.661	21500
845.798	21389
845.934	21511
846.07	21374
846.206	21412
846.342	21591
846.478	21344
846.614	21294
846.75	21180
846.886	21157
847.022	21252
847.158	21199
847.294	21199
847.429	21123
847.565	21089
847.701	21275
847.837	20868
847.972	20933
848.108	21028
848.244	20963
848.379	20686
848.515	20792
848.65	20693
848.786	20693
848.921	20811
849.057	20895
849.192	20834
849.328	20727
849.463	20674
849.598	20720
849.734	20708
849.869	20408
850.004	20533
850.14	20602
850.275	20579
850.41	20358
850.545	20381
850.68	20423
850.815	20434
850.95	20484
851.085	20693
851.22	20507
851.355	20473
851.49	20476
851.625	20450
851.76	20454
851.895	20431
852.03	20358
852.165	20442
852.299	20469
852.434	20621
852.569	20518
852.703	20514
852.838	20609
852.973	20640
853.107	20644
853.242	20431
853.376	20290
853.511	20248
853.645	20282
853.78	20366
853.914	20438
854.048	20290
854.183	20244
854.317	20328
854.451	20507
854.585	20396
854.72	20313
854.854	20423
854.988	20286
855.122	20298
855.256	20210
855.39	20187
855.524	20492
855.658	20389
855.792	20355
855.926	20294
856.06	20347
856.194	20450
856.327	20286
856.461	20351
856.595	20229
856.729	20305
856.862	20442
856.996	20229
857.13	20404
857.263	20450
857.397	20488
857.53	20374
857.664	20347
857.797	20480
857.931	20347
858.064	20423
858.197	20442
858.331	20317
858.464	20298
858.597	20126
858.731	20431
858.864	20332
858.997	20332
859.13	20259
859.263	20415
859.396	20309
859.529	20324
859.662	20263
859.795	20157
859.928	20317
860.061	20442
860.194	20575
860.327	20347
860.46	20370
860.592	20526
860.725	20484
860.858	20507
860.99	20320
861.123	20358
861.256	20313
861.388	20313
861.521	21127
861.653	20221
861.786	20142
861.918	20259
862.05	20404
862.183	20244
862.315	20244
862.447	20286
862.58	20221
862.712	20027
862.844	19993
862.976	20096
863.108	20145
863.24	20465
863.372	19959
863.504	20054
863.636	20054
863.768	20008
863.9	19963
864.032	19978
864.164	20016
864.296	20062
864.428	20134
864.559	20142
864.691	20046
864.823	20084
864.954	20092
865.086	19978
865.217	19970
865.349	19997
865.48	19978
865.612	20031
865.743	20161
865.875	19959
866.006	19951
866.137	19936
866.269	20081
866.4	19944
866.531	19917
866.662	19932
866.793	19879
866.924	20043
867.055	19890
867.186	19890
867.317	19913
867.448	19814
867.579	19822
867.71	19738
867.841	19875
867.972	19913
868.103	20039
868.233	19837
868.364	19936
868.495	19955
868.625	20100
868.756	20237
868.886	20081
869.017	20218
869.147	20286
869.278	20301
869.408	20229
869.539	20229
869.669	20294
869.799	20263
869.929	20233
870.06	20240
870.19	20446
870.32	20431
870.45	20461
870.58	20552
870.71	20632
870.84	20625
870.97	20461
871.1	20568
871.23	20796
871.36	20701
871.489	20663
871.619	20773
871.749	20678
871.879	20598
872.008	20853
872.138	20739
872.267	20765
872.397	20655
872.526	20522
872.656	20602
872.785	20469
872.915	20769
873.044	20769
873.173	20712
873.303	20921
873.432	20807
873.561	20853
873.69	20762
873.819	20727
873.948	20853
874.077	20807
874.206	20720
874.335	20754
874.464	20819
874.593	21028
874.722	20925
874.851	21039
874.979	21047
875.108	21100
875.237	21001
875.365	20800
875.494	21058
875.623	21017
875.751	20849
875.88	21085
876.008	21169
876.136	21173
876.265	21462
876.393	21515
876.521	21397
876.65	21469
876.778	21367
876.906	21374
877.034	21416
877.162	21348
877.29	21344
877.418	21500
877.546	21439
877.674	21397
877.802	21340
877.93	21294
878.058	21367
878.185	21367
878.313	21237
878.441	21389
878.568	21279
878.696	21218
878.824	21279
878.951	21336
879.079	21439
879.206	21576
879.333	21568
879.461	21367
879.588	21481
879.715	21587
879.842	21614
879.97	21431
880.097	21100
880.224	21188
880.351	21294
880.478	21142
880.605	21199
880.732	21237
880.859	21443
880.986	21226
881.112	21161
881.239	21032
881.366	20937
881.493	20826
881.619	20807
881.746	20861
881.872	20788
881.999	20830
882.125	20651
882.252	20667
882.378	20746
882.505	20845
882.631	20773
882.757	20476
882.883	20625
883.01	20514
883.136	20381
883.262	20377
883.388	20199
883.514	20492
883.64	20495
883.766	20438
883.892	20256
884.018	20396
884.143	20442
884.269	20537
884.395	20130
884.52	20050
884.646	20149
884.772	20031
884.897	20062
885.023	20008
885.148	20214
885.274	20294
885.399	20362
885.524	20020
885.65	20172
885.775	20218
885.9	20107
886.025	20153
886.15	20172
886.275	20168
886.4	20096
886.525	20119
886.65	20054
886.775	20062
886.9	20343
887.025	20362
887.149	20077
887.274	19925
887.399	19890
887.523	20043
887.648	19902
887.773	19761
887.897	19955
888.021	19986
888.146	19875
888.27	19986
888.395	20149
888.519	19993
888.643	19963
888.767	19997
888.891	19791
889.015	19757
889.139	19753
889.263	19639
889.387	19849
889.511	19883
889.635	19841
889.759	19689
889.883	19776
890.006	19738
890.13	19822
890.254	19620
890.377	19563
890.501	19453
890.624	19392
890.748	19502
890.871	19388
890.995	19263
891.118	19194
891.241	19263
891.364	19251
891.488	19460
891.611	19384
891.734	19240
891.857	19331
891.98	19263
892.103	19236
892.226	19297
892.349	19327
892.471	19190
892.594	19289
892.717	19129
892.839	19213
892.962	19209
893.085	19346
893.207	19194
893.33	19095
893.452	19091
893.575	19316
893.697	19240
893.819	19377
893.941	19320
894.064	19381
894.186	19202
894.308	19027
894.43	19331
894.552	19381
894.674	19259
894.796	19236
894.918	19255
895.04	19148
895.161	19301
895.283	19419
895.405	19103
895.526	19247
895.648	19247
895.769	19274
895.891	19304
896.012	19320
896.134	19365
896.255	19358
896.376	19217
896.498	19316
896.619	19236
896.74	19217
896.861	19358
896.982	19567
897.103	19765
897.224	19556
897.345	19567
897.466	19320
897.587	19597
897.708	19544
897.828	19575
897.949	19457
898.07	19312
898.19	19403
898.311	19693
898.431	19567
898.552	19438
898.672	19563
898.792	19628
898.913	19483
899.033	19434
899.153	19324
899.273	19137
899.393	19335
899.513	19316
899.633	19293
899.753	19324
899.873	19244
899.993	19304
900.113	19225
900.232	19282
900.352	19122
900.472	19088
900.591	19156
900.711	19057
900.83	19122
900.95	19129
901.069	19057
901.189	19031
901.308	18798
901.427	18669
901.546	18722
901.665	18696
901.784	18707
901.904	18536
902.023	18483
902.141	18296
902.26	18262
902.379	18319
902.498	18095
902.617	18159
902.735	18258
902.854	18266
902.973	18064
903.091	17817
903.21	17855
903.328	17885
903.446	17703
903.565	17695
903.683	17619
903.801	17551
903.919	17680
904.038	17668
904.156	17467
904.274	17528
904.392	17459
904.51	17376
904.627	17379
904.745	17512
904.863	17459
904.981	17212
905.098	17136
905.216	17079
905.334	17121
905.451	17200
905.569	17025
905.686	17102
905.803	17067
905.921	16847
906.038	17048
906.155	16953
906.272	16771
906.389	16786
906.506	16634
906.623	16656
906.74	16710
906.857	16618
906.974	16542
907.091	16702
907.208	16664
907.324	16599
907.441	16516
907.557	16455
907.674	16341
907.79	16284
907.907	16367
908.023	16462
908.139	16344
908.256	16337
908.372	16314
908.488	16230
908.604	16063
908.72	16147
908.836	16090
908.952	16097
909.068	16154
909.184	16105
909.3	16147
909.415	16162
909.531	16002
909.647	15884
909.762	15766
909.878	15808
909.993	15892
910.108	15770
910.224	15816
910.339	15694
910.454	15690
910.57	15618
910.685	15473
910.8	15762
910.915	15800
911.03	15648
911.145	15447
911.259	15416
911.374	15466
911.489	15389
911.604	15264
911.718	15176
911.833	15256
911.947	15169
912.062	15058
912.176	15233
912.291	15146
912.405	15260
912.519	15317
912.633	15367
912.748	15233
912.862	15108
912.976	14986
913.09	14941
913.204	14960
913.318	15055
913.431	15039
913.545	15051
913.659	15104
913.772	14925
913.886	14826
914	14765
914.113	14944
914.226	14910
914.34	14769
914.453	14705
914.566	14773
914.68	14705
914.793	14697
914.906	14568
915.019	14457
915.132	14351
915.245	14408
915.358	14400
915.47	14408
915.583	14480
915.696	14381
915.809	14655
915.921	14579
916.034	14499
916.146	14294
916.259	14336
916.371	14412
916.483	14423
916.595	14313
916.708	14358
916.82	14328
916.932	14278
917.044	14157
917.156	14240
917.268	14126
917.38	14149
917.491	14077
917.603	14168
917.715	14138
917.826	14229
917.938	14084
918.049	13989
918.161	14043
918.272	14130
918.384	14191
918.495	14088
918.606	13890
918.717	13868
918.828	13772
918.939	13959
919.05	13788
919.161	13837
919.272	13662
919.383	13677
919.494	13932
919.604	14039
919.715	13879
919.826	13814
919.936	13799
920.047	13986
920.157	13875
920.267	14077
920.378	13963
920.488	13928
920.598	14096
920.708	14187
920.818	14005
920.928	13974
921.038	14130
921.148	14081
921.258	13864
921.368	13727
921.477	13628
921.587	13533
921.697	13544
921.806	13544
921.916	13369
922.025	13369
922.134	13301
922.244	13202
922.353	13266
922.462	13183
922.571	13160
922.68	12970
922.789	12837
922.898	12848
923.007	12954
923.116	12951
923.224	12871
923.333	12977
923.442	12764
923.55	12757
923.659	12749
923.767	12802
923.876	12692
923.984	12715
924.092	12582
924.201	12738
924.309	12745
924.417	12684
924.525	12608
924.633	12604
924.741	13396
924.849	12426
924.956	12544
925.064	12327
925.172	12319
925.279	12384
925.387	12418
925.494	12471
925.602	12536
925.709	12460
925.816	12213
925.924	12399
926.031	12418
926.138	12327
926.245	12338
926.352	12224
926.459	12418
926.566	12403
926.673	12277
926.779	12098
926.886	12121
926.993	12095
927.099	12041
927.206	11942
927.312	11942
927.419	11980
927.525	11923
927.631	12011
927.737	11840
927.843	11733
927.95	11680
928.056	11767
928.162	11863
928.267	11874
928.373	12437
928.479	11851
928.585	11623
928.69	11790
928.796	11726
928.901	11672
929.007	11566
929.112	11665
929.218	11634
929.323	11596
929.428	11471
929.533	11585
929.638	11486
929.743	11554
929.848	11600
929.953	11482
930.058	11326
930.163	11223
930.267	11204
930.372	11383
930.477	11147
930.581	11387
930.685	11277
930.79	11155
930.894	11212
930.998	11102
931.103	11299
931.207	10862
931.311	10854
931.415	10778
931.519	10508
931.623	10573
