Data from test_V78500241_2386.txt Node
Date: Fri Mar 25 15:58:19 CST 2022
User: usil
Spectrometer: V785-0024
Trigger mode: 0
Integration Time (sec): 4.000000E-1
Scans to average: 1
Nonlinearity correction enabled: false
Boxcar width: 0
Storing dark spectrum: false
XAxis mode: Wavelengths
Number of Pixels in Spectrum: 1024
>>>>>Begin Spectral Data<<<<<
801.071	28599
801.214	28679
801.356	28653
801.499	28474
801.641	28257
801.783	28337
801.926	28493
802.068	28363
802.211	28382
802.353	28234
802.496	28135
802.638	28051
802.78	28059
802.923	27956
803.065	27930
803.208	28013
803.35	28101
803.492	28291
803.635	28284
803.777	28166
803.919	28204
804.061	28459
804.204	28325
804.346	28215
804.488	28268
804.63	28287
804.773	28257
804.915	28413
805.057	28493
805.199	28325
805.341	28390
805.483	28436
805.626	28443
805.768	28284
805.91	28493
806.052	28523
806.194	28325
806.336	28588
806.478	28447
806.62	28409
806.762	28577
806.904	28645
807.046	28961
807.188	28793
807.33	28892
807.472	28976
807.614	28793
807.756	28953
807.898	28767
808.04	28801
808.182	28725
808.324	28839
808.465	28672
808.607	29033
808.749	29212
808.891	29174
809.033	29239
809.174	29181
809.316	29102
809.458	29132
809.6	28942
809.741	29296
809.883	29216
810.025	29554
810.166	29337
810.308	29429
810.45	29254
810.591	29337
810.733	29044
810.875	29254
811.016	29140
811.158	29071
811.299	29254
811.441	29326
811.582	29265
811.724	29029
811.865	29060
812.007	29216
812.148	29273
812.29	29223
812.431	29280
812.573	29448
812.714	29589
812.855	29737
812.997	29901
813.138	29935
813.279	29927
813.421	29687
813.562	29684
813.703	29573
813.845	29474
813.986	29178
814.127	29003
814.268	29003
814.41	28896
814.551	28713
814.692	28927
814.833	28679
814.974	28790
815.115	28820
815.256	28713
815.397	28763
815.539	28835
815.68	28706
815.821	28645
815.962	28713
816.103	28729
816.244	28390
816.385	28329
816.526	28474
816.666	28284
816.807	28082
816.948	28265
817.089	28382
817.23	28253
817.371	28097
817.512	28268
817.653	28162
817.793	27994
817.934	28188
818.075	28196
818.216	28261
818.356	28082
818.497	28021
818.638	27876
818.778	27911
818.919	27816
819.06	28055
819.2	28070
819.341	28166
819.481	28257
819.622	28352
819.762	28462
819.903	28333
820.043	28455
820.184	28238
820.324	28226
820.465	28352
820.605	28485
820.746	28306
820.886	28116
821.026	28333
821.167	28284
821.307	28322
821.447	28196
821.588	28059
821.728	27918
821.868	27736
822.008	27778
822.149	27652
822.289	27739
822.429	27351
822.569	27359
822.709	27401
822.849	27169
822.99	27165
823.13	27184
823.27	27017
823.41	27051
823.55	26811
823.69	26982
823.83	27020
823.97	27017
824.11	26800
824.25	26765
824.389	26689
824.529	26781
824.669	26804
824.809	26960
824.949	26849
825.089	26739
825.228	26834
825.368	26625
825.508	26674
825.648	26663
825.787	26792
825.927	26613
826.067	26648
826.206	26792
826.346	26648
826.485	26773
826.625	26689
826.765	26830
826.904	26750
827.044	26438
827.183	26370
827.323	26415
827.462	26507
827.601	26412
827.741	26309
827.88	26453
828.02	26355
828.159	26419
828.298	26309
828.437	26453
828.577	26336
828.716	26602
828.855	26229
828.994	26024
829.134	26210
829.273	26180
829.412	26122
829.551	26081
829.69	26138
829.829	26149
829.968	26233
830.107	26126
830.246	26103
830.385	26043
830.524	25807
830.663	25818
830.802	25715
830.941	25537
831.08	25662
831.219	25814
831.357	25738
831.496	25978
831.635	25696
831.774	25742
831.913	25586
832.051	25506
832.19	25468
832.329	25495
832.467	25373
832.606	25228
832.744	25381
832.883	25274
833.022	25263
833.16	25278
833.299	25274
833.437	25377
833.576	25400
833.714	25324
833.852	25460
833.991	25502
834.129	25518
834.267	25556
834.406	25392
834.544	25445
834.682	25392
834.821	25388
834.959	25616
835.097	25228
835.235	25559
835.373	25339
835.511	25472
835.65	25209
835.788	25350
835.926	25133
836.064	24947
836.202	25095
836.34	25232
836.478	25247
836.615	25152
836.753	25304
836.891	25187
837.029	25312
837.167	25126
837.305	25103
837.443	25057
837.58	25034
837.718	25053
837.856	25126
837.993	24962
838.131	25175
838.269	25031
838.406	25023
838.544	25015
838.681	24783
838.819	24734
838.956	24627
839.094	24498
839.231	24547
839.369	24570
839.506	25038
839.643	24875
839.781	24528
839.918	24498
840.055	24654
840.193	24426
840.33	24464
840.467	24338
840.604	24498
840.742	24635
840.879	24205
841.016	24437
841.153	24266
841.29	24361
841.427	24418
841.564	24494
841.701	24369
841.838	24426
841.975	24289
842.112	24342
842.249	24254
842.385	24213
842.522	24475
842.659	24300
842.796	24178
842.933	24205
843.069	24239
843.206	24171
843.343	24281
843.479	24144
843.616	24155
843.752	23969
843.889	24007
844.025	24129
844.162	24110
844.298	24057
844.435	23935
844.571	23942
844.708	23912
844.844	24167
844.98	24155
845.117	23999
845.253	23954
845.389	23684
845.525	23760
845.661	23802
845.798	23604
845.934	23737
846.07	23714
846.206	23684
846.342	23729
846.478	23657
846.614	23417
846.75	23364
846.886	23516
847.022	23589
847.158	23402
847.294	23478
847.429	23379
847.565	23383
847.701	23676
847.837	23109
847.972	23140
848.108	23265
848.244	23280
848.379	23029
848.515	23014
848.65	23033
848.786	23052
848.921	23079
849.057	23200
849.192	23140
849.328	22942
849.463	22927
849.598	23067
849.734	22843
849.869	22877
850.004	22767
850.14	22767
850.275	22767
850.41	22675
850.545	22527
850.68	22752
850.815	22854
850.95	22782
851.085	22987
851.22	22843
851.355	22729
851.49	22706
851.625	22683
851.76	22660
851.895	22763
852.03	22668
852.165	22752
852.299	22892
852.434	22869
852.569	22767
852.703	22736
852.838	22835
852.973	22843
853.107	22820
853.242	22755
853.376	22596
853.511	22531
853.645	22641
853.78	22645
853.914	22561
854.048	22557
854.183	22535
854.317	22634
854.451	22782
854.585	22691
854.72	22550
854.854	22588
854.988	22573
855.122	22683
855.256	22322
855.39	22645
855.524	22660
855.658	22630
855.792	22615
855.926	22649
856.06	22691
856.194	22607
856.327	22561
856.461	22596
856.595	22428
856.729	22653
856.862	22717
856.996	22538
857.13	22713
857.263	22702
857.397	22687
857.53	22550
857.664	22573
857.797	22474
857.931	22694
858.064	22630
858.197	22664
858.331	22599
858.464	22588
858.597	22455
858.731	22592
858.864	22481
858.997	22474
859.13	22698
859.263	22721
859.396	22603
859.529	22504
859.662	22500
859.795	22436
859.928	22451
860.061	22660
860.194	22904
860.327	22557
860.46	22694
860.592	22717
860.725	22771
860.858	22588
860.99	22527
861.123	22660
861.256	22596
861.388	22615
861.521	23265
861.653	22542
861.786	22253
861.918	22504
862.05	22402
862.183	22432
862.315	22443
862.447	22656
862.58	22447
862.712	22287
862.844	22246
862.976	22367
863.108	22394
863.24	22615
863.372	22070
863.504	22265
863.636	22310
863.768	22284
863.9	22128
864.032	22310
864.164	22246
864.296	22249
864.428	22440
864.559	22379
864.691	22382
864.823	22329
864.954	22185
865.086	22299
865.217	22177
865.349	21991
865.48	22204
865.612	22238
865.743	22177
865.875	22131
866.006	22051
866.137	22226
866.269	22070
866.4	22059
866.531	22116
866.662	22036
866.793	22166
866.924	22070
867.055	22128
867.186	22093
867.317	21983
867.448	21983
867.579	22044
867.71	22010
867.841	22055
867.972	22063
868.103	22059
868.233	22074
868.364	22143
868.495	22124
868.625	22325
868.756	22398
868.886	22295
869.017	22390
869.147	22440
869.278	22360
869.408	22306
869.539	22306
869.669	22402
869.799	22394
869.929	22379
870.06	22451
870.19	22622
870.32	22713
870.45	22546
870.58	22649
870.71	22797
870.84	22725
870.97	22611
871.1	22767
871.23	23022
871.36	22915
871.489	22831
871.619	22900
871.749	22790
871.879	22995
872.008	22900
872.138	22881
872.267	22942
872.397	22752
872.526	22691
872.656	22778
872.785	22847
872.915	22976
873.044	23060
873.173	23014
873.303	23033
873.432	23075
873.561	23006
873.69	22915
873.819	22961
873.948	23018
874.077	22984
874.206	22923
874.335	22961
874.464	23170
874.593	23200
874.722	23075
874.851	23064
874.979	23280
875.108	23223
875.237	23128
875.365	22968
875.494	23109
875.623	23239
875.751	23079
875.88	23242
876.008	23383
876.136	23246
876.265	23592
876.393	23691
876.521	23665
876.65	23577
876.778	23646
876.906	23376
877.034	23448
877.162	23535
877.29	23452
877.418	23520
877.546	23501
877.674	23471
877.802	23497
877.93	23406
878.058	23364
878.185	23223
878.313	23421
878.441	23474
878.568	23395
878.696	23505
878.824	23429
878.951	23577
879.079	23771
879.206	23794
879.333	23611
879.461	23516
879.588	23581
879.715	23604
879.842	23802
879.97	23680
880.097	23296
880.224	23242
880.351	23349
880.478	23303
880.605	23303
880.732	23288
880.859	23604
880.986	23296
881.112	23277
881.239	23204
881.366	23060
881.493	22957
881.619	22866
881.746	22763
881.872	22908
881.999	22790
882.125	22752
882.252	22930
882.378	22896
882.505	22930
882.631	22847
882.757	22592
882.883	22660
883.01	22527
883.136	22466
883.262	22413
883.388	22580
883.514	22584
883.64	22523
883.766	22561
883.892	22280
884.018	22421
884.143	22417
884.269	22478
884.395	22219
884.52	22097
884.646	22154
884.772	22109
884.897	22040
885.023	22166
885.148	22166
885.274	22379
885.399	22093
885.524	22234
885.65	22147
885.775	22166
885.9	22067
886.025	22344
886.15	22177
886.275	22192
886.4	21972
886.525	22143
886.65	21991
886.775	22078
886.9	22177
887.025	22409
887.149	22109
887.274	21934
887.399	21930
887.523	21865
887.648	22002
887.773	21823
887.897	22010
888.021	21941
888.146	21930
888.27	22059
888.395	21972
888.519	22010
888.643	21842
888.767	21816
888.891	21838
889.015	21781
889.139	21808
889.263	21682
889.387	21903
889.511	21987
889.635	21766
889.759	21610
889.883	21739
890.006	21671
890.13	21679
890.254	21671
890.377	21720
890.501	21443
890.624	21431
890.748	21466
890.871	21287
890.995	21199
891.118	21188
891.241	21340
891.364	21245
891.488	21431
891.611	21241
891.734	21218
891.857	21329
891.98	21214
892.103	21336
892.226	21249
892.349	21188
892.471	21169
892.594	21249
892.717	21169
892.839	21260
892.962	21188
893.085	21233
893.207	21135
893.33	20979
893.452	21108
893.575	21214
893.697	21112
893.819	21310
893.941	21397
894.064	21287
894.186	21146
894.308	21074
894.43	21256
894.552	21317
894.674	21272
894.796	21036
894.918	21108
895.04	21039
895.161	21089
895.283	21127
895.405	21020
895.526	21058
895.648	20990
895.769	21112
895.891	21104
896.012	21237
896.134	21222
896.255	21108
896.376	21017
896.498	21119
896.619	21252
896.74	20960
896.861	21131
896.982	21462
897.103	21473
897.224	21443
897.345	21348
897.466	21291
897.587	21260
897.708	21458
897.828	21382
897.949	21192
898.07	21157
898.19	21260
898.311	21370
898.431	21344
898.552	21363
898.672	21443
898.792	21378
898.913	21325
899.033	21146
899.153	21104
899.273	21005
899.393	21039
899.513	21043
899.633	21249
899.753	21043
899.873	21005
899.993	21070
900.113	20960
900.232	21047
900.352	20982
900.472	20872
900.591	20792
900.711	20819
900.83	20811
900.95	20990
901.069	20952
901.189	20705
901.308	20480
901.427	20381
901.546	20404
901.665	20374
901.784	20412
901.904	20267
902.023	20126
902.141	19894
902.26	19944
902.379	19959
902.498	19913
902.617	19917
902.735	19875
902.854	19879
902.973	19906
903.091	19655
903.21	19594
903.328	19559
903.446	19472
903.565	19232
903.683	19327
903.801	19206
903.919	19331
904.038	19304
904.156	19187
904.274	19114
904.392	19046
904.51	19042
904.627	19114
904.745	19255
904.863	19137
904.981	19015
905.098	18677
905.216	18821
905.334	18734
905.451	18795
905.569	18757
905.686	18817
905.803	18631
905.921	18646
906.038	18544
906.155	18574
906.272	18517
906.389	18578
906.506	18300
906.623	18361
906.74	18334
906.857	18159
906.974	18228
907.091	18281
907.208	18456
907.324	18239
907.441	18167
907.557	18072
907.674	17996
907.79	18003
907.907	17870
908.023	18076
908.139	18007
908.256	17984
908.372	17847
908.488	17828
908.604	17775
908.72	17661
908.836	17687
908.952	17699
909.068	17665
909.184	17722
909.3	17691
909.415	17790
909.531	17790
909.647	17436
909.762	17391
909.878	17406
909.993	17459
910.108	17410
910.224	17345
910.339	17452
910.454	17318
910.57	17121
910.685	17174
910.8	17459
910.915	17303
911.03	17246
911.145	16957
911.259	17045
911.374	17071
911.489	16942
911.604	16946
911.718	16725
911.833	16763
911.947	16637
912.062	16561
912.176	16740
912.291	16828
912.405	16755
912.519	16869
912.633	16847
912.748	16824
912.862	16713
912.976	16497
913.09	16474
913.204	16512
913.318	16500
913.431	16634
913.545	16573
913.659	16577
913.772	16432
913.886	16356
914	16367
914.113	16386
914.226	16394
914.34	16462
914.453	16124
914.566	16329
914.68	16238
914.793	16112
914.906	16078
915.019	15915
915.132	15895
915.245	15960
915.358	15903
915.47	15895
915.583	15915
915.696	15956
915.809	15987
915.921	16074
916.034	15793
916.146	15751
916.259	15857
916.371	15907
916.483	15804
916.595	15587
916.708	15667
916.82	15743
916.932	15682
917.044	15755
917.156	15568
917.268	15561
917.38	15652
917.491	15545
917.603	15496
917.715	15564
917.826	15652
917.938	15447
918.049	15393
918.161	15515
918.272	15618
918.384	15637
918.495	15469
918.606	15382
918.717	15146
918.828	15230
918.939	15306
919.05	15188
919.161	15211
919.272	14998
919.383	15116
919.494	15256
919.604	15454
919.715	15230
919.826	15051
919.936	15275
920.047	15256
920.157	15218
920.267	15363
920.378	15287
920.488	15157
920.598	15378
920.708	15534
920.818	15378
920.928	15313
921.038	15477
921.148	15526
921.258	15138
921.368	15142
921.477	14990
921.587	14899
921.697	14754
921.806	14960
921.916	14746
922.025	14701
922.134	14617
922.244	14499
922.353	14530
922.462	14415
922.571	14313
922.68	14339
922.789	14142
922.898	14123
923.007	14206
923.116	14286
923.224	14157
923.333	14172
923.442	14092
923.55	13951
923.659	13993
923.767	14062
923.876	14046
923.984	14016
924.092	13940
924.201	14024
924.309	13944
924.417	13982
924.525	13856
924.633	13906
924.741	14819
924.849	13632
924.956	13757
925.064	13658
925.172	13529
925.279	13537
925.387	13639
925.494	13521
925.602	13647
925.709	13670
925.816	13441
925.924	13559
926.031	13613
926.138	13556
926.245	13651
926.352	13411
926.459	13533
926.566	13567
926.673	13460
926.779	13346
926.886	13381
926.993	13145
927.099	13091
927.206	13160
927.312	13053
927.419	13171
927.525	13156
927.631	13209
927.737	12993
927.843	12935
927.95	12894
928.056	12935
928.162	12935
928.267	12985
928.373	13597
928.479	12996
928.585	12791
928.69	12821
928.796	12871
928.901	12658
929.007	12650
929.112	12863
929.218	12715
929.323	12642
929.428	12703
929.533	12719
929.638	12502
929.743	12570
929.848	12635
929.953	12551
930.058	12513
930.163	12353
930.267	12338
930.372	12483
930.477	12372
930.581	12570
930.685	12395
930.79	12350
930.894	12247
930.998	12190
931.103	12289
931.207	11904
931.311	11908
931.415	11714
931.519	11543
931.623	11524
