Data from test_V78500241_3404.txt Node
Date: Fri Mar 25 16:05:22 CST 2022
User: usil
Spectrometer: V785-0024
Trigger mode: 0
Integration Time (sec): 4.000000E-1
Scans to average: 1
Nonlinearity correction enabled: false
Boxcar width: 0
Storing dark spectrum: false
XAxis mode: Wavelengths
Number of Pixels in Spectrum: 1024
>>>>>Begin Spectral Data<<<<<
801.071	28710
801.214	28649
801.356	28580
801.499	28493
801.641	28299
801.783	28401
801.926	28341
802.068	28284
802.211	28162
802.353	28158
802.496	28025
802.638	28048
802.78	27941
802.923	28010
803.065	27949
803.208	27972
803.35	28006
803.492	28078
803.635	28356
803.777	28021
803.919	28188
804.061	28542
804.204	28303
804.346	28234
804.488	28272
804.63	28268
804.773	28173
804.915	28466
805.057	28375
805.199	28253
805.341	28401
805.483	28306
805.626	28356
805.768	28310
805.91	28413
806.052	28500
806.194	28352
806.336	28481
806.478	28470
806.62	28462
806.762	28440
806.904	28626
807.046	29029
807.188	28850
807.33	28869
807.472	28980
807.614	28824
807.756	28957
807.898	28668
808.04	28736
808.182	28771
808.324	28774
808.465	28850
808.607	28930
808.749	29022
808.891	29197
809.033	29398
809.174	29140
809.316	29014
809.458	29246
809.6	29010
809.741	29239
809.883	29159
810.025	29391
810.166	29360
810.308	29452
810.45	29429
810.591	29398
810.733	29193
810.875	29159
811.016	29185
811.158	28972
811.299	29067
811.441	29360
811.582	29330
811.724	29143
811.865	29052
812.007	29189
812.148	29083
812.29	29094
812.431	29417
812.573	29585
812.714	29440
812.855	29710
812.997	29733
813.138	29859
813.279	29805
813.421	29714
813.562	29558
813.703	29497
813.845	29467
813.986	29204
814.127	28843
814.268	28786
814.41	28961
814.551	28831
814.692	28858
814.833	28721
814.974	28733
815.115	28847
815.256	28752
815.397	28774
815.539	28630
815.68	28504
815.821	28630
815.962	28603
816.103	28596
816.244	28584
816.385	28554
816.526	28333
816.666	28154
816.807	28188
816.948	28226
817.089	28196
817.23	28162
817.371	28120
817.512	28154
817.653	27998
817.793	28139
817.934	28246
818.075	28318
818.216	28082
818.356	28116
818.497	27930
818.638	27934
818.778	28032
818.919	28002
819.06	28051
819.2	28070
819.341	28242
819.481	28147
819.622	28394
819.762	28485
819.903	28527
820.043	28303
820.184	28375
820.324	28242
820.465	28158
820.605	28200
820.746	28325
820.886	28078
821.026	28287
821.167	28287
821.307	28215
821.447	28040
821.588	28154
821.728	27781
821.868	27797
822.008	27724
822.149	27572
822.289	27701
822.429	27405
822.569	27355
822.709	27344
822.849	27096
822.99	27180
823.13	27214
823.27	26998
823.41	27085
823.55	26845
823.69	27009
823.83	27043
823.97	26864
824.11	26834
824.25	26796
824.389	26800
824.529	26963
824.669	26853
824.809	26960
824.949	26819
825.089	26925
825.228	26971
825.368	26674
825.508	26636
825.648	26769
825.787	26674
825.927	26674
826.067	26651
826.206	26674
826.346	26754
826.485	26762
826.625	26743
826.765	26750
826.904	26765
827.044	26488
827.183	26579
827.323	26450
827.462	26530
827.601	26549
827.741	26290
827.88	26541
828.02	26393
828.159	26488
828.298	26503
828.437	26442
828.577	26256
828.716	26503
828.855	26317
828.994	26142
829.134	26107
829.273	26252
829.412	26081
829.551	26027
829.69	26126
829.829	26172
829.968	26282
830.107	26263
830.246	26191
830.385	26126
830.524	26054
830.663	26035
830.802	25746
830.941	25639
831.08	25715
831.219	25818
831.357	25715
831.496	25944
831.635	25700
831.774	25670
831.913	25613
832.051	25403
832.19	25563
832.329	25445
832.467	25316
832.606	25304
832.744	25297
832.883	25324
833.022	25293
833.16	25354
833.299	25502
833.437	25510
833.576	25411
833.714	25430
833.852	25472
833.991	25476
834.129	25388
834.267	25578
834.406	25434
834.544	25377
834.682	25438
834.821	25552
834.959	25506
835.097	25373
835.235	25483
835.373	25487
835.511	25396
835.65	25308
835.788	25324
835.926	25088
836.064	25145
836.202	25099
836.34	25316
836.478	25350
836.615	25240
836.753	25320
836.891	25438
837.029	25240
837.167	25316
837.305	25331
837.443	25175
837.58	25164
837.718	25160
837.856	25122
837.993	24962
838.131	25164
838.269	25008
838.406	25042
838.544	24859
838.681	24700
838.819	24772
838.956	24616
839.094	24566
839.231	24681
839.369	24802
839.506	24996
839.643	24810
839.781	24521
839.918	24528
840.055	24513
840.193	24479
840.33	24372
840.467	24433
840.604	24608
840.742	24635
840.879	24300
841.016	24502
841.153	24369
841.29	24635
841.427	24570
841.564	24437
841.701	24407
841.838	24422
841.975	24304
842.112	24376
842.249	24391
842.385	24327
842.522	24410
842.659	24262
842.796	24209
842.933	24277
843.069	24197
843.206	24186
843.343	24304
843.479	24239
843.616	24247
843.752	23980
843.889	24003
844.025	24254
844.162	23973
844.298	24136
844.435	23961
844.571	24106
844.708	24114
844.844	24148
844.98	24117
845.117	24114
845.253	23965
845.389	23885
845.525	23836
845.661	23840
845.798	23847
845.934	23832
846.07	23775
846.206	23790
846.342	23889
846.478	23676
846.614	23463
846.75	23322
846.886	23368
847.022	23516
847.158	23471
847.294	23573
847.429	23596
847.565	23463
847.701	23619
847.837	23102
847.972	23083
848.108	23383
848.244	23258
848.379	23124
848.515	23094
848.65	22946
848.786	23140
848.921	23003
849.057	23197
849.192	23109
849.328	23071
849.463	23098
849.598	23006
849.734	22934
849.869	22896
850.004	22755
850.14	22858
850.275	22797
850.41	22656
850.545	22839
850.68	22748
850.815	22900
850.95	22755
851.085	22995
851.22	22934
851.355	22771
851.49	22721
851.625	22713
851.76	22706
851.895	22733
852.03	22637
852.165	22828
852.299	22854
852.434	22987
852.569	22850
852.703	22778
852.838	22854
852.973	22927
853.107	22999
853.242	22675
853.376	22554
853.511	22500
853.645	22542
853.78	22717
853.914	22729
854.048	22634
854.183	22664
854.317	22687
854.451	22904
854.585	22634
854.72	22713
854.854	22694
854.988	22649
855.122	22672
855.256	22527
855.39	22683
855.524	22691
855.658	22683
855.792	22653
855.926	22698
856.06	22752
856.194	22771
856.327	22660
856.461	22417
856.595	22538
856.729	22679
856.862	22858
856.996	22637
857.13	22793
857.263	22725
857.397	22713
857.53	22687
857.664	22645
857.797	22713
857.931	22694
858.064	22771
858.197	22733
858.331	22573
858.464	22664
858.597	22516
858.731	22634
858.864	22596
858.997	22641
859.13	22660
859.263	22771
859.396	22820
859.529	22500
859.662	22649
859.795	22668
859.928	22687
860.061	22752
860.194	22767
860.327	22618
860.46	22694
860.592	22717
860.725	22831
860.858	22911
860.99	22592
861.123	22550
861.256	22554
861.388	22588
861.521	23341
861.653	22519
861.786	22447
861.918	22470
862.05	22497
862.183	22478
862.315	22713
862.447	22626
862.58	22390
862.712	22295
862.844	22265
862.976	22565
863.108	22405
863.24	22710
863.372	22257
863.504	22310
863.636	22341
863.768	22398
863.9	22329
864.032	22246
864.164	22310
864.296	22341
864.428	22546
864.559	22371
864.691	22398
864.823	22299
864.954	22211
865.086	22253
865.217	22196
865.349	22128
865.48	22295
865.612	22166
865.743	22242
865.875	22306
866.006	22173
866.137	22230
866.269	22295
866.4	22211
866.531	22078
866.662	22166
866.793	22128
866.924	22192
867.055	22169
867.186	22173
867.317	22093
867.448	22147
867.579	22188
867.71	21934
867.841	22116
867.972	22139
868.103	22143
868.233	22162
868.364	22147
868.495	22067
868.625	22386
868.756	22451
868.886	22341
869.017	22379
869.147	22436
869.278	22523
869.408	22363
869.539	22394
869.669	22462
869.799	22440
869.929	22554
870.06	22474
870.19	22694
870.32	22740
870.45	22767
870.58	22763
870.71	22911
870.84	22812
870.97	22729
871.1	22854
871.23	22965
871.36	22984
871.489	22965
871.619	23003
871.749	22927
871.879	23052
872.008	23284
872.138	23124
872.267	23105
872.397	22828
872.526	22900
872.656	22820
872.785	22786
872.915	23041
873.044	23136
873.173	23014
873.303	23136
873.432	23098
873.561	23132
873.69	23121
873.819	23044
873.948	23064
874.077	23003
874.206	22919
874.335	22915
874.464	23151
874.593	23235
874.722	23235
874.851	23254
874.979	23277
875.108	23273
875.237	23223
875.365	23117
875.494	23143
875.623	23227
875.751	23086
875.88	23136
876.008	23341
876.136	23493
876.265	23615
876.393	23661
876.521	23737
876.65	23729
876.778	23657
876.906	23512
877.034	23531
877.162	23649
877.29	23490
877.418	23493
877.546	23638
877.674	23646
877.802	23524
877.93	23410
878.058	23467
878.185	23440
878.313	23520
878.441	23444
878.568	23410
878.696	23653
878.824	23539
878.951	23596
879.079	23764
879.206	23866
879.333	23687
879.461	23581
879.588	23676
879.715	23596
879.842	23904
879.97	23570
880.097	23440
880.224	23273
880.351	23345
880.478	23391
880.605	23269
880.732	23509
880.859	23630
880.986	23372
881.112	23448
881.239	23299
881.366	23071
881.493	23033
881.619	23014
881.746	22961
881.872	22850
881.999	22809
882.125	22968
882.252	22946
882.378	22896
882.505	23003
882.631	22706
882.757	22561
882.883	22812
883.01	22615
883.136	22569
883.262	22485
883.388	22371
883.514	22531
883.64	22637
883.766	22519
883.892	22497
884.018	22333
884.143	22561
884.269	22577
884.395	22341
884.52	22200
884.646	22173
884.772	22196
884.897	22116
885.023	22348
885.148	22333
885.274	22432
885.399	22318
885.524	22192
885.65	22192
885.775	22284
885.9	22173
886.025	22352
886.15	22375
886.275	22093
886.4	22105
886.525	22105
886.65	22147
886.775	22166
886.9	22375
887.025	22379
887.149	22173
887.274	21930
887.399	22017
887.523	22063
887.648	21918
887.773	21895
887.897	21892
888.021	22082
888.146	21873
888.27	22181
888.395	21964
888.519	21991
888.643	21903
888.767	22002
888.891	21915
889.015	21789
889.139	21755
889.263	21854
889.387	21804
889.511	21964
889.635	21804
889.759	21717
889.883	21690
890.006	21770
890.13	21831
890.254	21671
890.377	21751
890.501	21648
890.624	21542
890.748	21496
890.871	21447
890.995	21435
891.118	21218
891.241	21283
891.364	21317
891.488	21633
891.611	21363
891.734	21306
891.857	21492
891.98	21169
892.103	21389
892.226	21283
892.349	21329
892.471	21184
892.594	21218
892.717	21291
892.839	21195
892.962	21146
893.085	21256
893.207	21104
893.33	21112
893.452	21207
893.575	21294
893.697	21237
893.819	21351
893.941	21367
894.064	21382
894.186	21195
894.308	21112
894.43	21279
894.552	21367
894.674	21173
894.796	21074
894.918	21100
895.04	21150
895.161	21146
895.283	21161
895.405	21188
895.526	21230
895.648	21222
895.769	21233
895.891	21279
896.012	21329
896.134	21230
896.255	21214
896.376	21119
896.498	21203
896.619	21173
896.74	21161
896.861	21226
896.982	21412
897.103	21568
897.224	21310
897.345	21439
897.466	21275
897.587	21348
897.708	21648
897.828	21450
897.949	21325
898.07	21203
898.19	21218
898.311	21469
898.431	21230
898.552	21332
898.672	21504
898.792	21523
898.913	21424
899.033	21203
899.153	21268
899.273	21108
899.393	21184
899.513	21207
899.633	21188
899.753	21161
899.873	21100
899.993	21142
900.113	21009
900.232	21081
900.352	21089
900.472	20952
900.591	20883
900.711	20906
900.83	20971
900.95	21119
901.069	20921
901.189	20773
901.308	20522
901.427	20480
901.546	20545
901.665	20545
901.784	20389
901.904	20393
902.023	20286
902.141	20016
902.26	19887
902.379	19967
902.498	20058
902.617	19875
902.735	20005
902.854	19940
902.973	19925
903.091	19757
903.21	19586
903.328	19647
903.446	19381
903.565	19483
903.683	19453
903.801	19365
903.919	19331
904.038	19415
904.156	19217
904.274	19449
904.392	19156
904.51	19114
904.627	19175
904.745	19236
904.863	19240
904.981	18981
905.098	18798
905.216	18867
905.334	19015
905.451	18852
905.569	18916
905.686	18901
905.803	18817
905.921	18707
906.038	18738
906.155	18627
906.272	18502
906.389	18589
906.506	18479
906.623	18308
906.74	18376
906.857	18266
906.974	18395
907.091	18502
907.208	18513
907.324	18391
907.441	18338
907.557	18178
907.674	18224
907.79	18049
907.907	18034
908.023	18235
908.139	18140
908.256	18125
908.372	17977
908.488	17893
908.604	17897
908.72	17798
908.836	17805
908.952	17882
909.068	17916
909.184	17893
909.3	17813
909.415	17783
909.531	17859
909.647	17573
909.762	17463
909.878	17406
909.993	17547
910.108	17406
910.224	17471
910.339	17452
910.454	17334
910.57	17269
910.685	17220
910.8	17459
910.915	17421
911.03	17181
911.145	17231
911.259	17102
911.374	17159
911.489	17014
911.604	16999
911.718	16790
911.833	16824
911.947	16740
912.062	16675
912.176	16793
912.291	16847
912.405	16843
912.519	16999
912.633	16999
912.748	16809
912.862	16778
912.976	16702
913.09	16485
913.204	16542
913.318	16645
913.431	16664
913.545	16694
913.659	16710
913.772	16611
913.886	16451
914	16398
914.113	16504
914.226	16481
914.34	16424
914.453	16310
914.566	16352
914.68	16242
914.793	16356
914.906	16067
915.019	16086
915.132	15895
915.245	15972
915.358	16010
915.47	16006
915.583	16059
915.696	15949
915.809	16200
915.921	16078
916.034	15972
916.146	15869
916.259	15838
916.371	16032
916.483	15956
916.595	15846
916.708	15812
916.82	15876
916.932	15827
917.044	15778
917.156	15747
917.268	15622
917.38	15622
917.491	15599
917.603	15618
917.715	15633
917.826	15644
917.938	15523
918.049	15431
918.161	15584
918.272	15778
918.384	15610
918.495	15595
918.606	15367
918.717	15260
918.828	15329
918.939	15405
919.05	15351
919.161	15317
919.272	15214
919.383	15180
919.494	15393
919.604	15538
919.715	15245
919.826	15211
919.936	15252
920.047	15382
920.157	15283
920.267	15447
920.378	15321
920.488	15351
920.598	15408
920.708	15557
920.818	15469
920.928	15389
921.038	15610
921.148	15515
921.258	15287
921.368	15062
921.477	15032
921.587	15005
921.697	15001
921.806	14925
921.916	14941
922.025	14712
922.134	14640
922.244	14629
922.353	14735
922.462	14636
922.571	14476
922.68	14317
922.789	14275
922.898	14343
923.007	14195
923.116	14358
923.224	14320
923.333	14275
923.442	14206
923.55	14142
923.659	14107
923.767	14176
923.876	14035
923.984	14134
924.092	13989
924.201	13997
924.309	14024
924.417	14077
924.525	13970
924.633	13944
924.741	14899
924.849	13784
924.956	13807
925.064	13727
925.172	13662
925.279	13609
925.387	13628
925.494	13693
925.602	13791
925.709	13670
925.816	13586
925.924	13540
926.031	13696
926.138	13609
926.245	13674
926.352	13457
926.459	13674
926.566	13826
926.673	13552
926.779	13460
926.886	13426
926.993	13240
927.099	13187
927.206	13099
927.312	13168
927.419	13259
927.525	13183
927.631	13251
927.737	13152
927.843	13126
927.95	12970
928.056	12920
928.162	13050
928.267	13057
928.373	13639
928.479	13050
928.585	12825
928.69	13012
928.796	13034
928.901	12821
929.007	12753
929.112	12875
929.218	12817
929.323	12825
929.428	12688
929.533	12833
929.638	12692
929.743	12688
929.848	12760
929.953	12627
930.058	12589
930.163	12391
930.267	12456
930.372	12509
930.477	12289
930.581	12627
930.685	12502
930.79	12270
930.894	12308
930.998	12308
931.103	12342
931.207	12015
931.311	11984
931.415	11885
931.519	11608
931.623	11600
