Data from test_V78500241_3475.txt Node
Date: Fri Mar 25 16:05:52 CST 2022
User: usil
Spectrometer: V785-0024
Trigger mode: 0
Integration Time (sec): 4.000000E-1
Scans to average: 1
Nonlinearity correction enabled: false
Boxcar width: 0
Storing dark spectrum: false
XAxis mode: Wavelengths
Number of Pixels in Spectrum: 1024
>>>>>Begin Spectral Data<<<<<
801.071	29140
801.214	29102
801.356	28790
801.499	28873
801.641	28588
801.783	28672
801.926	28774
802.068	28721
802.211	28611
802.353	28580
802.496	28375
802.638	28344
802.78	28379
802.923	28272
803.065	28318
803.208	28356
803.35	28375
803.492	28531
803.635	28668
803.777	28550
803.919	28679
804.061	28957
804.204	28683
804.346	28478
804.488	28455
804.63	28554
804.773	28561
804.915	28668
805.057	28881
805.199	28752
805.341	28679
805.483	29083
805.626	28687
805.768	28611
805.91	28816
806.052	28717
806.194	28778
806.336	28999
806.478	28896
806.62	28748
806.762	28927
806.904	29170
807.046	29261
807.188	29368
807.33	29269
807.472	29223
807.614	29178
807.756	29223
807.898	29102
808.04	29056
808.182	28999
808.324	29258
808.465	29254
808.607	29459
808.749	29410
808.891	29680
809.033	29661
809.174	29493
809.316	29604
809.458	29505
809.6	29421
809.741	29657
809.883	29516
810.025	29714
810.166	29745
810.308	29893
810.45	29870
810.591	29741
810.733	29729
810.875	29528
811.016	29501
811.158	29433
811.299	29661
811.441	29680
811.582	29775
811.724	29665
811.865	29512
812.007	29524
812.148	29562
812.29	29573
812.431	29691
812.573	29874
812.714	30060
812.855	29996
812.997	30174
813.138	30216
813.279	30239
813.421	30064
813.562	29897
813.703	29878
813.845	29775
813.986	29524
814.127	29284
814.268	29360
814.41	29254
814.551	29364
814.692	29151
814.833	29204
814.974	29189
815.115	29318
815.256	29124
815.397	29067
815.539	29231
815.68	29155
815.821	29003
815.962	29113
816.103	29094
816.244	28850
816.385	28858
816.526	28698
816.666	28611
816.807	28660
816.948	28493
817.089	28687
817.23	28653
817.371	28675
817.512	28493
817.653	28523
817.793	28398
817.934	28550
818.075	28554
818.216	28493
818.356	28516
818.497	28341
818.638	28356
818.778	28386
818.919	28314
819.06	28554
819.2	28481
819.341	28675
819.481	28721
819.622	28824
819.762	28896
819.903	28919
820.043	28740
820.184	28622
820.324	28801
820.465	28869
820.605	28763
820.746	28675
820.886	28679
821.026	28763
821.167	28641
821.307	28683
821.447	28611
821.588	28519
821.728	28478
821.868	28303
822.008	28105
822.149	28029
822.289	28025
822.429	27785
822.569	27899
822.709	27934
822.849	27610
822.99	27671
823.13	27473
823.27	27557
823.41	27507
823.55	27329
823.69	27450
823.83	27519
823.97	27485
824.11	27264
824.25	27207
824.389	27291
824.529	27431
824.669	27237
824.809	27367
824.949	27256
825.089	27370
825.228	27184
825.368	27123
825.508	27180
825.648	27146
825.787	27135
825.927	27306
826.067	27074
826.206	27135
826.346	27272
826.485	27241
826.625	27230
826.765	27287
826.904	27226
827.044	27005
827.183	26838
827.323	26819
827.462	27062
827.601	26883
827.741	26902
827.88	26914
828.02	26868
828.159	26887
828.298	26918
828.437	26906
828.577	26842
828.716	26887
828.855	26842
828.994	26598
829.134	26750
829.273	26632
829.412	26655
829.551	26507
829.69	26541
829.829	26526
829.968	26587
830.107	26602
830.246	26575
830.385	26492
830.524	26396
830.663	26427
830.802	26351
830.941	26149
831.08	26142
831.219	26275
831.357	26218
831.496	26427
831.635	26263
831.774	25978
831.913	26100
832.051	26005
832.19	25963
832.329	25928
832.467	25860
832.606	25921
832.744	25788
832.883	25765
833.022	25868
833.16	25871
833.299	25986
833.437	25902
833.576	26039
833.714	25845
833.852	25932
833.991	25974
834.129	25917
834.267	25955
834.406	25898
834.544	25951
834.682	25841
834.821	25868
834.959	26062
835.097	25940
835.235	25921
835.373	25860
835.511	25906
835.65	25643
835.788	25776
835.926	25643
836.064	25529
836.202	25639
836.34	25715
836.478	25757
836.615	25727
836.753	25765
836.891	25875
837.029	25639
837.167	25655
837.305	25704
837.443	25597
837.58	25438
837.718	25628
837.856	25495
837.993	25415
838.131	25533
838.269	25419
838.406	25457
838.544	25449
838.681	25209
838.819	25187
838.956	25129
839.094	25042
839.231	25110
839.369	25160
839.506	25441
839.643	25266
839.781	25118
839.918	24977
840.055	24966
840.193	24928
840.33	24897
840.467	24867
840.604	24905
840.742	25202
840.879	24795
841.016	24897
841.153	24760
841.29	25012
841.427	24730
841.564	24916
841.701	24837
841.838	24825
841.975	24821
842.112	24806
842.249	24646
842.385	24601
842.522	24951
842.659	24661
842.796	24745
842.933	24760
843.069	24502
843.206	24604
843.343	24620
843.479	24798
843.616	24806
843.752	24403
843.889	24471
844.025	24547
844.162	24483
844.298	24505
844.435	24426
844.571	24380
844.708	24410
844.844	24566
844.98	24544
845.117	24616
845.253	24258
845.389	24266
845.525	24338
845.661	24380
845.798	24167
845.934	24216
846.07	24140
846.206	24155
846.342	24258
846.478	24129
846.614	23950
846.75	23813
846.886	23859
847.022	24022
847.158	23893
847.294	23824
847.429	23916
847.565	23901
847.701	24129
847.837	23547
847.972	23657
848.108	23615
848.244	23726
848.379	23436
848.515	23406
848.65	23402
848.786	23501
848.921	23623
849.057	23490
849.192	23668
849.328	23455
849.463	23512
849.598	23493
849.734	23318
849.869	23391
850.004	23337
850.14	23273
850.275	23330
850.41	23102
850.545	23090
850.68	23181
850.815	23208
850.95	23360
851.085	23387
851.22	23307
851.355	23315
851.49	23185
851.625	23239
851.76	23216
851.895	23204
852.03	23166
852.165	23242
852.299	23216
852.434	23311
852.569	23349
852.703	23159
852.838	23258
852.973	23303
853.107	23288
853.242	23170
853.376	23010
853.511	23018
853.645	23060
853.78	23208
853.914	23090
854.048	23006
854.183	22961
854.317	23037
854.451	23254
854.585	22984
854.72	23014
854.854	23102
854.988	22968
855.122	23006
855.256	23014
855.39	23083
855.524	23140
855.658	23105
855.792	23041
855.926	23022
856.06	23052
856.194	23174
856.327	23079
856.461	23006
856.595	22885
856.729	23071
856.862	23197
856.996	22980
857.13	23018
857.263	23162
857.397	23105
857.53	23140
857.664	23178
857.797	23037
857.931	23162
858.064	23117
858.197	23166
858.331	22972
858.464	22961
858.597	22930
858.731	22965
858.864	22965
858.997	23029
859.13	23079
859.263	23083
859.396	23239
859.529	23033
859.662	22980
859.795	22957
859.928	23041
860.061	23113
860.194	23231
860.327	23090
860.46	23151
860.592	23193
860.725	23193
860.858	23155
860.99	23105
861.123	22991
861.256	23037
861.388	23056
861.521	23733
861.653	22991
861.786	22927
861.918	22889
862.05	22831
862.183	23025
862.315	23071
862.447	23083
862.58	22896
862.712	22809
862.844	22679
862.976	22927
863.108	22793
863.24	23098
863.372	22812
863.504	22740
863.636	22717
863.768	22790
863.9	22805
864.032	22679
864.164	22698
864.296	22786
864.428	22927
864.559	22843
864.691	22702
864.823	22721
864.954	22793
865.086	22767
865.217	22641
865.349	22542
865.48	22649
865.612	22729
865.743	22675
865.875	22565
866.006	22550
866.137	22607
866.269	22694
866.4	22618
866.531	22489
866.662	22512
866.793	22565
866.924	22546
867.055	22535
867.186	22618
867.317	22527
867.448	22466
867.579	22542
867.71	22497
867.841	22481
867.972	22512
868.103	22565
868.233	22478
868.364	22519
868.495	22577
868.625	22835
868.756	22824
868.886	22831
869.017	22805
869.147	22854
869.278	22835
869.408	22839
869.539	22790
869.669	22908
869.799	22828
869.929	22869
870.06	22938
870.19	23060
870.32	23132
870.45	23086
870.58	23033
870.71	23372
870.84	23273
870.97	23136
871.1	23181
871.23	23387
871.36	23414
871.489	23383
871.619	23311
871.749	23395
871.879	23425
872.008	23474
872.138	23482
872.267	23379
872.397	23235
872.526	23254
872.656	23326
872.785	23235
872.915	23436
873.044	23581
873.173	23471
873.303	23406
873.432	23414
873.561	23554
873.69	23341
873.819	23383
873.948	23471
874.077	23425
874.206	23326
874.335	23269
874.464	23558
874.593	23733
874.722	23566
874.851	23596
874.979	23577
875.108	23752
875.237	23611
875.365	23501
875.494	23573
875.623	23596
875.751	23543
875.88	23657
876.008	23741
876.136	23866
876.265	24011
876.393	24213
876.521	24144
876.65	24079
876.778	24072
876.906	24083
877.034	23977
877.162	24064
877.29	23897
877.418	23920
877.546	23961
877.674	23920
877.802	23965
877.93	23973
878.058	23897
878.185	23794
878.313	23973
878.441	23882
878.568	23836
878.696	23851
878.824	23897
878.951	24064
879.079	24041
879.206	24155
879.333	23984
879.461	23950
879.588	23961
879.715	24083
879.842	24201
879.97	23988
880.097	23684
880.224	23737
880.351	23714
880.478	23824
880.605	23783
880.732	23847
880.859	24030
880.986	23783
881.112	23745
881.239	23619
881.366	23463
881.493	23448
881.619	23379
881.746	23478
881.872	23448
881.999	23258
882.125	23231
882.252	23250
882.378	23360
882.505	23376
882.631	23227
882.757	23071
882.883	23071
883.01	23014
883.136	22900
883.262	22915
883.388	22843
883.514	22923
883.64	22987
883.766	22862
883.892	22763
884.018	22771
884.143	22904
884.269	23083
884.395	22740
884.52	22565
884.646	22679
884.772	22641
884.897	22512
885.023	22694
885.148	22626
885.274	22664
885.399	22634
885.524	22702
885.65	22630
885.775	22630
885.9	22618
886.025	22660
886.15	22584
886.275	22504
886.4	22481
886.525	22523
886.65	22535
886.775	22603
886.9	22763
887.025	22733
887.149	22512
887.274	22455
887.399	22352
887.523	22413
887.648	22219
887.773	22234
887.897	22417
888.021	22363
888.146	22226
888.27	22519
888.395	22485
888.519	22436
888.643	22580
888.767	22268
888.891	22299
889.015	22135
889.139	22207
889.263	22131
889.387	22287
889.511	22363
889.635	22246
889.759	22128
889.883	22055
890.006	22188
890.13	22143
890.254	21994
890.377	22109
890.501	21873
890.624	21930
890.748	22002
890.871	21800
890.995	21709
891.118	21648
891.241	21690
891.364	21686
891.488	21842
891.611	21720
891.734	21751
891.857	21728
891.98	21823
892.103	21785
892.226	21686
892.349	21606
892.471	21458
892.594	21622
892.717	21595
892.839	21549
892.962	21583
893.085	21751
893.207	21622
893.33	21591
893.452	21500
893.575	21717
893.697	21458
893.819	21625
893.941	21759
894.064	21656
894.186	21431
894.308	21545
894.43	21629
894.552	21709
894.674	21587
894.796	21466
894.918	21534
895.04	21412
895.161	21591
895.283	21504
895.405	21469
895.526	21534
895.648	21462
895.769	21549
895.891	21424
896.012	21717
896.134	21504
896.255	21511
896.376	21485
896.498	21481
896.619	21549
896.74	21542
896.861	21561
896.982	21979
897.103	21998
897.224	21709
897.345	21755
897.466	21778
897.587	21755
897.708	21812
897.828	21724
897.949	21667
898.07	21587
898.19	21648
898.311	21804
898.431	21629
898.552	21789
898.672	21827
898.792	21808
898.913	21660
899.033	21553
899.153	21485
899.273	21481
899.393	21462
899.513	21435
899.633	21530
899.753	21424
899.873	21416
899.993	21507
900.113	21450
900.232	21462
900.352	21420
900.472	21157
900.591	21256
900.711	21249
900.83	21096
900.95	21272
901.069	21249
901.189	21104
901.308	20857
901.427	20800
901.546	20743
901.665	20826
901.784	20800
901.904	20606
902.023	20537
902.141	20290
902.26	20328
902.379	20446
902.498	20336
902.617	20153
902.735	20237
902.854	20298
902.973	20294
903.091	19978
903.21	19925
903.328	19913
903.446	19803
903.565	19750
903.683	19803
903.801	19704
903.919	19769
904.038	19727
904.156	19548
904.274	19491
904.392	19392
904.51	19422
904.627	19480
904.745	19502
904.863	19464
904.981	19320
905.098	19141
905.216	19221
905.334	19183
905.451	19057
905.569	19133
905.686	19209
905.803	19015
905.921	18840
906.038	19080
906.155	18901
906.272	18821
906.389	18867
906.506	18547
906.623	18635
906.74	18677
906.857	18471
906.974	18464
907.091	18715
907.208	18795
907.324	18700
907.441	18589
907.557	18296
907.674	18410
907.79	18235
907.907	18273
908.023	18330
908.139	18426
908.256	18327
908.372	18232
908.488	18254
908.604	18102
908.72	18030
908.836	18125
908.952	17980
909.068	18178
909.184	18174
909.3	18129
909.415	18106
909.531	18087
909.647	17752
909.762	17798
909.878	17756
909.993	17821
910.108	17665
910.224	17680
910.339	17695
910.454	17535
910.57	17463
910.685	17524
910.8	17802
910.915	17661
911.03	17608
911.145	17398
911.259	17425
911.374	17231
911.489	17185
911.604	17200
911.718	17086
911.833	17102
911.947	16987
912.062	16828
912.176	17075
912.291	17064
912.405	17029
912.519	17197
912.633	17235
912.748	17090
912.862	17102
912.976	16892
913.09	16729
913.204	16938
913.318	16774
913.431	17003
913.545	16873
913.659	16949
913.772	16854
913.886	16752
914	16660
914.113	16862
914.226	16790
914.34	16641
914.453	16504
914.566	16626
914.68	16599
914.793	16493
914.906	16177
915.019	16207
915.132	16112
915.245	16154
915.358	16242
915.47	16181
915.583	16158
915.696	16280
915.809	16375
915.921	16371
916.034	16150
916.146	16116
916.259	16200
916.371	16124
916.483	16105
916.595	16036
916.708	15937
916.82	16063
916.932	15930
917.044	15922
917.156	15873
917.268	15876
917.38	15823
917.491	15876
917.603	15937
917.715	15903
917.826	15968
917.938	15816
918.049	15781
918.161	15701
918.272	16067
918.384	15827
918.495	15751
918.606	15656
918.717	15526
918.828	15652
918.939	15625
919.05	15439
919.161	15511
919.272	15363
919.383	15424
919.494	15606
919.604	15736
919.715	15530
919.826	15435
919.936	15534
920.047	15549
920.157	15545
920.267	15694
920.378	15580
920.488	15538
920.598	15644
920.708	15793
920.818	15644
920.928	15717
921.038	15831
921.148	15793
921.258	15405
921.368	15344
921.477	15192
921.587	15313
921.697	15089
921.806	15260
921.916	15017
922.025	14971
922.134	14876
922.244	14899
922.353	14906
922.462	14712
922.571	14754
922.68	14587
922.789	14617
922.898	14511
923.007	14431
923.116	14488
923.224	14484
923.333	14484
923.442	14374
923.55	14370
923.659	14385
923.767	14412
923.876	14317
923.984	14286
924.092	14187
924.201	14282
924.309	14199
924.417	14221
924.525	14168
924.633	14187
924.741	14845
924.849	13879
924.956	14046
925.064	13932
925.172	13845
925.279	13909
925.387	13890
925.494	13940
925.602	13913
925.709	13959
925.816	13666
925.924	13890
926.031	13845
926.138	13643
926.245	13845
926.352	13723
926.459	13860
926.566	13852
926.673	13636
926.779	13540
926.886	13563
926.993	13445
927.099	13392
927.206	13331
927.312	13282
927.419	13438
927.525	13369
927.631	13373
927.737	13301
927.843	13190
927.95	13084
928.056	13126
928.162	13110
928.267	13206
928.373	13689
928.479	13331
928.585	13015
928.69	13137
928.796	13183
928.901	12954
929.007	12871
929.112	13027
929.218	13046
929.323	12878
929.428	12882
929.533	12958
929.638	12833
929.743	12882
929.848	12977
929.953	12852
930.058	12669
930.163	12585
930.267	12547
930.372	12779
930.477	12471
930.581	12833
930.685	12654
930.79	12471
930.894	12521
930.998	12365
931.103	12547
931.207	12136
931.311	12133
931.415	11912
931.519	11790
931.623	11748
