Data from test_V78500241_2916.txt Node
Date: Fri Mar 25 16:02:00 CST 2022
User: usil
Spectrometer: V785-0024
Trigger mode: 0
Integration Time (sec): 4.000000E-1
Scans to average: 1
Nonlinearity correction enabled: false
Boxcar width: 0
Storing dark spectrum: false
XAxis mode: Wavelengths
Number of Pixels in Spectrum: 1024
>>>>>Begin Spectral Data<<<<<
801.071	28862
801.214	28687
801.356	28637
801.499	28478
801.641	28390
801.783	28470
801.926	28310
802.068	28440
802.211	28352
802.353	28204
802.496	28207
802.638	28021
802.78	28177
802.923	27873
803.065	28017
803.208	28021
803.35	28116
803.492	28204
803.635	28257
803.777	28215
803.919	28314
804.061	28531
804.204	28459
804.346	28219
804.488	28154
804.63	28306
804.773	28272
804.915	28519
805.057	28413
805.199	28424
805.341	28379
805.483	28512
805.626	28466
805.768	28394
805.91	28348
806.052	28500
806.194	28508
806.336	28683
806.478	28531
806.62	28550
806.762	28622
806.904	28809
807.046	29223
807.188	28858
807.33	28919
807.472	29044
807.614	28862
807.756	28869
807.898	28816
808.04	28721
808.182	28729
808.324	28786
808.465	28904
808.607	29170
808.749	29277
808.891	29227
809.033	29311
809.174	29277
809.316	29159
809.458	29147
809.6	29326
809.741	29337
809.883	29353
810.025	29512
810.166	29486
810.308	29543
810.45	29474
810.591	29463
810.733	29364
810.875	29083
811.016	28995
811.158	29037
811.299	29379
811.441	29414
811.582	29372
811.724	29220
811.865	29284
812.007	29220
812.148	29197
812.29	29246
812.431	29296
812.573	29566
812.714	29608
812.855	29741
812.997	29866
813.138	29866
813.279	29897
813.421	29828
813.562	29672
813.703	29592
813.845	29520
813.986	29296
814.127	29052
814.268	29014
814.41	28790
814.551	28961
814.692	28927
814.833	28911
814.974	28881
815.115	28900
815.256	28740
815.397	28729
815.539	28786
815.68	28763
815.821	28710
815.962	28805
816.103	28740
816.244	28611
816.385	28432
816.526	28478
816.666	28318
816.807	28150
816.948	28287
817.089	28363
817.23	28352
817.371	28238
817.512	28272
817.653	28348
817.793	28112
817.934	28230
818.075	28207
818.216	28200
818.356	28002
818.497	28120
818.638	27922
818.778	27972
818.919	28044
819.06	28051
819.2	28078
819.341	28299
819.481	28299
819.622	28474
819.762	28531
819.903	28519
820.043	28447
820.184	28356
820.324	28322
820.465	28451
820.605	28341
820.746	28443
820.886	28135
821.026	28497
821.167	28344
821.307	28481
821.447	28386
821.588	28158
821.728	28067
821.868	27823
822.008	27762
822.149	27732
822.289	27606
822.429	27450
822.569	27538
822.709	27359
822.849	27222
822.99	27146
823.13	27192
823.27	27131
823.41	27028
823.55	26925
823.69	27157
823.83	27116
823.97	27081
824.11	26925
824.25	26925
824.389	26925
824.529	27032
824.669	26994
824.809	26986
824.949	26937
825.089	26937
825.228	26956
825.368	26876
825.508	26674
825.648	26823
825.787	26830
825.927	26811
826.067	26773
826.206	26804
826.346	26765
826.485	26861
826.625	26739
826.765	26853
826.904	26887
827.044	26602
827.183	26446
827.323	26526
827.462	26571
827.601	26499
827.741	26484
827.88	26476
828.02	26473
828.159	26450
828.298	26473
828.437	26613
828.577	26503
828.716	26606
828.855	26419
828.994	26134
829.134	26324
829.273	26267
829.412	26134
829.551	26073
829.69	26153
829.829	26172
829.968	26206
830.107	26153
830.246	26142
830.385	26149
830.524	26138
830.663	26039
830.802	25879
830.941	25765
831.08	25685
831.219	25875
831.357	25875
831.496	26065
831.635	25738
831.774	25769
831.913	25704
832.051	25616
832.19	25635
832.329	25616
832.467	25563
832.606	25392
832.744	25430
832.883	25441
833.022	25358
833.16	25556
833.299	25582
833.437	25491
833.576	25540
833.714	25457
833.852	25677
833.991	25594
834.129	25563
834.267	25635
834.406	25514
834.544	25525
834.682	25597
834.821	25392
834.959	25540
835.097	25479
835.235	25499
835.373	25525
835.511	25487
835.65	25403
835.788	25415
835.926	25244
836.064	25080
836.202	25225
836.34	25331
836.478	25411
836.615	25217
836.753	25293
836.891	25457
837.029	25297
837.167	25171
837.305	25289
837.443	25411
837.58	25175
837.718	25160
837.856	25198
837.993	25095
838.131	25168
838.269	25053
838.406	25164
838.544	24951
838.681	24882
838.819	24806
838.956	24700
839.094	24620
839.231	24734
839.369	24772
839.506	24989
839.643	24882
839.781	24623
839.918	24498
840.055	24711
840.193	24642
840.33	24555
840.467	24566
840.604	24696
840.742	24802
840.879	24448
841.016	24361
841.153	24441
841.29	24582
841.427	24490
841.564	24555
841.701	24582
841.838	24528
841.975	24479
842.112	24475
842.249	24350
842.385	24254
842.522	24601
842.659	24429
842.796	24232
842.933	24232
843.069	24315
843.206	24285
843.343	24319
843.479	24197
843.616	24418
843.752	24022
843.889	24095
844.025	24369
844.162	23984
844.298	24418
844.435	24022
844.571	23999
844.708	24053
844.844	24174
844.98	24194
845.117	24106
845.253	23973
845.389	23923
845.525	23912
845.661	23893
845.798	23866
845.934	23824
846.07	23722
846.206	23710
846.342	23878
846.478	23661
846.614	23661
846.75	23455
846.886	23478
847.022	23554
847.158	23452
847.294	23596
847.429	23634
847.565	23490
847.701	23748
847.837	23299
847.972	23334
848.108	23395
848.244	23277
848.379	23181
848.515	23136
848.65	23117
848.786	23197
848.921	23178
849.057	23083
849.192	23303
849.328	23216
849.463	23124
849.598	23018
849.734	22999
849.869	22930
850.004	22835
850.14	22949
850.275	22862
850.41	22797
850.545	22942
850.68	22839
850.815	22987
850.95	22885
851.085	23064
851.22	23044
851.355	22892
851.49	22927
851.625	22850
851.76	22873
851.895	22744
852.03	22774
852.165	22812
852.299	22869
852.434	22889
852.569	22957
852.703	22854
852.838	22949
852.973	22957
853.107	22987
853.242	22748
853.376	22698
853.511	22656
853.645	22592
853.78	22790
853.914	22717
854.048	22668
854.183	22710
854.317	22664
854.451	22934
854.585	22759
854.72	22626
854.854	22717
854.988	22637
855.122	22790
855.256	22626
855.39	22748
855.524	22816
855.658	22771
855.792	22771
855.926	22717
856.06	22847
856.194	22858
856.327	22729
856.461	22687
856.595	22630
856.729	22626
856.862	22774
856.996	22649
857.13	22771
857.263	22759
857.397	22691
857.53	22656
857.664	22706
857.797	22748
857.931	22843
858.064	22774
858.197	22839
858.331	22561
858.464	22599
858.597	22618
858.731	22649
858.864	22508
858.997	22653
859.13	22664
859.263	22596
859.396	22698
859.529	22668
859.662	22733
859.795	22611
859.928	22622
860.061	22858
860.194	22904
860.327	22752
860.46	22675
860.592	22786
860.725	23033
860.858	22873
860.99	22687
861.123	22519
861.256	22535
861.388	22790
861.521	23288
861.653	22634
861.786	22626
861.918	22440
862.05	22546
862.183	22660
862.315	22771
862.447	22660
862.58	22615
862.712	22333
862.844	22265
862.976	22497
863.108	22508
863.24	22892
863.372	22310
863.504	22356
863.636	22459
863.768	22436
863.9	22417
864.032	22253
864.164	22306
864.296	22424
864.428	22436
864.559	22329
864.691	22455
864.823	22394
864.954	22322
865.086	22284
865.217	22280
865.349	22116
865.48	22253
865.612	22299
865.743	22451
865.875	22333
866.006	22226
866.137	22173
866.269	22150
866.4	22207
866.531	22215
866.662	22200
866.793	22166
866.924	22196
867.055	22261
867.186	22242
867.317	22185
867.448	22021
867.579	22310
867.71	22215
867.841	22135
867.972	22303
868.103	22135
868.233	22158
868.364	22272
868.495	22242
868.625	22428
868.756	22466
868.886	22436
869.017	22462
869.147	22603
869.278	22512
869.408	22413
869.539	22455
869.669	22557
869.799	22470
869.929	22542
870.06	22645
870.19	22603
870.32	22778
870.45	22900
870.58	22831
870.71	22915
870.84	22873
870.97	22843
871.1	22900
871.23	22987
871.36	23060
871.489	22934
871.619	23033
871.749	22995
871.879	23079
872.008	23212
872.138	23003
872.267	23075
872.397	22942
872.526	22892
872.656	22999
872.785	22767
872.915	23033
873.044	23029
873.173	23022
873.303	23075
873.432	23048
873.561	23181
873.69	23117
873.819	23113
873.948	23185
874.077	23083
874.206	22938
874.335	22987
874.464	23143
874.593	23261
874.722	23273
874.851	23284
874.979	23277
875.108	23341
875.237	23174
875.365	23147
875.494	23292
875.623	23398
875.751	23299
875.88	23414
876.008	23490
876.136	23570
876.265	23646
876.393	23767
876.521	23668
876.65	23760
876.778	23661
876.906	23516
877.034	23676
877.162	23627
877.29	23516
877.418	23627
877.546	23630
877.674	23577
877.802	23471
877.93	23657
878.058	23505
878.185	23524
878.313	23634
878.441	23562
878.568	23349
878.696	23528
878.824	23573
878.951	23619
879.079	23821
879.206	23901
879.333	23752
879.461	23623
879.588	23840
879.715	23760
879.842	23824
879.97	23767
880.097	23429
880.224	23478
880.351	23349
880.478	23440
880.605	23364
880.732	23608
880.859	23653
880.986	23531
881.112	23520
881.239	23246
881.366	23143
881.493	23037
881.619	23098
881.746	23117
881.872	23003
881.999	22987
882.125	22930
882.252	23067
882.378	22984
882.505	23033
882.631	22824
882.757	22683
882.883	22774
883.01	22653
883.136	22508
883.262	22569
883.388	22550
883.514	22557
883.64	22645
883.766	22626
883.892	22333
884.018	22360
884.143	22493
884.269	22569
884.395	22428
884.52	22276
884.646	22413
884.772	22306
884.897	22093
885.023	22234
885.148	22379
885.274	22367
885.399	22432
885.524	22318
885.65	22371
885.775	22166
885.9	22390
886.025	22363
886.15	22367
886.275	22238
886.4	22173
886.525	22181
886.65	22116
886.775	22226
886.9	22344
887.025	22512
887.149	22329
887.274	22105
887.399	22013
887.523	21975
887.648	22090
887.773	22006
887.897	22017
888.021	22105
888.146	22021
888.27	22150
888.395	22166
888.519	22078
888.643	21945
888.767	22036
888.891	21918
889.015	21911
889.139	21968
889.263	21903
889.387	22013
889.511	21941
889.635	21941
889.759	21854
889.883	21888
890.006	21831
890.13	21941
890.254	21618
890.377	21785
890.501	21545
890.624	21511
890.748	21553
890.871	21507
890.995	21317
891.118	21367
891.241	21359
891.364	21393
891.488	21401
891.611	21389
891.734	21420
891.857	21420
891.98	21447
892.103	21359
892.226	21359
892.349	21287
892.471	21165
892.594	21386
892.717	21287
892.839	21306
892.962	21313
893.085	21283
893.207	21279
893.33	21188
893.452	21146
893.575	21188
893.697	21275
893.819	21447
893.941	21492
894.064	21469
894.186	21192
894.308	21161
894.43	21291
894.552	21241
894.674	21306
894.796	21222
894.918	21146
895.04	21241
895.161	21302
895.283	21313
895.405	21116
895.526	21310
895.648	21268
895.769	21096
895.891	21291
896.012	21370
896.134	21336
896.255	21233
896.376	21157
896.498	21195
896.619	21252
896.74	21199
896.861	21302
896.982	21622
897.103	21564
897.224	21466
897.345	21496
897.466	21408
897.587	21359
897.708	21580
897.828	21329
897.949	21332
898.07	21344
898.19	21359
898.311	21447
898.431	21351
898.552	21412
898.672	21488
898.792	21481
898.913	21458
899.033	21176
899.153	21340
899.273	21131
899.393	21173
899.513	21188
899.633	21112
899.753	21359
899.873	21077
899.993	21264
900.113	21047
900.232	21081
900.352	21055
900.472	20902
900.591	20895
900.711	20979
900.83	20933
900.95	21058
901.069	20941
901.189	20845
901.308	20598
901.427	20511
901.546	20381
901.665	20533
901.784	20507
901.904	20233
902.023	20286
902.141	20107
902.26	20035
902.379	20024
902.498	20005
902.617	19902
902.735	20012
902.854	19921
902.973	19955
903.091	19662
903.21	19689
903.328	19643
903.446	19544
903.565	19460
903.683	19518
903.801	19354
903.919	19327
904.038	19487
904.156	19122
904.274	19297
904.392	19194
904.51	19217
904.627	19164
904.745	19183
904.863	19209
904.981	19050
905.098	18947
905.216	18814
905.334	18913
905.451	18768
905.569	18703
905.686	18833
905.803	18989
905.921	18711
906.038	18776
906.155	18715
906.272	18623
906.389	18608
906.506	18498
906.623	18376
906.74	18407
906.857	18334
906.974	18330
907.091	18376
907.208	18521
907.324	18486
907.441	18277
907.557	18213
907.674	18178
907.79	18049
907.907	18133
908.023	18186
908.139	18117
908.256	18068
908.372	17984
908.488	17999
908.604	17866
908.72	17809
908.836	17859
908.952	17726
909.068	17832
909.184	17859
909.3	17786
909.415	17824
909.531	17718
909.647	17577
909.762	17558
909.878	17467
909.993	17627
910.108	17471
910.224	17539
910.339	17448
910.454	17482
910.57	17277
910.685	17178
910.8	17535
910.915	17463
911.03	17269
911.145	17136
911.259	17052
911.374	17140
911.489	17155
911.604	16934
911.718	16809
911.833	16793
911.947	16771
912.062	16622
912.176	16767
912.291	16877
912.405	16858
912.519	16930
912.633	17022
912.748	16786
912.862	16877
912.976	16641
913.09	16550
913.204	16550
913.318	16694
913.431	16733
913.545	16607
913.659	16713
913.772	16611
913.886	16523
914	16474
914.113	16554
914.226	16542
914.34	16474
914.453	16318
914.566	16474
914.68	16299
914.793	16249
914.906	16093
915.019	15949
915.132	15983
915.245	16086
915.358	16105
915.47	15987
915.583	15964
915.696	15941
915.809	16109
915.921	16105
916.034	15953
916.146	15895
916.259	15937
916.371	15987
916.483	15892
916.595	15819
916.708	15785
916.82	15797
916.932	15812
917.044	15774
917.156	15720
917.268	15705
917.38	15584
917.491	15515
917.603	15648
917.715	15633
917.826	15682
917.938	15538
918.049	15408
918.161	15610
918.272	15759
918.384	15644
918.495	15507
918.606	15431
918.717	15294
918.828	15348
918.939	15439
919.05	15203
919.161	15233
919.272	15100
919.383	15169
919.494	15431
919.604	15599
919.715	15389
919.826	15275
919.936	15325
920.047	15355
920.157	15332
920.267	15530
920.378	15233
920.488	15203
920.598	15504
920.708	15610
920.818	15431
920.928	15439
921.038	15519
921.148	15523
921.258	15249
921.368	15070
921.477	15001
921.587	14960
921.697	14899
921.806	14971
921.916	14842
922.025	14716
922.134	14655
922.244	14568
922.353	14720
922.462	14579
922.571	14473
922.68	14351
922.789	14191
922.898	14286
923.007	14317
923.116	14248
923.224	14233
923.333	14244
923.442	14119
923.55	14115
923.659	14134
923.767	14157
923.876	14016
923.984	14206
924.092	13978
924.201	14092
924.309	13967
924.417	14027
924.525	13909
924.633	13982
924.741	14845
924.849	13811
924.956	13830
925.064	13658
925.172	13727
925.279	13628
925.387	13655
925.494	13655
925.602	13868
925.709	13814
925.816	13548
925.924	13578
926.031	13723
926.138	13521
926.245	13628
926.352	13441
926.459	13571
926.566	13616
926.673	13582
926.779	13483
926.886	13350
926.993	13316
927.099	13164
927.206	13133
927.312	13183
927.419	13282
927.525	13091
927.631	13232
927.737	13084
927.843	13031
927.95	12932
928.056	13023
928.162	12928
928.267	13015
928.373	13689
928.479	13118
928.585	12848
928.69	12920
928.796	12935
928.901	12848
929.007	12642
929.112	12863
929.218	12749
929.323	12741
929.428	12719
929.533	12791
929.638	12741
929.743	12642
929.848	12696
929.953	12665
930.058	12532
930.163	12372
930.267	12475
930.372	12509
930.477	12342
930.581	12612
930.685	12388
930.79	12304
930.894	12311
930.998	12152
931.103	12357
931.207	12022
931.311	11889
931.415	11813
931.519	11638
931.623	11665
