Data from test_V78500241_3495.txt Node
Date: Fri Mar 25 16:06:00 CST 2022
User: usil
Spectrometer: V785-0024
Trigger mode: 0
Integration Time (sec): 4.000000E-1
Scans to average: 1
Nonlinearity correction enabled: false
Boxcar width: 0
Storing dark spectrum: false
XAxis mode: Wavelengths
Number of Pixels in Spectrum: 1024
>>>>>Begin Spectral Data<<<<<
801.071	29056
801.214	28904
801.356	28618
801.499	28554
801.641	28455
801.783	28470
801.926	28489
802.068	28615
802.211	28417
802.353	28485
802.496	28428
802.638	28204
802.78	28181
802.923	28124
803.065	28196
803.208	28192
803.35	28143
803.492	28352
803.635	28500
803.777	28371
803.919	28535
804.061	28759
804.204	28596
804.346	28443
804.488	28421
804.63	28459
804.773	28371
804.915	28523
805.057	28577
805.199	28481
805.341	28504
805.483	28740
805.626	28618
805.768	28516
805.91	28854
806.052	28713
806.194	28592
806.336	28812
806.478	28592
806.62	28702
806.762	28805
806.904	28904
807.046	29128
807.188	29071
807.33	29151
807.472	29166
807.614	29136
807.756	28995
807.898	29010
808.04	28896
808.182	28854
808.324	28953
808.465	28984
808.607	29265
808.749	29383
808.891	29543
809.033	29467
809.174	29372
809.316	29242
809.458	29425
809.6	29315
809.741	29524
809.883	29433
810.025	29741
810.166	29558
810.308	29649
810.45	29657
810.591	29638
810.733	29391
810.875	29406
811.016	29292
811.158	29227
811.299	29459
811.441	29528
811.582	29486
811.724	29448
811.865	29341
812.007	29315
812.148	29497
812.29	29395
812.431	29486
812.573	29710
812.714	29756
812.855	29851
812.997	30091
813.138	30133
813.279	30213
813.421	29958
813.562	29859
813.703	29748
813.845	29600
813.986	29231
814.127	29288
814.268	29166
814.41	29124
814.551	29041
814.692	29117
814.833	28968
814.974	29128
815.115	29037
815.256	28991
815.397	29033
815.539	28946
815.68	28972
815.821	28858
815.962	28934
816.103	28881
816.244	28771
816.385	28713
816.526	28622
816.666	28596
816.807	28436
816.948	28352
817.089	28500
817.23	28504
817.371	28607
817.512	28318
817.653	28295
817.793	28440
817.934	28344
818.075	28447
818.216	28493
818.356	28367
818.497	28249
818.638	28128
818.778	28135
818.919	28284
819.06	28238
819.2	28310
819.341	28432
819.481	28580
819.622	28557
819.762	28892
819.903	28831
820.043	28736
820.184	28618
820.324	28615
820.465	28504
820.605	28641
820.746	28417
820.886	28401
821.026	28519
821.167	28455
821.307	28573
821.447	28519
821.588	28261
821.728	28249
821.868	28040
822.008	27850
822.149	27979
822.289	27903
822.429	27667
822.569	27686
822.709	27549
822.849	27492
822.99	27424
823.13	27237
823.27	27496
823.41	27237
823.55	27123
823.69	27180
823.83	27233
823.97	27230
824.11	27085
824.25	27020
824.389	27089
824.529	27165
824.669	27074
824.809	27135
824.949	27089
825.089	27055
825.228	27180
825.368	27047
825.508	26876
825.648	26937
825.787	26975
825.927	27039
826.067	27047
826.206	26975
826.346	26861
826.485	26940
826.625	27017
826.765	26971
826.904	27009
827.044	26758
827.183	26762
827.323	26629
827.462	26773
827.601	26769
827.741	26788
827.88	26632
828.02	26617
828.159	26705
828.298	26674
828.437	26689
828.577	26552
828.716	26682
828.855	26629
828.994	26423
829.134	26385
829.273	26400
829.412	26412
829.551	26328
829.69	26419
829.829	26408
829.968	26396
830.107	26381
830.246	26328
830.385	26248
830.524	26244
830.663	26126
830.802	26130
830.941	25993
831.08	25986
831.219	26027
831.357	26046
831.496	26191
831.635	26107
831.774	26107
831.913	25966
832.051	25738
832.19	25639
832.329	25731
832.467	25563
832.606	25635
832.744	25529
832.883	25620
833.022	25514
833.16	25613
833.299	25731
833.437	25662
833.576	25727
833.714	25647
833.852	25791
833.991	25700
834.129	25830
834.267	25727
834.406	25655
834.544	25780
834.682	25616
834.821	25833
834.959	25841
835.097	25575
835.235	25677
835.373	25662
835.511	25674
835.65	25445
835.788	25468
835.926	25468
836.064	25335
836.202	25441
836.34	25506
836.478	25518
836.615	25601
836.753	25510
836.891	25499
837.029	25521
837.167	25460
837.305	25365
837.443	25563
837.58	25358
837.718	25301
837.856	25339
837.993	25251
838.131	25293
838.269	25232
838.406	25263
838.544	25194
838.681	24996
838.819	25019
838.956	24871
839.094	24779
839.231	24901
839.369	25031
839.506	25232
839.643	25088
839.781	24658
839.918	24749
840.055	24798
840.193	24665
840.33	24810
840.467	24661
840.604	24700
840.742	25046
840.879	24498
841.016	24574
841.153	24544
841.29	24871
841.427	24715
841.564	24795
841.701	24688
841.838	24635
841.975	24505
842.112	24601
842.249	24536
842.385	24521
842.522	24517
842.659	24502
842.796	24407
842.933	24502
843.069	24407
843.206	24418
843.343	24490
843.479	24486
843.616	24498
843.752	24235
843.889	24327
844.025	24418
844.162	24251
844.298	24213
844.435	24285
844.571	24228
844.708	24232
844.844	24467
844.98	24315
845.117	24429
845.253	24228
845.389	24186
845.525	24133
845.661	24079
845.798	23794
845.934	24003
846.07	24076
846.206	24045
846.342	24053
846.478	23931
846.614	23726
846.75	23623
846.886	23684
847.022	23805
847.158	23646
847.294	23733
847.429	23714
847.565	23600
847.701	23999
847.837	23395
847.972	23444
848.108	23547
848.244	23463
848.379	23269
848.515	23227
848.65	23212
848.786	23200
848.921	23307
849.057	23239
849.192	23387
849.328	23349
849.463	23246
849.598	23269
849.734	23113
849.869	23124
850.004	23121
850.14	23094
850.275	22968
850.41	22930
850.545	23109
850.68	23010
850.815	23113
850.95	23044
851.085	23326
851.22	23121
851.355	23113
851.49	23044
851.625	23003
851.76	23033
851.895	22919
852.03	23048
852.165	22987
852.299	23075
852.434	22991
852.569	23090
852.703	23105
852.838	23102
852.973	23151
853.107	23124
853.242	22934
853.376	22873
853.511	22793
853.645	22850
853.78	22999
853.914	22911
854.048	22831
854.183	22930
854.317	22896
854.451	23022
854.585	22866
854.72	22980
854.854	22968
854.988	22763
855.122	22885
855.256	22877
855.39	22904
855.524	22965
855.658	22934
855.792	22911
855.926	22934
856.06	22946
856.194	22930
856.327	22869
856.461	22930
856.595	22805
856.729	22869
856.862	22949
856.996	22858
857.13	22828
857.263	22904
857.397	23044
857.53	22816
857.664	22961
857.797	22847
857.931	22972
858.064	22987
858.197	22961
858.331	22862
858.464	22854
858.597	22801
858.731	22729
858.864	22793
858.997	22797
859.13	22911
859.263	22908
859.396	22953
859.529	22786
859.662	22946
859.795	22862
859.928	22759
860.061	22949
860.194	22995
860.327	22961
860.46	22881
860.592	22961
860.725	23048
860.858	23048
860.99	22923
861.123	22835
861.256	22839
861.388	22877
861.521	23589
861.653	22881
861.786	22637
861.918	22691
862.05	22694
862.183	22713
862.315	22763
862.447	22889
862.58	22820
862.712	22542
862.844	22516
862.976	22717
863.108	22656
863.24	22892
863.372	22421
863.504	22592
863.636	22569
863.768	22607
863.9	22557
864.032	22447
864.164	22683
864.296	22580
864.428	22698
864.559	22706
864.691	22653
864.823	22702
864.954	22440
865.086	22615
865.217	22462
865.349	22428
865.48	22417
865.612	22424
865.743	22637
865.875	22497
866.006	22291
866.137	22432
866.269	22413
866.4	22318
866.531	22432
866.662	22398
866.793	22466
866.924	22398
867.055	22371
867.186	22455
867.317	22363
867.448	22303
867.579	22322
867.71	22268
867.841	22314
867.972	22280
868.103	22428
868.233	22348
868.364	22379
868.495	22504
868.625	22497
868.756	22759
868.886	22618
869.017	22546
869.147	22675
869.278	22778
869.408	22630
869.539	22668
869.669	22618
869.799	22740
869.929	22729
870.06	22668
870.19	22915
870.32	22847
870.45	22835
870.58	22991
870.71	23083
870.84	23162
870.97	23052
871.1	22949
871.23	23193
871.36	23223
871.489	23075
871.619	23124
871.749	23258
871.879	23178
872.008	23353
872.138	23162
872.267	23227
872.397	23048
872.526	23147
872.656	23109
872.785	22957
872.915	23204
873.044	23330
873.173	23265
873.303	23212
873.432	23353
873.561	23402
873.69	23239
873.819	23242
873.948	23353
874.077	23261
874.206	23155
874.335	23128
874.464	23330
874.593	23452
874.722	23337
874.851	23493
874.979	23463
875.108	23516
875.237	23337
875.365	23239
875.494	23436
875.623	23524
875.751	23486
875.88	23467
876.008	23509
876.136	23566
876.265	23805
876.393	23965
876.521	23969
876.65	23999
876.778	23836
876.906	23764
877.034	23642
877.162	23866
877.29	23653
877.418	23691
877.546	23684
877.674	23783
877.802	23817
877.93	23756
878.058	23684
878.185	23649
878.313	23657
878.441	23748
878.568	23528
878.696	23786
878.824	23779
878.951	23802
879.079	23882
879.206	24053
879.333	23984
879.461	23828
879.588	23790
879.715	23866
879.842	24015
879.97	23836
880.097	23699
880.224	23627
880.351	23703
880.478	23703
880.605	23611
880.732	23516
880.859	23901
880.986	23516
881.112	23676
881.239	23436
881.366	23315
881.493	23212
881.619	23170
881.746	23227
881.872	23105
881.999	23117
882.125	23132
882.252	23109
882.378	23288
882.505	23322
882.631	23014
882.757	22797
882.883	22987
883.01	22759
883.136	22812
883.262	22656
883.388	22592
883.514	22843
883.64	22862
883.766	22812
883.892	22535
884.018	22672
884.143	22698
884.269	22831
884.395	22603
884.52	22379
884.646	22466
884.772	22390
884.897	22314
885.023	22360
885.148	22622
885.274	22531
885.399	22497
885.524	22424
885.65	22459
885.775	22451
885.9	22325
886.025	22603
886.15	22512
886.275	22451
886.4	22341
886.525	22436
886.65	22413
886.775	22341
886.9	22634
887.025	22733
887.149	22310
887.274	22272
887.399	22185
887.523	22105
887.648	22169
887.773	22055
887.897	22204
888.021	22173
888.146	22181
888.27	22280
888.395	22318
888.519	22215
888.643	22200
888.767	22265
888.891	22192
889.015	22044
889.139	21956
889.263	22029
889.387	22112
889.511	22070
889.635	22185
889.759	21994
889.883	21994
890.006	22078
890.13	22093
890.254	21918
890.377	22017
890.501	21876
890.624	21667
890.748	21793
890.871	21553
890.995	21564
891.118	21447
891.241	21458
891.364	21485
891.488	21690
891.611	21538
891.734	21507
891.857	21561
891.98	21492
892.103	21526
892.226	21515
892.349	21595
892.471	21351
892.594	21401
892.717	21428
892.839	21351
892.962	21401
893.085	21469
893.207	21424
893.33	21241
893.452	21378
893.575	21492
893.697	21424
893.819	21462
893.941	21698
894.064	21549
894.186	21363
894.308	21310
894.43	21492
894.552	21599
894.674	21450
894.796	21245
894.918	21458
895.04	21260
895.161	21545
895.283	21507
895.405	21386
895.526	21313
895.648	21313
895.769	21431
895.891	21420
896.012	21447
896.134	21416
896.255	21378
896.376	21268
896.498	21389
896.619	21439
896.74	21447
896.861	21469
896.982	21690
897.103	21713
897.224	21542
897.345	21641
897.466	21530
897.587	21553
897.708	21663
897.828	21675
897.949	21538
898.07	21428
898.19	21511
898.311	21599
898.431	21530
898.552	21500
898.672	21625
898.792	21641
898.913	21690
899.033	21435
899.153	21374
899.273	21287
899.393	21302
899.513	21363
899.633	21321
899.753	21291
899.873	21165
899.993	21291
900.113	21382
900.232	21252
900.352	21233
900.472	21165
900.591	20956
900.711	21055
900.83	21127
900.95	21142
901.069	21150
901.189	20921
901.308	20720
901.427	20583
901.546	20724
901.665	20575
901.784	20682
901.904	20499
902.023	20434
902.141	20142
902.26	20134
902.379	20233
902.498	20077
902.617	20062
902.735	20187
902.854	20176
902.973	20088
903.091	19761
903.21	19879
903.328	19811
903.446	19693
903.565	19632
903.683	19643
903.801	19388
903.919	19521
904.038	19540
904.156	19331
904.274	19453
904.392	19400
904.51	19476
904.627	19225
904.745	19251
904.863	19335
904.981	19175
905.098	19046
905.216	18958
905.334	19027
905.451	19084
905.569	18894
905.686	19057
905.803	18958
905.921	18844
906.038	18753
906.155	18814
906.272	18738
906.389	18673
906.506	18608
906.623	18521
906.74	18441
906.857	18475
906.974	18448
907.091	18494
907.208	18684
907.324	18388
907.441	18437
907.557	18190
907.674	18190
907.79	18232
907.907	18235
908.023	18304
908.139	18239
908.256	18133
908.372	18167
908.488	18155
908.604	18045
908.72	17992
908.836	17863
908.952	17927
909.068	17916
909.184	18026
909.3	17859
909.415	17920
909.531	17969
909.647	17726
909.762	17589
909.878	17680
909.993	17592
910.108	17619
910.224	17543
910.339	17573
910.454	17486
910.57	17387
910.685	17436
910.8	17661
910.915	17532
911.03	17410
911.145	17318
911.259	17220
911.374	17193
911.489	17124
911.604	17155
911.718	16991
911.833	16930
911.947	16835
912.062	16824
912.176	16961
912.291	17014
912.405	16930
912.519	17174
912.633	17124
912.748	17010
912.862	16949
912.976	16816
913.09	16721
913.204	16710
913.318	16801
913.431	16995
913.545	16923
913.659	16824
913.772	16713
913.886	16523
914	16519
914.113	16664
914.226	16733
914.34	16558
914.453	16409
914.566	16497
914.68	16375
914.793	16462
914.906	16215
915.019	16192
915.132	16135
915.245	16055
915.358	16082
915.47	16135
915.583	16131
915.696	16131
915.809	16177
915.921	16226
916.034	16128
916.146	16120
916.259	15994
916.371	16082
916.483	15975
916.595	15918
916.708	15941
916.82	15968
916.932	15892
917.044	15876
917.156	15884
917.268	15747
917.38	15713
917.491	15751
917.603	15838
917.715	15766
917.826	15770
917.938	15705
918.049	15542
918.161	15633
918.272	15778
918.384	15789
918.495	15633
918.606	15458
918.717	15416
918.828	15450
918.939	15458
919.05	15351
919.161	15435
919.272	15230
919.383	15317
919.494	15667
919.604	15644
919.715	15496
919.826	15389
919.936	15397
920.047	15580
920.157	15439
920.267	15667
920.378	15580
920.488	15515
920.598	15663
920.708	15686
920.818	15485
920.928	15530
921.038	15766
921.148	15633
921.258	15348
921.368	15256
921.477	15203
921.587	15154
921.697	15070
921.806	15146
921.916	14990
922.025	14823
922.134	14739
922.244	14743
922.353	14834
922.462	14693
922.571	14590
922.68	14476
922.789	14427
922.898	14355
923.007	14381
923.116	14412
923.224	14362
923.333	14343
923.442	14282
923.55	14115
923.659	14298
923.767	14225
923.876	14206
923.984	14244
924.092	14107
924.201	14142
924.309	14115
924.417	14195
924.525	14107
924.633	14012
924.741	14998
924.849	13772
924.956	13951
925.064	13784
925.172	13715
925.279	13784
925.387	13784
925.494	13772
925.602	13913
925.709	13849
925.816	13681
925.924	13757
926.031	13700
926.138	13784
926.245	13734
926.352	13670
926.459	13784
926.566	13715
926.673	13567
926.779	13540
926.886	13563
926.993	13331
927.099	13358
927.206	13236
927.312	13274
927.419	13358
927.525	13244
927.631	13316
927.737	13244
927.843	13099
927.95	13072
928.056	13107
928.162	13088
928.267	13145
928.373	13837
928.479	13190
928.585	12886
928.69	12962
928.796	13046
928.901	12962
929.007	12817
929.112	13027
929.218	12932
929.323	12825
929.428	12738
929.533	12996
929.638	12730
929.743	12642
929.848	12837
929.953	12722
930.058	12620
930.163	12483
930.267	12486
930.372	12582
930.477	12422
930.581	12669
930.685	12525
930.79	12391
930.894	12433
930.998	12376
931.103	12414
931.207	12140
931.311	12015
931.415	11973
931.519	11760
931.623	11688
