Data from test_V78500241_200.txt Node
Date: Fri Mar 25 15:43:11 CST 2022
User: usil
Spectrometer: V785-0024
Trigger mode: 0
Integration Time (sec): 4.000000E-1
Scans to average: 1
Nonlinearity correction enabled: false
Boxcar width: 0
Storing dark spectrum: false
XAxis mode: Wavelengths
Number of Pixels in Spectrum: 1024
>>>>>Begin Spectral Data<<<<<
801.071	29105
801.214	28995
801.356	28881
801.499	28694
801.641	28713
801.783	28717
801.926	28596
802.068	28653
802.211	28649
802.353	28428
802.496	28478
802.638	28360
802.78	28253
802.923	28181
803.065	28207
803.208	28268
803.35	28295
803.492	28413
803.635	28314
803.777	28306
803.919	28497
804.061	28675
804.204	28523
804.346	28329
804.488	28291
804.63	28382
804.773	28230
804.915	28363
805.057	28622
805.199	28322
805.341	28417
805.483	28580
805.626	28493
805.768	28371
805.91	28500
806.052	28626
806.194	28371
806.336	28641
806.478	28615
806.62	28573
806.762	28550
806.904	28755
807.046	28984
807.188	28847
807.33	28892
807.472	28965
807.614	28797
807.756	28812
807.898	28687
808.04	28557
808.182	28611
808.324	28599
808.465	28759
808.607	28862
808.749	29025
808.891	29090
809.033	29189
809.174	29159
809.316	29147
809.458	29044
809.6	29006
809.741	29208
809.883	29128
810.025	29159
810.166	29223
810.308	29296
810.45	29189
810.591	29318
810.733	29025
810.875	28968
811.016	28938
811.158	28877
811.299	29273
811.441	29269
811.582	29132
811.724	28949
811.865	29124
812.007	29113
812.148	28995
812.29	29067
812.431	29132
812.573	29296
812.714	29292
812.855	29539
812.997	29638
813.138	29722
813.279	29634
813.421	29490
813.562	29436
813.703	29288
813.845	29117
813.986	28763
814.127	28721
814.268	28645
814.41	28550
814.551	28702
814.692	28736
814.833	28565
814.974	28573
815.115	28561
815.256	28348
815.397	28379
815.539	28455
815.68	28344
815.821	28135
815.962	28360
816.103	28485
816.244	28219
816.385	27960
816.526	28074
816.666	27888
816.807	27774
816.948	27816
817.089	27884
817.23	27808
817.371	27785
817.512	27781
817.653	27663
817.793	27694
817.934	27686
818.075	27739
818.216	27747
818.356	27652
818.497	27690
818.638	27450
818.778	27458
818.919	27507
819.06	27568
819.2	27561
819.341	27526
819.481	27568
819.622	27739
819.762	28074
819.903	27857
820.043	27850
820.184	27793
820.324	27671
820.465	27884
820.605	27770
820.746	27698
820.886	27663
821.026	27774
821.167	27663
821.307	27682
821.447	27606
821.588	27485
821.728	27397
821.868	27207
822.008	27013
822.149	27119
822.289	27085
822.429	26861
822.569	26697
822.709	26686
822.849	26514
822.99	26655
823.13	26663
823.27	26499
823.41	26324
823.55	26252
823.69	26488
823.83	26404
823.97	26317
824.11	26305
824.25	26176
824.389	26069
824.529	26278
824.669	26157
824.809	26256
824.949	26278
825.089	26309
825.228	26069
825.368	25955
825.508	25978
825.648	26043
825.787	26046
825.927	26062
826.067	26012
826.206	26020
826.346	25997
826.485	26043
826.625	26016
826.765	26149
826.904	26027
827.044	25795
827.183	25643
827.323	25746
827.462	25780
827.601	25772
827.741	25502
827.88	25704
828.02	25514
828.159	25575
828.298	25609
828.437	25674
828.577	25586
828.716	25651
828.855	25677
828.994	25289
829.134	25346
829.273	25327
829.412	25247
829.551	25457
829.69	25274
829.829	25289
829.968	25304
830.107	25304
830.246	25327
830.385	25171
830.524	25179
830.663	25114
830.802	24996
830.941	24947
831.08	24745
831.219	24992
831.357	24962
831.496	25091
831.635	24829
831.774	24741
831.913	24726
832.051	24798
832.19	24726
832.329	24654
832.467	24544
832.606	24486
832.744	24551
832.883	24528
833.022	24448
833.16	24502
833.299	24604
833.437	24517
833.576	24582
833.714	24555
833.852	24578
833.991	24517
834.129	24544
834.267	24612
834.406	24563
834.544	24479
834.682	24582
834.821	24528
834.959	24661
835.097	24410
835.235	24582
835.373	24490
835.511	24395
835.65	24380
835.788	24342
835.926	24277
836.064	24068
836.202	24102
836.34	24323
836.478	24395
836.615	24357
836.753	24338
836.891	24479
837.029	24239
837.167	24323
837.305	24167
837.443	24209
837.58	24076
837.718	24197
837.856	24049
837.993	24167
838.131	24102
838.269	24064
838.406	24091
838.544	24030
838.681	23824
838.819	23859
838.956	23699
839.094	23566
839.231	23680
839.369	23737
839.506	23916
839.643	23760
839.781	23623
839.918	23531
840.055	23566
840.193	23604
840.33	23414
840.467	23387
840.604	23478
840.742	23760
840.879	23368
841.016	23440
841.153	23265
841.29	23573
841.427	23512
841.564	23528
841.701	23414
841.838	23391
841.975	23360
842.112	23398
842.249	23231
842.385	23261
842.522	23528
842.659	23208
842.796	23041
842.933	23102
843.069	23117
843.206	23143
843.343	23189
843.479	23200
843.616	23197
843.752	22938
843.889	22999
844.025	23018
844.162	22934
844.298	22991
844.435	22801
844.571	22877
844.708	22934
844.844	23037
844.98	22953
845.117	22904
845.253	22805
845.389	22831
845.525	22858
845.661	22812
845.798	22626
845.934	22596
846.07	22580
846.206	22569
846.342	22835
846.478	22592
846.614	22390
846.75	22226
846.886	22230
847.022	22417
847.158	22322
847.294	22405
847.429	22310
847.565	22295
847.701	22459
847.837	22059
847.972	21987
848.108	21998
848.244	22139
848.379	21941
848.515	21899
848.65	21869
848.786	21831
848.921	21899
849.057	21968
849.192	22032
849.328	21793
849.463	21991
849.598	21759
849.734	21766
849.869	21686
850.004	21774
850.14	21557
850.275	21644
850.41	21504
850.545	21576
850.68	21488
850.815	21545
850.95	21507
851.085	21880
851.22	21793
851.355	21492
851.49	21606
851.625	21564
851.76	21496
851.895	21561
852.03	21553
852.165	21618
852.299	21625
852.434	21656
852.569	21492
852.703	21488
852.838	21644
852.973	21583
853.107	21644
853.242	21488
853.376	21473
853.511	21294
853.645	21310
853.78	21557
853.914	21397
854.048	21370
854.183	21393
854.317	21534
854.451	21656
854.585	21298
854.72	21485
854.854	21408
854.988	21291
855.122	21332
855.256	21313
855.39	21389
855.524	21443
855.658	21447
855.792	21416
855.926	21439
856.06	21538
856.194	21450
856.327	21363
856.461	21294
856.595	21313
856.729	21492
856.862	21496
856.996	21450
857.13	21370
857.263	21439
857.397	21466
857.53	21310
857.664	21344
857.797	21454
857.931	21336
858.064	21317
858.197	21504
858.331	21378
858.464	21260
858.597	21310
858.731	21370
858.864	21401
858.997	21313
859.13	21310
859.263	21355
859.396	21557
859.529	21249
859.662	21313
859.795	21294
859.928	21298
860.061	21393
860.194	21443
860.327	21344
860.46	21321
860.592	21428
860.725	21389
860.858	21348
860.99	21348
861.123	21176
861.256	21249
861.388	21329
861.521	21968
861.653	21100
861.786	21123
861.918	21245
862.05	21135
862.183	21332
862.315	21302
862.447	21344
862.58	21264
862.712	21005
862.844	21047
862.976	21192
863.108	21089
863.24	21412
863.372	20948
863.504	20941
863.636	21074
863.768	21055
863.9	20933
864.032	20876
864.164	20967
864.296	20952
864.428	21142
864.559	21043
864.691	21104
864.823	20967
864.954	20895
865.086	20952
865.217	20948
865.349	20830
865.48	20849
865.612	20891
865.743	20979
865.875	20925
866.006	20781
866.137	20963
866.269	20838
866.4	20880
866.531	20857
866.662	20838
866.793	20868
866.924	20785
867.055	20826
867.186	20864
867.317	20769
867.448	20716
867.579	20644
867.71	20754
867.841	20743
867.972	20868
868.103	20788
868.233	20906
868.364	20880
868.495	20982
868.625	21127
868.756	21096
868.886	21001
869.017	21074
869.147	21283
869.278	21093
869.408	21077
869.539	21093
869.669	21058
869.799	21199
869.929	21112
870.06	21089
870.19	21340
870.32	21378
870.45	21340
870.58	21523
870.71	21713
870.84	21644
870.97	21507
871.1	21458
871.23	21553
871.36	21648
871.489	21622
871.619	21538
871.749	21648
871.879	21637
872.008	21766
872.138	21675
872.267	21751
872.397	21420
872.526	21485
872.656	21523
872.785	21526
872.915	21690
873.044	21690
873.173	21648
873.303	21717
873.432	21846
873.561	21690
873.69	21705
873.819	21648
873.948	21819
874.077	21690
874.206	21591
874.335	21728
874.464	21865
874.593	21869
874.722	21934
874.851	21918
874.979	21972
875.108	21956
875.237	21892
875.365	21819
875.494	21937
875.623	21899
875.751	22013
875.88	22051
876.008	22078
876.136	22040
876.265	22265
876.393	22447
876.521	22322
876.65	22268
876.778	22443
876.906	22265
877.034	22223
877.162	22177
877.29	22192
877.418	22295
877.546	22360
877.674	22177
877.802	22303
877.93	22200
878.058	22204
878.185	22284
878.313	22310
878.441	22306
878.568	22032
878.696	22291
878.824	22325
878.951	22474
879.079	22462
879.206	22527
879.333	22424
879.461	22246
879.588	22333
879.715	22417
879.842	22523
879.97	22333
880.097	22006
880.224	22078
880.351	22181
880.478	22078
880.605	22116
880.732	22105
880.859	22268
880.986	22116
881.112	22204
881.239	21979
881.366	21892
881.493	21808
881.619	21732
881.746	21743
881.872	21591
881.999	21572
882.125	21660
882.252	21667
882.378	21671
882.505	21728
882.631	21492
882.757	21355
882.883	21485
883.01	21447
883.136	21336
883.262	21161
883.388	21207
883.514	21336
883.64	21397
883.766	21294
883.892	21123
884.018	21180
884.143	21329
884.269	21367
884.395	21211
884.52	20910
884.646	21112
884.772	20986
884.897	20925
885.023	21043
885.148	21127
885.274	21154
885.399	21036
885.524	21047
885.65	21066
885.775	21135
885.9	20937
886.025	21245
886.15	21058
886.275	20883
886.4	20868
886.525	20963
886.65	20960
886.775	21036
886.9	21218
887.025	21207
887.149	21017
887.274	20807
887.399	20788
887.523	20697
887.648	20697
887.773	20727
887.897	20887
888.021	20800
888.146	20701
888.27	20876
888.395	20918
888.519	20731
888.643	20758
888.767	20762
888.891	20629
889.015	20644
889.139	20602
889.263	20495
889.387	20720
889.511	20823
889.635	20796
889.759	20560
889.883	20537
890.006	20522
890.13	20708
890.254	20423
890.377	20454
890.501	20347
890.624	20347
890.748	20343
890.871	20153
890.995	20122
891.118	20119
891.241	20073
891.364	20027
891.488	20130
891.611	20153
891.734	20145
891.857	20301
891.98	20077
892.103	20073
892.226	20172
892.349	20111
892.471	19852
892.594	20206
892.717	20103
892.839	20001
892.962	19974
893.085	20043
893.207	19951
893.33	19925
893.452	20024
893.575	20088
893.697	20119
893.819	20134
893.941	20180
894.064	20180
894.186	20020
894.308	19974
894.43	20126
894.552	20275
894.674	20077
894.796	19944
894.918	19940
895.04	19902
895.161	20081
895.283	19986
895.405	19875
895.526	19967
895.648	20183
895.769	20122
895.891	20107
896.012	20046
896.134	20161
896.255	20058
896.376	19963
896.498	20111
896.619	20077
896.74	20142
896.861	20130
896.982	20454
897.103	20537
897.224	20438
897.345	20377
897.466	20256
897.587	20256
897.708	20419
897.828	20298
897.949	20298
898.07	20088
898.19	20355
898.311	20404
898.431	20248
898.552	20176
898.672	20271
898.792	20301
898.913	20263
899.033	20103
899.153	19925
899.273	19974
899.393	19925
899.513	19997
899.633	20035
899.753	19986
899.873	19947
899.993	20020
900.113	19849
900.232	19875
900.352	19830
900.472	19788
900.591	19719
900.711	19738
900.83	19803
900.95	19845
901.069	19913
901.189	19685
901.308	19430
901.427	19373
901.546	19282
901.665	19411
901.784	19369
901.904	19175
902.023	19118
902.141	18878
902.26	18859
902.379	18935
902.498	18844
902.617	18783
902.735	18817
902.854	18810
902.973	18741
903.091	18517
903.21	18429
903.328	18525
903.446	18338
903.565	18289
903.683	18311
903.801	18190
903.919	18338
904.038	18266
904.156	18106
904.274	18129
904.392	17996
904.51	17908
904.627	18053
904.745	18060
904.863	18197
904.981	17878
905.098	17665
905.216	17703
905.334	17676
905.451	17684
905.569	17771
905.686	17737
905.803	17718
905.921	17501
906.038	17623
906.155	17463
906.272	17379
906.389	17368
906.506	17383
906.623	17288
906.74	17181
906.857	17136
906.974	17098
907.091	17288
907.208	17410
907.324	17166
907.441	17181
907.557	16980
907.674	16957
907.79	16717
907.907	16885
908.023	16995
908.139	16915
908.256	16786
908.372	16828
908.488	16744
908.604	16736
908.72	16672
908.836	16588
908.952	16634
909.068	16603
909.184	16611
909.3	16538
909.415	16542
909.531	16622
909.647	16352
909.762	16280
909.878	16276
909.993	16318
910.108	16272
910.224	16181
910.339	16299
910.454	16223
910.57	16128
910.685	16010
910.8	16329
910.915	16322
911.03	16109
911.145	15953
911.259	15865
911.374	15854
911.489	15842
911.604	15800
911.718	15698
911.833	15633
911.947	15667
912.062	15462
912.176	15595
912.291	15705
912.405	15713
912.519	15876
912.633	15880
912.748	15713
912.862	15576
912.976	15500
913.09	15287
913.204	15458
913.318	15466
913.431	15538
913.545	15466
913.659	15485
913.772	15485
913.886	15176
914	15264
914.113	15275
914.226	15279
914.34	15291
914.453	15043
914.566	15199
914.68	15146
914.793	15058
914.906	14986
915.019	14899
915.132	14792
915.245	14861
915.358	14979
915.47	14883
915.583	14891
915.696	14902
915.809	15028
915.921	14941
916.034	14823
916.146	14765
916.259	14849
916.371	14823
916.483	14823
916.595	14663
916.708	14648
916.82	14701
916.932	14682
917.044	14686
917.156	14644
917.268	14503
917.38	14526
917.491	14568
917.603	14438
917.715	14606
917.826	14743
917.938	14457
918.049	14389
918.161	14362
918.272	14644
918.384	14598
918.495	14526
918.606	14355
918.717	14199
918.828	14313
918.939	14263
919.05	14138
919.161	14225
919.272	14096
919.383	14107
919.494	14191
919.604	14434
919.715	14278
919.826	14123
919.936	14107
920.047	14396
920.157	14290
920.267	14431
920.378	14286
920.488	14233
920.598	14427
920.708	14522
920.818	14305
920.928	14400
921.038	14499
921.148	14374
921.258	14123
921.368	14008
921.477	13986
921.587	13928
921.697	13788
921.806	13993
921.916	13803
922.025	13651
922.134	13571
922.244	13556
922.353	13609
922.462	13499
922.571	13327
922.68	13194
922.789	13190
922.898	13228
923.007	13266
923.116	13232
923.224	13228
923.333	13198
923.442	13099
923.55	13076
923.659	13042
923.767	13050
923.876	13038
923.984	13099
924.092	12894
924.201	13034
924.309	13008
924.417	13042
924.525	12954
924.633	12894
924.741	13632
924.849	12715
924.956	12806
925.064	12707
925.172	12604
925.279	12684
925.387	12692
925.494	12654
925.602	12779
925.709	12692
925.816	12616
925.924	12627
926.031	12738
926.138	12486
926.245	12646
926.352	12627
926.459	12688
926.566	12703
926.673	12513
926.779	12422
926.886	12391
926.993	12235
927.099	12235
927.206	12159
927.312	12262
927.419	12228
927.525	12228
927.631	12296
927.737	12098
927.843	12129
927.95	11950
928.056	12064
928.162	12022
928.267	12068
928.373	12730
928.479	12110
928.585	11954
928.69	11992
928.796	11988
928.901	11942
929.007	11805
929.112	11893
929.218	11927
929.323	11756
929.428	11779
929.533	11935
929.638	11703
929.743	11722
929.848	11824
929.953	11638
930.058	11680
930.163	11452
930.267	11528
930.372	11634
930.477	11452
930.581	11653
930.685	11452
930.79	11341
930.894	11318
930.998	11322
931.103	11516
931.207	11045
931.311	11083
931.415	11029
931.519	10831
931.623	10687
