Data from test_V78500241_3390.txt Node
Date: Fri Mar 25 16:05:17 CST 2022
User: usil
Spectrometer: V785-0024
Trigger mode: 0
Integration Time (sec): 4.000000E-1
Scans to average: 1
Nonlinearity correction enabled: false
Boxcar width: 0
Storing dark spectrum: false
XAxis mode: Wavelengths
Number of Pixels in Spectrum: 1024
>>>>>Begin Spectral Data<<<<<
801.071	28736
801.214	28634
801.356	28417
801.499	28348
801.641	28329
801.783	28249
801.926	28318
802.068	28474
802.211	28158
802.353	28207
802.496	28211
802.638	27987
802.78	27998
802.923	27911
803.065	27850
803.208	27857
803.35	27994
803.492	28261
803.635	28192
803.777	28078
803.919	28135
804.061	28565
804.204	28200
804.346	28040
804.488	28013
804.63	28310
804.773	28017
804.915	28318
805.057	28508
805.199	28143
805.341	28314
805.483	28329
805.626	28371
805.768	28147
805.91	28333
806.052	28284
806.194	28360
806.336	28535
806.478	28238
806.62	28295
806.762	28611
806.904	28736
807.046	28915
807.188	28839
807.33	28805
807.472	28919
807.614	28664
807.756	28850
807.898	28592
808.04	28569
808.182	28569
808.324	28759
808.465	28710
808.607	29006
808.749	29018
808.891	29239
809.033	29193
809.174	29197
809.316	28953
809.458	29147
809.6	29071
809.741	29220
809.883	29208
810.025	29414
810.166	29330
810.308	29421
810.45	29349
810.591	29345
810.733	29147
810.875	28984
811.016	29022
811.158	28881
811.299	29162
811.441	29200
811.582	29277
811.724	29124
811.865	29090
812.007	29128
812.148	29117
812.29	29086
812.431	29250
812.573	29444
812.714	29627
812.855	29627
812.997	29661
813.138	29699
813.279	29623
813.421	29642
813.562	29627
813.703	29444
813.845	29303
813.986	29083
814.127	28888
814.268	28858
814.41	28888
814.551	28771
814.692	28961
814.833	28710
814.974	28706
815.115	28805
815.256	28550
815.397	28786
815.539	28634
815.68	28637
815.821	28500
815.962	28668
816.103	28698
816.244	28421
816.385	28519
816.526	28489
816.666	28272
816.807	27934
816.948	28284
817.089	28204
817.23	28067
817.371	28036
817.512	27998
817.653	28097
817.793	28105
817.934	27960
818.075	28101
818.216	28230
818.356	28032
818.497	28169
818.638	27747
818.778	27842
818.919	27949
819.06	27930
819.2	28097
819.341	28124
819.481	28055
819.622	28207
819.762	28489
819.903	28424
820.043	28352
820.184	28219
820.324	28131
820.465	28280
820.605	28268
820.746	28112
820.886	28280
821.026	28059
821.167	28051
821.307	28352
821.447	28143
821.588	28051
821.728	27994
821.868	27819
822.008	27572
822.149	27481
822.289	27545
822.429	27492
822.569	27355
822.709	27260
822.849	27176
822.99	26937
823.13	26906
823.27	26971
823.41	26891
823.55	26975
823.69	27009
823.83	26838
823.97	26773
824.11	26739
824.25	26640
824.389	26724
824.529	26849
824.669	26716
824.809	26830
824.949	26845
825.089	26910
825.228	26689
825.368	26651
825.508	26541
825.648	26731
825.787	26579
825.927	26697
826.067	26560
826.206	26541
826.346	26708
826.485	26640
826.625	26625
826.765	26693
826.904	26613
827.044	26484
827.183	26492
827.323	26362
827.462	26427
827.601	26347
827.741	26419
827.88	26423
828.02	26237
828.159	26343
828.298	26381
828.437	26370
828.577	26294
828.716	26438
828.855	26377
828.994	26050
829.134	26077
829.273	26062
829.412	26043
829.551	25947
829.69	26103
829.829	26126
829.968	26069
830.107	26233
830.246	26016
830.385	25966
830.524	25875
830.663	25852
830.802	25830
830.941	25635
831.08	25567
831.219	25765
831.357	25769
831.496	25841
831.635	25594
831.774	25719
831.913	25537
832.051	25419
832.19	25384
832.329	25468
832.467	25384
832.606	25297
832.744	25225
832.883	25301
833.022	25479
833.16	25343
833.299	25373
833.437	25335
833.576	25403
833.714	25369
833.852	25407
833.991	25384
834.129	25487
834.267	25502
834.406	25388
834.544	25388
834.682	25346
834.821	25373
834.959	25575
835.097	25362
835.235	25453
835.373	25373
835.511	25499
835.65	25232
835.788	25312
835.926	25046
836.064	25015
836.202	25160
836.34	25141
836.478	25339
836.615	25293
836.753	25137
836.891	25206
837.029	25259
837.167	25171
837.305	25213
837.443	25141
837.58	25084
837.718	25129
837.856	25053
837.993	24886
838.131	25061
838.269	24954
838.406	25031
838.544	24894
838.681	24608
838.819	24741
838.956	24433
839.094	24509
839.231	24505
839.369	24745
839.506	24916
839.643	24661
839.781	24505
839.918	24445
840.055	24631
840.193	24464
840.33	24391
840.467	24372
840.604	24483
840.742	24684
840.879	24148
841.016	24285
841.153	24353
841.29	24372
841.427	24342
841.564	24422
841.701	24429
841.838	24391
841.975	24251
842.112	24254
842.249	24277
842.385	24091
842.522	24426
842.659	24216
842.796	24205
842.933	24201
843.069	24129
843.206	24041
843.343	24262
843.479	24174
843.616	24201
843.752	23946
843.889	23984
844.025	24102
844.162	23897
844.298	24045
844.435	23897
844.571	23870
844.708	23840
844.844	24053
844.98	23992
845.117	23988
845.253	23859
845.389	23661
845.525	23767
845.661	23748
845.798	23668
845.934	23729
846.07	23649
846.206	23726
846.342	23783
846.478	23535
846.614	23440
846.75	23402
846.886	23391
847.022	23269
847.158	23299
847.294	23326
847.429	23478
847.565	23307
847.701	23676
847.837	23052
847.972	23048
848.108	23220
848.244	23258
848.379	23083
848.515	23044
848.65	22869
848.786	22881
848.921	23048
849.057	22911
849.192	23090
849.328	22972
849.463	22984
849.598	22889
849.734	22816
849.869	22740
850.004	22782
850.14	22828
850.275	22649
850.41	22706
850.545	22748
850.68	22656
850.815	22809
850.95	22599
851.085	22892
851.22	22809
851.355	22687
851.49	22805
851.625	22717
851.76	22664
851.895	22649
852.03	22660
852.165	22691
852.299	22790
852.434	22889
852.569	22755
852.703	22759
852.838	22744
852.973	22930
853.107	22862
853.242	22710
853.376	22645
853.511	22535
853.645	22508
853.78	22675
853.914	22535
854.048	22527
854.183	22569
854.317	22527
854.451	22698
854.585	22626
854.72	22637
854.854	22565
854.988	22531
855.122	22546
855.256	22546
855.39	22497
855.524	22687
855.658	22569
855.792	22618
855.926	22611
856.06	22691
856.194	22679
856.327	22470
856.461	22580
856.595	22485
856.729	22580
856.862	22656
856.996	22565
857.13	22550
857.263	22687
857.397	22660
857.53	22584
857.664	22615
857.797	22535
857.931	22599
858.064	22596
858.197	22622
858.331	22565
858.464	22474
858.597	22535
858.731	22546
858.864	22557
858.997	22493
859.13	22557
859.263	22569
859.396	22645
859.529	22466
859.662	22432
859.795	22470
859.928	22599
860.061	22653
860.194	22615
860.327	22596
860.46	22538
860.592	22630
860.725	22752
860.858	22596
860.99	22611
861.123	22596
861.256	22557
861.388	22569
861.521	23337
861.653	22424
861.786	22337
861.918	22440
862.05	22447
862.183	22322
862.315	22546
862.447	22538
862.58	22405
862.712	22299
862.844	22211
862.976	22409
863.108	22455
863.24	22752
863.372	22166
863.504	22238
863.636	22154
863.768	22329
863.9	22284
864.032	22166
864.164	22265
864.296	22242
864.428	22344
864.559	22306
864.691	22363
864.823	22367
864.954	22257
865.086	22367
865.217	22154
865.349	22097
865.48	22188
865.612	22101
865.743	22303
865.875	22200
866.006	22177
866.137	22051
866.269	22105
866.4	22051
866.531	22067
866.662	22120
866.793	22086
866.924	22067
867.055	22097
867.186	22139
867.317	22048
867.448	21949
867.579	22017
867.71	21987
867.841	21975
867.972	22135
868.103	22055
868.233	22078
868.364	22166
868.495	22226
868.625	22303
868.756	22382
868.886	22196
869.017	22363
869.147	22348
869.278	22421
869.408	22421
869.539	22402
869.669	22451
869.799	22455
869.929	22455
870.06	22348
870.19	22744
870.32	22675
870.45	22713
870.58	22946
870.71	22759
870.84	22767
870.97	22584
871.1	22683
871.23	22767
871.36	22923
871.489	22885
871.619	22938
871.749	22930
871.879	22873
872.008	23132
872.138	22957
872.267	22968
872.397	22858
872.526	22850
872.656	22755
872.785	22763
872.915	22942
873.044	23159
873.173	22889
873.303	22904
873.432	23086
873.561	23067
873.69	22889
873.819	22930
873.948	23056
874.077	22911
874.206	22835
874.335	22869
874.464	22999
874.593	23273
874.722	23086
874.851	23124
874.979	23200
875.108	23174
875.237	23071
875.365	23079
875.494	23086
875.623	23204
875.751	23094
875.88	23174
876.008	23322
876.136	23299
876.265	23570
876.393	23573
876.521	23539
876.65	23585
876.778	23490
876.906	23440
877.034	23512
877.162	23520
877.29	23436
877.418	23539
877.546	23520
877.674	23467
877.802	23364
877.93	23406
878.058	23364
878.185	23379
878.313	23406
878.441	23490
878.568	23353
878.696	23478
878.824	23589
878.951	23596
879.079	23615
879.206	23581
879.333	23684
879.461	23493
879.588	23668
879.715	23604
879.842	23760
879.97	23577
880.097	23250
880.224	23280
880.351	23292
880.478	23341
880.605	23368
880.732	23360
880.859	23474
880.986	23299
881.112	23311
881.239	23269
881.366	23113
881.493	22938
881.619	22900
881.746	22991
881.872	22873
881.999	22702
882.125	22755
882.252	22889
882.378	22725
882.505	23048
882.631	22672
882.757	22611
882.883	22637
883.01	22531
883.136	22504
883.262	22538
883.388	22265
883.514	22485
883.64	22656
883.766	22436
883.892	22257
884.018	22272
884.143	22512
884.269	22588
884.395	22295
884.52	22242
884.646	22150
884.772	22131
884.897	22150
885.023	22287
885.148	22322
885.274	22265
885.399	22223
885.524	22215
885.65	22188
885.775	22158
885.9	22139
886.025	22147
886.15	22280
886.275	22124
886.4	22032
886.525	22135
886.65	22044
886.775	22021
886.9	22204
887.025	22303
887.149	22116
887.274	21876
887.399	21812
887.523	21876
887.648	21842
887.773	21903
887.897	22101
888.021	22029
888.146	22040
888.27	22112
888.395	21972
888.519	21956
888.643	22059
888.767	21812
888.891	21762
889.015	21736
889.139	21690
889.263	21580
889.387	21842
889.511	21895
889.635	21903
889.759	21739
889.883	21751
890.006	21732
890.13	21728
890.254	21603
890.377	21755
890.501	21580
890.624	21306
890.748	21553
890.871	21313
890.995	21245
891.118	21192
891.241	21344
891.364	21359
891.488	21329
891.611	21207
891.734	21355
891.857	21264
891.98	21348
892.103	21298
892.226	21272
892.349	21302
892.471	21005
892.594	21146
892.717	21100
892.839	21108
892.962	21214
893.085	21207
893.207	21275
893.33	20963
893.452	21089
893.575	21138
893.697	21184
893.819	21249
893.941	21359
894.064	21283
894.186	21176
894.308	21047
894.43	21173
894.552	21272
894.674	21188
894.796	21096
894.918	21039
895.04	21055
895.161	21138
895.283	21249
895.405	21089
895.526	21230
895.648	21116
895.769	21237
895.891	21096
896.012	21321
896.134	21119
896.255	21096
896.376	21089
896.498	21070
896.619	21131
896.74	21195
896.861	21161
896.982	21462
897.103	21583
897.224	21405
897.345	21374
897.466	21348
897.587	21348
897.708	21477
897.828	21336
897.949	21283
898.07	21070
898.19	21230
898.311	21386
898.431	21317
898.552	21401
898.672	21272
898.792	21408
898.913	21329
899.033	21199
899.153	21222
899.273	20971
899.393	21028
899.513	21169
899.633	21127
899.753	21036
899.873	21112
899.993	21104
900.113	21074
900.232	21020
900.352	20963
900.472	20960
900.591	20674
900.711	20979
900.83	20788
900.95	20845
901.069	20925
901.189	20716
901.308	20511
901.427	20347
901.546	20396
901.665	20415
901.784	20446
901.904	20256
902.023	20214
902.141	20065
902.26	19917
902.379	20005
902.498	19883
902.617	19826
902.735	19932
902.854	19788
902.973	19715
903.091	19578
903.21	19533
903.328	19556
903.446	19468
903.565	19232
903.683	19285
903.801	19301
903.919	19422
904.038	19266
904.156	19095
904.274	19251
904.392	19057
904.51	19057
904.627	19190
904.745	19148
904.863	19183
904.981	18791
905.098	18745
905.216	18817
905.334	18798
905.451	18795
905.569	18745
905.686	18833
905.803	18825
905.921	18570
906.038	18635
906.155	18506
906.272	18464
906.389	18483
906.506	18315
906.623	18262
906.74	18281
906.857	18270
906.974	18190
907.091	18285
907.208	18445
907.324	18357
907.441	18186
907.557	18079
907.674	18026
907.79	17977
907.907	17939
908.023	18030
908.139	17954
908.256	17996
908.372	17935
908.488	17828
908.604	17699
908.72	17695
908.836	17710
908.952	17767
909.068	17657
909.184	17851
909.3	17634
909.415	17805
909.531	17684
909.647	17391
909.762	17433
909.878	17364
909.993	17459
910.108	17364
910.224	17337
910.339	17387
910.454	17277
910.57	17189
910.685	17155
910.8	17345
910.915	17318
911.03	17216
911.145	17014
911.259	17071
911.374	17071
911.489	16999
911.604	16942
911.718	16771
911.833	16771
911.947	16679
912.062	16580
912.176	16721
912.291	16755
912.405	16713
912.519	16930
912.633	17022
912.748	16706
912.862	16687
912.976	16626
913.09	16447
913.204	16519
913.318	16580
913.431	16645
913.545	16630
913.659	16558
913.772	16561
913.886	16394
914	16363
914.113	16466
914.226	16455
914.34	16398
914.453	16249
914.566	16352
914.68	16150
914.793	16204
914.906	15956
915.019	15846
915.132	15972
915.245	15953
915.358	15857
915.47	15816
915.583	15842
915.696	15869
915.809	15983
915.921	16063
916.034	15827
916.146	15876
916.259	15736
916.371	15926
916.483	15899
916.595	15789
916.708	15652
916.82	15682
916.932	15682
917.044	15599
917.156	15603
917.268	15557
917.38	15485
917.491	15458
917.603	15488
917.715	15530
917.826	15618
917.938	15481
918.049	15344
918.161	15469
918.272	15629
918.384	15637
918.495	15481
918.606	15294
918.717	15291
918.828	15382
918.939	15264
919.05	15180
919.161	15211
919.272	15074
919.383	15173
919.494	15237
919.604	15523
919.715	15230
919.826	15138
919.936	15245
920.047	15260
920.157	15184
920.267	15458
920.378	15211
920.488	15180
920.598	15439
920.708	15515
920.818	15325
920.928	15447
921.038	15572
921.148	15428
921.258	15180
921.368	15081
921.477	15009
921.587	14975
921.697	14845
921.806	15051
921.916	14845
922.025	14686
922.134	14648
922.244	14522
922.353	14735
922.462	14480
922.571	14408
922.68	14286
922.789	14286
922.898	14282
923.007	14290
923.116	14256
923.224	14183
923.333	14259
923.442	14134
923.55	14024
923.659	14111
923.767	14126
923.876	13963
923.984	14035
924.092	13944
924.201	14035
924.309	13925
924.417	13993
924.525	13887
924.633	13932
924.741	14845
924.849	13723
924.956	13784
925.064	13727
925.172	13636
925.279	13655
925.387	13643
925.494	13613
925.602	13704
925.709	13704
925.816	13514
925.924	13586
926.031	13700
926.138	13582
926.245	13552
926.352	13506
926.459	13647
926.566	13647
926.673	13552
926.779	13362
926.886	13339
926.993	13304
927.099	13206
927.206	13156
927.312	13187
927.419	13183
927.525	13145
927.631	13149
927.737	13053
927.843	12989
927.95	12909
928.056	12947
928.162	13088
928.267	12966
928.373	13529
928.479	13050
928.585	12806
928.69	12951
928.796	12943
928.901	12852
929.007	12707
929.112	12825
929.218	12798
929.323	12677
929.428	12730
929.533	12844
929.638	12662
929.743	12642
929.848	12650
929.953	12669
930.058	12570
930.163	12365
930.267	12399
930.372	12475
930.477	12292
930.581	12551
930.685	12486
930.79	12258
930.894	12319
930.998	12224
931.103	12190
931.207	12011
931.311	11882
931.415	11760
931.519	11680
931.623	11627
