Data from test_V78500241_3080.txt Node
Date: Fri Mar 25 16:03:08 CST 2022
User: usil
Spectrometer: V785-0024
Trigger mode: 0
Integration Time (sec): 4.000000E-1
Scans to average: 1
Nonlinearity correction enabled: false
Boxcar width: 0
Storing dark spectrum: false
XAxis mode: Wavelengths
Number of Pixels in Spectrum: 1024
>>>>>Begin Spectral Data<<<<<
801.071	28790
801.214	28706
801.356	28573
801.499	28519
801.641	28436
801.783	28329
801.926	28363
802.068	28322
802.211	28314
802.353	28318
802.496	28215
802.638	28059
802.78	27983
802.923	28112
803.065	28029
803.208	27953
803.35	28093
803.492	28242
803.635	28265
803.777	28211
803.919	28268
804.061	28675
804.204	28341
804.346	28177
804.488	28158
804.63	28356
804.773	28246
804.915	28265
805.057	28485
805.199	28421
805.341	28481
805.483	28508
805.626	28527
805.768	28200
805.91	28390
806.052	28634
806.194	28409
806.336	28538
806.478	28538
806.62	28599
806.762	28626
806.904	28698
807.046	28957
807.188	29064
807.33	28965
807.472	29014
807.614	28953
807.756	28980
807.898	28854
808.04	28744
808.182	28694
808.324	28752
808.465	28782
808.607	29067
808.749	29155
808.891	29189
809.033	29395
809.174	29223
809.316	28904
809.458	29075
809.6	29136
809.741	29273
809.883	29383
810.025	29391
810.166	29452
810.308	29467
810.45	29429
810.591	29296
810.733	29250
810.875	29235
811.016	29128
811.158	29151
811.299	29326
811.441	29208
811.582	29410
811.724	29258
811.865	29216
812.007	29140
812.148	29216
812.29	29147
812.431	29436
812.573	29554
812.714	29554
812.855	29596
812.997	29847
813.138	29958
813.279	29885
813.421	29783
813.562	29627
813.703	29585
813.845	29406
813.986	29109
814.127	28904
814.268	28885
814.41	29029
814.551	28881
814.692	29033
814.833	28763
814.974	28968
815.115	28858
815.256	28797
815.397	28790
815.539	28786
815.68	28736
815.821	28687
815.962	28736
816.103	28744
816.244	28641
816.385	28478
816.526	28527
816.666	28333
816.807	28375
816.948	28249
817.089	28413
817.23	28272
817.371	28219
817.512	28272
817.653	28280
817.793	28215
817.934	28185
818.075	28272
818.216	28226
818.356	28287
818.497	28109
818.638	28013
818.778	28021
818.919	27934
819.06	28074
819.2	28181
819.341	28287
819.481	28196
819.622	28428
819.762	28653
819.903	28535
820.043	28367
820.184	28314
820.324	28344
820.465	28443
820.605	28474
820.746	28280
820.886	28226
821.026	28337
821.167	28341
821.307	28493
821.447	28147
821.588	28150
821.728	28074
821.868	27850
822.008	27831
822.149	27682
822.289	27732
822.429	27519
822.569	27450
822.709	27351
822.849	27184
822.99	27104
823.13	27207
823.27	27195
823.41	26956
823.55	26948
823.69	27142
823.83	27093
823.97	26963
824.11	26781
824.25	26826
824.389	26940
824.529	26914
824.669	26807
824.809	26933
824.949	27009
825.089	27013
825.228	26876
825.368	26739
825.508	26697
825.648	26731
825.787	26830
825.927	26781
826.067	26777
826.206	26819
826.346	26891
826.485	26899
826.625	26735
826.765	26925
826.904	26864
827.044	26530
827.183	26473
827.323	26450
827.462	26663
827.601	26526
827.741	26427
827.88	26613
828.02	26408
828.159	26522
828.298	26549
828.437	26507
828.577	26476
828.716	26396
828.855	26305
828.994	26172
829.134	26126
829.273	26229
829.412	26130
829.551	26054
829.69	26229
829.829	26103
829.968	26256
830.107	26244
830.246	26218
830.385	26065
830.524	25997
830.663	25982
830.802	25811
830.941	25856
831.08	25921
831.219	25947
831.357	25879
831.496	25966
831.635	25746
831.774	25655
831.913	25552
832.051	25468
832.19	25571
832.329	25662
832.467	25540
832.606	25453
832.744	25445
832.883	25365
833.022	25381
833.16	25438
833.299	25487
833.437	25518
833.576	25510
833.714	25502
833.852	25533
833.991	25514
834.129	25635
834.267	25518
834.406	25483
834.544	25655
834.682	25609
834.821	25540
834.959	25704
835.097	25426
835.235	25495
835.373	25430
835.511	25578
835.65	25384
835.788	25487
835.926	25297
836.064	24985
836.202	25183
836.34	25365
836.478	25285
836.615	25240
836.753	25362
836.891	25400
837.029	25426
837.167	25209
837.305	25244
837.443	25251
837.58	25141
837.718	25225
837.856	25190
837.993	25004
838.131	25156
838.269	25107
838.406	25057
838.544	25027
838.681	24768
838.819	24700
838.956	24601
839.094	24559
839.231	24639
839.369	24817
839.506	25053
839.643	24890
839.781	24612
839.918	24566
840.055	24661
840.193	24707
840.33	24388
840.467	24544
840.604	24585
840.742	24730
840.879	24509
841.016	24555
841.153	24498
841.29	24426
841.427	24441
841.564	24585
841.701	24521
841.838	24525
841.975	24350
842.112	24467
842.249	24334
842.385	24311
842.522	24555
842.659	24353
842.796	24247
842.933	24353
843.069	24117
843.206	24235
843.343	24258
843.479	24228
843.616	24205
843.752	24110
843.889	24209
844.025	24125
844.162	24049
844.298	24125
844.435	24102
844.571	24060
844.708	23958
844.844	24239
844.98	24110
845.117	24186
845.253	23961
845.389	23904
845.525	23920
845.661	23798
845.798	23828
845.934	23961
846.07	23668
846.206	23687
846.342	23832
846.478	23752
846.614	23661
846.75	23376
846.886	23539
847.022	23577
847.158	23528
847.294	23505
847.429	23592
847.565	23486
847.701	23722
847.837	23254
847.972	23273
848.108	23425
848.244	23307
848.379	23220
848.515	23090
848.65	23098
848.786	23033
848.921	23006
849.057	23265
849.192	23178
849.328	23075
849.463	23094
849.598	23155
849.734	22869
849.869	23064
850.004	22930
850.14	22934
850.275	22957
850.41	22824
850.545	22824
850.68	22877
850.815	23018
850.95	22820
851.085	23086
851.22	23022
851.355	22900
851.49	22938
851.625	22839
851.76	22725
851.895	22797
852.03	22713
852.165	22850
852.299	22858
852.434	22915
852.569	22873
852.703	22934
852.838	22976
852.973	23003
853.107	22927
853.242	22858
853.376	22626
853.511	22580
853.645	22725
853.78	22896
853.914	22687
854.048	22660
854.183	22596
854.317	22831
854.451	22873
854.585	22675
854.72	22782
854.854	22729
854.988	22519
855.122	22641
855.256	22554
855.39	22618
855.524	22733
855.658	22702
855.792	22664
855.926	22725
856.06	22630
856.194	22736
856.327	22752
856.461	22618
856.595	22607
856.729	22691
856.862	22668
856.996	22691
857.13	22702
857.263	22858
857.397	22805
857.53	22767
857.664	22702
857.797	22774
857.931	22858
858.064	22649
858.197	22763
858.331	22599
858.464	22691
858.597	22481
858.731	22698
858.864	22580
858.997	22607
859.13	22668
859.263	22675
859.396	22839
859.529	22653
859.662	22508
859.795	22554
859.928	22706
860.061	22740
860.194	22733
860.327	22649
860.46	22637
860.592	22717
860.725	22862
860.858	22717
860.99	22717
861.123	22622
861.256	22596
861.388	22645
861.521	23391
861.653	22565
861.786	22421
861.918	22561
862.05	22550
862.183	22538
862.315	22550
862.447	22752
862.58	22500
862.712	22382
862.844	22341
862.976	22375
863.108	22512
863.24	22786
863.372	22367
863.504	22295
863.636	22440
863.768	22451
863.9	22390
864.032	22363
864.164	22382
864.296	22443
864.428	22542
864.559	22519
864.691	22314
864.823	22382
864.954	22329
865.086	22268
865.217	22207
865.349	22196
865.48	22299
865.612	22249
865.743	22337
865.875	22299
866.006	22246
866.137	22162
866.269	22386
866.4	22295
866.531	22131
866.662	22207
866.793	22200
866.924	22226
867.055	22257
867.186	22215
867.317	22325
867.448	22109
867.579	22139
867.71	22109
867.841	22048
867.972	22253
868.103	22112
868.233	22143
868.364	22204
868.495	22306
868.625	22455
868.756	22504
868.886	22409
869.017	22474
869.147	22546
869.278	22512
869.408	22459
869.539	22428
869.669	22554
869.799	22440
869.929	22561
870.06	22599
870.19	22664
870.32	22755
870.45	22706
870.58	22869
870.71	22892
870.84	22991
870.97	22778
871.1	22873
871.23	22965
871.36	22938
871.489	22911
871.619	22991
871.749	23105
871.879	23155
872.008	23102
872.138	22965
872.267	23052
872.397	23090
872.526	22843
872.656	22877
872.785	22858
872.915	23006
873.044	23105
873.173	23064
873.303	23086
873.432	23261
873.561	23208
873.69	22934
873.819	23166
873.948	23128
874.077	23029
874.206	23086
874.335	23041
874.464	23105
874.593	23307
874.722	23220
874.851	23265
874.979	23265
875.108	23220
875.237	23105
875.365	23242
875.494	23261
875.623	23356
875.751	23284
875.88	23181
876.008	23284
876.136	23349
876.265	23729
876.393	23729
876.521	23722
876.65	23745
876.778	23703
876.906	23566
877.034	23619
877.162	23634
877.29	23585
877.418	23551
877.546	23543
877.674	23661
877.802	23585
877.93	23619
878.058	23592
878.185	23501
878.313	23665
878.441	23543
878.568	23383
878.696	23535
878.824	23665
878.951	23642
879.079	23859
879.206	23855
879.333	23832
879.461	23707
879.588	23714
879.715	23737
879.842	23988
879.97	23562
880.097	23478
880.224	23414
880.351	23391
880.478	23307
880.605	23417
880.732	23360
880.859	23642
880.986	23421
881.112	23318
881.239	23299
881.366	23113
881.493	23178
881.619	23044
881.746	23048
881.872	22991
881.999	22965
882.125	22961
882.252	23033
882.378	22938
882.505	23018
882.631	22755
882.757	22767
882.883	22710
883.01	22618
883.136	22664
883.262	22565
883.388	22592
883.514	22622
883.64	22683
883.766	22603
883.892	22386
884.018	22447
884.143	22550
884.269	22580
884.395	22394
884.52	22230
884.646	22303
884.772	22204
884.897	22249
885.023	22306
885.148	22318
885.274	22432
885.399	22405
885.524	22242
885.65	22318
885.775	22234
885.9	22257
886.025	22424
886.15	22318
886.275	22234
886.4	22158
886.525	22166
886.65	22162
886.775	22135
886.9	22291
887.025	22379
887.149	22219
887.274	22147
887.399	22166
887.523	22131
887.648	21949
887.773	22051
887.897	22139
888.021	22074
888.146	22036
888.27	22185
888.395	22097
888.519	22101
888.643	21994
888.767	22086
888.891	21960
889.015	21835
889.139	21987
889.263	21698
889.387	21922
889.511	21991
889.635	21937
889.759	21869
889.883	21819
890.006	21717
890.13	21850
890.254	21743
890.377	21694
890.501	21770
890.624	21614
890.748	21614
890.871	21485
890.995	21389
891.118	21386
891.241	21469
891.364	21439
891.488	21469
891.611	21351
891.734	21412
891.857	21340
891.98	21405
892.103	21462
892.226	21367
892.349	21264
892.471	21135
892.594	21264
892.717	21298
892.839	21226
892.962	21302
893.085	21264
893.207	21195
893.33	21146
893.452	21123
893.575	21374
893.697	21222
893.819	21310
893.941	21351
894.064	21249
894.186	21268
894.308	21089
894.43	21355
894.552	21420
894.674	21386
894.796	21230
894.918	21199
895.04	21241
895.161	21355
895.283	21291
895.405	21085
895.526	21146
895.648	21203
895.769	21180
895.891	21272
896.012	21283
896.134	21237
896.255	21252
896.376	21108
896.498	21291
896.619	21203
896.74	21203
896.861	21237
896.982	21572
897.103	21751
897.224	21386
897.345	21504
897.466	21256
897.587	21420
897.708	21538
897.828	21412
897.949	21370
898.07	21325
898.19	21325
898.311	21416
898.431	21283
898.552	21542
898.672	21443
898.792	21545
898.913	21393
899.033	21329
899.153	21180
899.273	21146
899.393	21131
899.513	21237
899.633	21108
899.753	21131
899.873	21157
899.993	21203
900.113	21146
900.232	21161
900.352	21180
900.472	20887
900.591	20834
900.711	20971
900.83	20864
900.95	20944
901.069	20994
901.189	20842
901.308	20613
901.427	20389
901.546	20488
901.665	20560
901.784	20454
901.904	20294
902.023	20237
902.141	20020
902.26	20039
902.379	20210
902.498	19909
902.617	19967
902.735	19997
902.854	19970
902.973	19845
903.091	19635
903.21	19765
903.328	19635
903.446	19529
903.565	19506
903.683	19434
903.801	19308
903.919	19381
904.038	19270
904.156	19274
904.274	19282
904.392	19194
904.51	19141
904.627	19244
904.745	19278
904.863	19244
904.981	18958
905.098	18882
905.216	18875
905.334	18932
905.451	18909
905.569	18909
905.686	18897
905.803	18863
905.921	18623
906.038	18753
906.155	18749
906.272	18566
906.389	18528
906.506	18414
906.623	18384
906.74	18353
906.857	18323
906.974	18315
907.091	18391
907.208	18509
907.324	18372
907.441	18323
907.557	18064
907.674	18152
907.79	18057
907.907	18034
908.023	18083
908.139	18163
908.256	18117
908.372	18022
908.488	17935
908.604	17954
908.72	17809
908.836	17821
908.952	17836
909.068	17870
909.184	17908
909.3	17836
909.415	17851
909.531	17832
909.647	17608
909.762	17497
909.878	17570
909.993	17532
910.108	17448
910.224	17448
910.339	17459
910.454	17311
910.57	17284
910.685	17296
910.8	17577
910.915	17516
911.03	17307
911.145	17105
911.259	17048
911.374	17140
911.489	17018
911.604	16949
911.718	16839
911.833	16793
911.947	16759
912.062	16634
912.176	16850
912.291	16805
912.405	16866
912.519	16999
912.633	17025
912.748	16835
912.862	16828
912.976	16748
913.09	16470
913.204	16569
913.318	16588
913.431	16641
913.545	16698
913.659	16759
913.772	16584
913.886	16550
914	16485
914.113	16474
914.226	16493
914.34	16474
914.453	16276
914.566	16386
914.68	16291
914.793	16322
914.906	16131
915.019	15926
915.132	15937
915.245	16021
915.358	16010
915.47	15994
915.583	16090
915.696	16006
915.809	16071
915.921	16010
916.034	15888
916.146	15861
916.259	15876
916.371	16032
916.483	15937
916.595	15793
916.708	15876
916.82	15705
916.932	15884
917.044	15701
917.156	15690
917.268	15542
917.38	15671
917.491	15526
917.603	15656
917.715	15720
917.826	15694
917.938	15454
918.049	15393
918.161	15561
918.272	15682
918.384	15709
918.495	15564
918.606	15359
918.717	15321
918.828	15313
918.939	15340
919.05	15332
919.161	15351
919.272	15207
919.383	15211
919.494	15325
919.604	15496
919.715	15386
919.826	15207
919.936	15359
920.047	15386
920.157	15294
920.267	15591
920.378	15310
920.488	15116
920.598	15496
920.708	15641
920.818	15408
920.928	15401
921.038	15622
921.148	15492
921.258	15218
921.368	15055
921.477	15043
921.587	14948
921.697	15028
921.806	15005
921.916	14895
922.025	14697
922.134	14644
922.244	14682
922.353	14724
922.462	14507
922.571	14488
922.68	14366
922.789	14301
922.898	14305
923.007	14195
923.116	14240
923.224	14298
923.333	14286
923.442	14130
923.55	14092
923.659	14100
923.767	14180
923.876	14100
923.984	14031
924.092	14054
924.201	14046
924.309	14084
924.417	14024
924.525	13963
924.633	13902
924.741	14716
924.849	13723
924.956	13917
925.064	13830
925.172	13552
925.279	13693
925.387	13727
925.494	13696
925.602	13826
925.709	13727
925.816	13578
925.924	13590
926.031	13624
926.138	13639
926.245	13586
926.352	13518
926.459	13696
926.566	13647
926.673	13544
926.779	13301
926.886	13415
926.993	13255
927.099	13206
927.206	13190
927.312	13149
927.419	13221
927.525	13126
927.631	13228
927.737	13137
927.843	13057
927.95	12935
928.056	13015
928.162	13042
928.267	13004
928.373	13712
928.479	13046
928.585	12867
928.69	12993
928.796	13050
928.901	12844
929.007	12749
929.112	12951
929.218	12875
929.323	12802
929.428	12753
929.533	12825
929.638	12715
929.743	12665
929.848	12779
929.953	12806
930.058	12589
930.163	12369
930.267	12513
930.372	12589
930.477	12388
930.581	12650
930.685	12486
930.79	12323
930.894	12426
930.998	12289
931.103	12418
931.207	12068
931.311	11874
931.415	11920
931.519	11668
931.623	11642
