Data from test_V78500241_2488.txt Node
Date: Fri Mar 25 15:59:02 CST 2022
User: usil
Spectrometer: V785-0024
Trigger mode: 0
Integration Time (sec): 4.000000E-1
Scans to average: 1
Nonlinearity correction enabled: false
Boxcar width: 0
Storing dark spectrum: false
XAxis mode: Wavelengths
Number of Pixels in Spectrum: 1024
>>>>>Begin Spectral Data<<<<<
801.071	28310
801.214	28200
801.356	27979
801.499	28048
801.641	27770
801.783	27964
801.926	27953
802.068	27903
802.211	27838
802.353	27812
802.496	27698
802.638	27515
802.78	27492
802.923	27523
803.065	27473
803.208	27443
803.35	27424
803.492	27561
803.635	27728
803.777	27606
803.919	27656
804.061	28044
804.204	27903
804.346	27625
804.488	27690
804.63	27922
804.773	27720
804.915	27736
805.057	27804
805.199	27694
805.341	27819
805.483	27831
805.626	27842
805.768	27816
805.91	27854
806.052	27873
806.194	27812
806.336	28131
806.478	27876
806.62	28013
806.762	28067
806.904	28284
807.046	28314
807.188	28318
807.33	28367
807.472	28306
807.614	28219
807.756	28249
807.898	28276
808.04	28044
808.182	28287
808.324	28284
808.465	28268
808.607	28440
808.749	28672
808.891	28603
809.033	28611
809.174	28637
809.316	28660
809.458	28489
809.6	28451
809.741	28607
809.883	28535
810.025	28801
810.166	28752
810.308	28866
810.45	28664
810.591	28763
810.733	28569
810.875	28523
811.016	28542
811.158	28546
811.299	28713
811.441	28763
811.582	28622
811.724	28554
811.865	28542
812.007	28542
812.148	28626
812.29	28626
812.431	28668
812.573	28854
812.714	29064
812.855	29147
812.997	29208
813.138	29349
813.279	29250
813.421	28968
813.562	29044
813.703	28896
813.845	28725
813.986	28485
814.127	28413
814.268	28249
814.41	28375
814.551	28082
814.692	28329
814.833	28204
814.974	28322
815.115	28253
815.256	28204
815.397	28249
815.539	28177
815.68	28036
815.821	27994
815.962	28051
816.103	28013
816.244	27880
816.385	27770
816.526	27812
816.666	27667
816.807	27504
816.948	27679
817.089	27553
817.23	27675
817.371	27481
817.512	27591
817.653	27523
817.793	27595
817.934	27447
818.075	27648
818.216	27644
818.356	27496
818.497	27363
818.638	27272
818.778	27218
818.919	27298
819.06	27348
819.2	27420
819.341	27424
819.481	27698
819.622	27751
819.762	27907
819.903	27899
820.043	27603
820.184	27705
820.324	27652
820.465	27675
820.605	27747
820.746	27663
820.886	27629
821.026	27587
821.167	27595
821.307	27564
821.447	27625
821.588	27466
821.728	27348
821.868	27214
822.008	26929
822.149	27116
822.289	26979
822.429	26739
822.569	26800
822.709	26735
822.849	26473
822.99	26552
823.13	26560
823.27	26377
823.41	26313
823.55	26100
823.69	26298
823.83	26362
823.97	26347
824.11	26096
824.25	26119
824.389	26149
824.529	26324
824.669	26237
824.809	26305
824.949	26244
825.089	26237
825.228	26282
825.368	26031
825.508	26050
825.648	26100
825.787	26031
825.927	26107
826.067	25997
826.206	26035
826.346	26020
826.485	26065
826.625	26103
826.765	26142
826.904	26282
827.044	25871
827.183	25780
827.323	25632
827.462	25712
827.601	25894
827.741	25693
827.88	25769
828.02	25727
828.159	25795
828.298	25826
828.437	25765
828.577	25677
828.716	25898
828.855	25696
828.994	25445
829.134	25491
829.273	25529
829.412	25362
829.551	25331
829.69	25529
829.829	25537
829.968	25449
830.107	25441
830.246	25487
830.385	25369
830.524	25422
830.663	25232
830.802	25099
830.941	24996
831.08	24939
831.219	25080
831.357	25019
831.496	25312
831.635	24970
831.774	25015
831.913	24977
832.051	24787
832.19	24795
832.329	24867
832.467	24673
832.606	24650
832.744	24650
832.883	24768
833.022	24585
833.16	24715
833.299	24658
833.437	24703
833.576	24814
833.714	24859
833.852	24806
833.991	24844
834.129	24966
834.267	24719
834.406	24856
834.544	24753
834.682	24776
834.821	24798
834.959	24867
835.097	24802
835.235	25012
835.373	24642
835.511	24616
835.65	24745
835.788	24631
835.926	24559
836.064	24517
836.202	24471
836.34	24749
836.478	24749
836.615	24517
836.753	24555
836.891	24635
837.029	24627
837.167	24559
837.305	24494
837.443	24407
837.58	24490
837.718	24475
837.856	24486
837.993	24372
838.131	24334
838.269	24254
838.406	24376
838.544	24163
838.681	24106
838.819	24110
838.956	23912
839.094	23805
839.231	23889
839.369	24121
839.506	24327
839.643	24136
839.781	23923
839.918	23931
840.055	23942
840.193	23855
840.33	23870
840.467	23874
840.604	23882
840.742	24057
840.879	23665
841.016	23756
841.153	23828
841.29	23908
841.427	23798
841.564	23912
841.701	23786
841.838	23684
841.975	23707
842.112	23665
842.249	23528
842.385	23592
842.522	23790
842.659	23573
842.796	23585
842.933	23627
843.069	23505
843.206	23554
843.343	23619
843.479	23554
843.616	23528
843.752	23421
843.889	23349
844.025	23455
844.162	23360
844.298	23459
844.435	23265
844.571	23360
844.708	23398
844.844	23703
844.98	23501
845.117	23448
845.253	23185
845.389	23155
845.525	23140
845.661	23258
845.798	23090
845.934	23143
846.07	23048
846.206	23239
846.342	23136
846.478	23044
846.614	22877
846.75	22812
846.886	22759
847.022	22683
847.158	22736
847.294	22767
847.429	22892
847.565	22805
847.701	23098
847.837	22611
847.972	22523
848.108	22573
848.244	22713
848.379	22333
848.515	22356
848.65	22405
848.786	22424
848.921	22508
849.057	22588
849.192	22417
849.328	22489
849.463	22344
849.598	22318
849.734	22356
849.869	22223
850.004	22188
850.14	22128
850.275	22192
850.41	22154
850.545	22025
850.68	22040
850.815	22177
850.95	22063
851.085	22268
851.22	22344
851.355	22196
851.49	22196
851.625	22226
851.76	22128
851.895	22162
852.03	22059
852.165	22139
852.299	22097
852.434	22234
852.569	22188
852.703	22139
852.838	22249
852.973	22268
853.107	22253
853.242	22116
853.376	21884
853.511	21835
853.645	21850
853.78	22135
853.914	21983
854.048	21945
854.183	22032
854.317	22090
854.451	22147
854.585	21880
854.72	22044
854.854	22082
854.988	21964
855.122	22006
855.256	21827
855.39	22013
855.524	22154
855.658	21907
855.792	21956
855.926	21991
856.06	22135
856.194	22166
856.327	21953
856.461	21884
856.595	21968
856.729	21861
856.862	22181
856.996	21937
857.13	22124
857.263	22067
857.397	22090
857.53	21991
857.664	22059
857.797	22101
857.931	22082
858.064	22013
858.197	22090
858.331	21907
858.464	22021
858.597	21823
858.731	22013
858.864	21930
858.997	21762
859.13	21994
859.263	21915
859.396	22017
859.529	22017
859.662	22017
859.795	21899
859.928	21907
860.061	22181
860.194	22223
860.327	22010
860.46	21968
860.592	22097
860.725	22036
860.858	22101
860.99	22051
861.123	22021
861.256	21998
861.388	21941
861.521	22607
861.653	21759
861.786	21778
861.918	21835
862.05	21819
862.183	21994
862.315	22021
862.447	21998
862.58	21865
862.712	21606
862.844	21762
862.976	21743
863.108	21774
863.24	22013
863.372	21652
863.504	21542
863.636	21736
863.768	21698
863.9	21751
864.032	21698
864.164	21675
864.296	21774
864.428	21713
864.559	21759
864.691	21736
864.823	21614
864.954	21701
865.086	21694
865.217	21557
865.349	21622
865.48	21572
865.612	21633
865.743	21675
865.875	21587
866.006	21462
866.137	21576
866.269	21454
866.4	21557
866.531	21553
866.662	21401
866.793	21469
866.924	21454
867.055	21481
867.186	21454
867.317	21488
867.448	21389
867.579	21416
867.71	21454
867.841	21477
867.972	21515
868.103	21530
868.233	21424
868.364	21492
868.495	21606
868.625	21739
868.756	21865
868.886	21656
869.017	21644
869.147	21698
869.278	21823
869.408	21759
869.539	21812
869.669	21819
869.799	21838
869.929	21907
870.06	21797
870.19	22181
870.32	21987
870.45	22059
870.58	22017
870.71	22196
870.84	22257
870.97	22204
871.1	22173
871.23	22303
871.36	22333
871.489	22295
871.619	22413
871.749	22310
871.879	22436
872.008	22405
872.138	22371
872.267	22337
872.397	22268
872.526	22143
872.656	22185
872.785	22219
872.915	22421
873.044	22424
873.173	22348
873.303	22402
873.432	22382
873.561	22481
873.69	22371
873.819	22325
873.948	22409
874.077	22367
874.206	22291
874.335	22386
874.464	22481
874.593	22649
874.722	22531
874.851	22527
874.979	22713
875.108	22683
875.237	22565
875.365	22466
875.494	22577
875.623	22706
875.751	22565
875.88	22611
876.008	22675
876.136	22809
876.265	22904
876.393	23140
876.521	22923
876.65	23094
876.778	22984
876.906	22991
877.034	23022
877.162	23003
877.29	22839
877.418	23060
877.546	23037
877.674	22839
877.802	22923
877.93	22862
878.058	22930
878.185	22805
878.313	22729
878.441	22858
878.568	22691
878.696	22885
878.824	22953
878.951	23056
879.079	23098
879.206	23151
879.333	22980
879.461	22965
879.588	23128
879.715	23174
879.842	23181
879.97	22991
880.097	22702
880.224	22755
880.351	22828
880.478	22824
880.605	22740
880.732	22869
880.859	22942
880.986	22748
881.112	22820
881.239	22664
881.366	22481
881.493	22371
881.619	22360
881.746	22348
881.872	22394
881.999	22405
882.125	22234
882.252	22382
882.378	22234
882.505	22352
882.631	22196
882.757	22059
882.883	22128
883.01	22158
883.136	22025
883.262	21774
883.388	21842
883.514	22067
883.64	22067
883.766	21956
883.892	21663
884.018	21827
884.143	22013
884.269	22044
884.395	21679
884.52	21568
884.646	21553
884.772	21682
884.897	21511
885.023	21671
885.148	21770
885.274	21686
885.399	21698
885.524	21732
885.65	21747
885.775	21679
885.9	21614
886.025	21736
886.15	21660
886.275	21652
886.4	21561
886.525	21580
886.65	21561
886.775	21656
886.9	21671
887.025	21907
887.149	21439
887.274	21534
887.399	21351
887.523	21424
887.648	21435
887.773	21397
887.897	21477
888.021	21447
888.146	21256
888.27	21583
888.395	21523
888.519	21488
888.643	21382
888.767	21473
888.891	21252
889.015	21188
889.139	21233
889.263	21093
889.387	21298
889.511	21378
889.635	21264
889.759	21161
889.883	21249
890.006	21127
890.13	21252
890.254	21127
890.377	21036
890.501	20967
890.624	20941
890.748	20960
890.871	20880
890.995	20697
891.118	20686
891.241	20743
891.364	20804
891.488	20880
891.611	20781
891.734	20682
891.857	20891
891.98	20762
892.103	20750
892.226	20754
892.349	20743
892.471	20583
892.594	20613
892.717	20648
892.839	20667
892.962	20708
893.085	20720
893.207	20708
893.33	20682
893.452	20659
893.575	20712
893.697	20583
893.819	20826
893.941	20887
894.064	20826
894.186	20545
894.308	20503
894.43	20785
894.552	20781
894.674	20765
894.796	20564
894.918	20663
895.04	20670
895.161	20811
895.283	20678
895.405	20473
895.526	20701
895.648	20598
895.769	20686
895.891	20705
896.012	20762
896.134	20644
896.255	20609
896.376	20613
896.498	20731
896.619	20739
896.74	20762
896.861	20807
896.982	21051
897.103	21161
897.224	20937
897.345	21020
897.466	20883
897.587	20853
897.708	21013
897.828	20868
897.949	20933
898.07	20785
898.19	20815
898.311	20982
898.431	20929
898.552	20804
898.672	20880
898.792	20910
898.913	20864
899.033	20830
899.153	20743
899.273	20545
899.393	20655
899.513	20598
899.633	20556
899.753	20682
899.873	20568
899.993	20625
900.113	20602
900.232	20648
900.352	20606
900.472	20351
900.591	20400
900.711	20427
900.83	20370
900.95	20518
901.069	20495
901.189	20214
901.308	20081
901.427	20001
901.546	20096
901.665	19989
901.784	19837
901.904	19833
902.023	19734
902.141	19632
902.26	19464
902.379	19525
902.498	19518
902.617	19384
902.735	19468
902.854	19506
902.973	19499
903.091	19179
903.21	19164
903.328	19141
903.446	19053
903.565	19080
903.683	18954
903.801	18905
903.919	18844
904.038	18871
904.156	18703
904.274	18791
904.392	18757
904.51	18715
904.627	18707
904.745	18627
904.863	18749
904.981	18506
905.098	18426
905.216	18353
905.334	18418
905.451	18471
905.569	18239
905.686	18414
905.803	18361
905.921	18178
906.038	18266
906.155	18182
906.272	18095
906.389	18057
906.506	17908
906.623	17977
906.74	17885
906.857	17893
906.974	17783
907.091	18007
907.208	18053
907.324	18022
907.441	17813
907.557	17623
907.674	17608
907.79	17608
907.907	17649
908.023	17649
908.139	17619
908.256	17562
908.372	17410
908.488	17467
908.604	17273
908.72	17376
908.836	17337
908.952	17303
909.068	17356
909.184	17425
909.3	17353
909.415	17353
909.531	17261
909.647	17018
909.762	17079
909.878	17045
909.993	17174
910.108	16946
910.224	16889
910.339	16987
910.454	16892
910.57	16911
910.685	16744
910.8	16991
910.915	17056
911.03	16725
911.145	16698
911.259	16588
911.374	16618
911.489	16569
911.604	16451
911.718	16253
911.833	16390
911.947	16268
912.062	16211
912.176	16428
912.291	16443
912.405	16417
912.519	16634
912.633	16531
912.748	16428
912.862	16424
912.976	16169
913.09	16078
913.204	16154
913.318	16116
913.431	16234
913.545	16219
913.659	16291
913.772	16059
913.886	16025
914	15888
914.113	16086
914.226	16086
914.34	16002
914.453	15888
914.566	15934
914.68	15766
914.793	15785
914.906	15599
915.019	15572
915.132	15496
915.245	15591
915.358	15625
915.47	15618
915.583	15580
915.696	15530
915.809	15622
915.921	15698
916.034	15412
916.146	15515
916.259	15389
916.371	15526
916.483	15405
916.595	15378
916.708	15310
916.82	15408
916.932	15439
917.044	15435
917.156	15378
917.268	15176
917.38	15275
917.491	15070
917.603	15241
917.715	15321
917.826	15291
917.938	15043
918.049	15081
918.161	15154
918.272	15310
918.384	15127
918.495	15077
918.606	14899
918.717	14891
918.828	14986
918.939	14929
919.05	14864
919.161	14952
919.272	14785
919.383	14815
919.494	14880
919.604	15108
919.715	15020
919.826	14853
919.936	14845
920.047	14941
920.157	14845
920.267	15009
920.378	14971
920.488	14925
920.598	15024
920.708	15138
920.818	15074
920.928	15058
921.038	15146
921.148	15146
921.258	14842
921.368	14861
921.477	14693
921.587	14564
921.697	14571
921.806	14617
921.916	14465
922.025	14324
922.134	14263
922.244	14248
922.353	14309
922.462	14126
922.571	14084
922.68	13982
922.789	13856
922.898	13849
923.007	13967
923.116	13928
923.224	13913
923.333	13925
923.442	13658
923.55	13715
923.659	13830
923.767	13788
923.876	13700
923.984	13712
924.092	13601
924.201	13674
924.309	13689
924.417	13597
924.525	13510
924.633	13544
924.741	14343
924.849	13396
924.956	13559
925.064	13308
925.172	13285
925.279	13365
925.387	13388
925.494	13259
925.602	13324
925.709	13354
925.816	13244
925.924	13266
926.031	13358
926.138	13251
926.245	13274
926.352	13084
926.459	13320
926.566	13297
926.673	13202
926.779	13065
926.886	13137
926.993	12920
927.099	12817
927.206	12783
927.312	12757
927.419	12920
927.525	12787
927.631	12810
927.737	12681
927.843	12730
927.95	12616
928.056	12810
928.162	12646
928.267	12715
928.373	13362
928.479	12741
928.585	12578
928.69	12585
928.796	12597
928.901	12460
929.007	12384
929.112	12559
929.218	12422
929.323	12391
929.428	12494
929.533	12578
929.638	12323
929.743	12323
929.848	12384
929.953	12323
930.058	12197
930.163	12019
930.267	12167
930.372	12262
930.477	11942
930.581	12308
930.685	12121
930.79	11950
930.894	12072
930.998	11920
931.103	12019
931.207	11714
931.311	11668
931.415	11524
931.519	11376
931.623	11318
