Data from test_V78500241_2646.txt Node
Date: Fri Mar 25 16:00:07 CST 2022
User: usil
Spectrometer: V785-0024
Trigger mode: 0
Integration Time (sec): 4.000000E-1
Scans to average: 1
Nonlinearity correction enabled: false
Boxcar width: 0
Storing dark spectrum: false
XAxis mode: Wavelengths
Number of Pixels in Spectrum: 1024
>>>>>Begin Spectral Data<<<<<
801.071	28120
801.214	28112
801.356	27698
801.499	27709
801.641	27713
801.783	27599
801.926	27717
802.068	27564
802.211	27523
802.353	27553
802.496	27386
802.638	27363
802.78	27184
802.923	27207
803.065	27150
803.208	27135
803.35	27298
803.492	27351
803.635	27363
803.777	27397
803.919	27564
804.061	27603
804.204	27462
804.346	27416
804.488	27367
804.63	27561
804.773	27427
804.915	27606
805.057	27747
805.199	27447
805.341	27553
805.483	27660
805.626	27576
805.768	27435
805.91	27591
806.052	27652
806.194	27568
806.336	27812
806.478	27519
806.62	27530
806.762	27747
806.904	27903
807.046	28204
807.188	28029
807.33	28143
807.472	28105
807.614	28070
807.756	27979
807.898	27854
808.04	27774
808.182	27914
808.324	27880
808.465	27945
808.607	28173
808.749	28268
808.891	28379
809.033	28634
809.174	28318
809.316	28158
809.458	28287
809.6	28337
809.741	28401
809.883	28443
810.025	28440
810.166	28580
810.308	28474
810.45	28470
810.591	28329
810.733	28344
810.875	28310
811.016	28238
811.158	28234
811.299	28303
811.441	28337
811.582	28417
811.724	28204
811.865	28322
812.007	28219
812.148	28284
812.29	28363
812.431	28481
812.573	28596
812.714	28569
812.855	28797
812.997	28938
813.138	28972
813.279	28805
813.421	28801
813.562	28713
813.703	28557
813.845	28341
813.986	28154
814.127	28082
814.268	28063
814.41	28059
814.551	27991
814.692	27972
814.833	27941
814.974	27876
815.115	27873
815.256	27709
815.397	27842
815.539	27861
815.68	27789
815.821	27739
815.962	27728
816.103	27778
816.244	27633
816.385	27496
816.526	27553
816.666	27268
816.807	27112
816.948	27310
817.089	27260
817.23	27294
817.371	27081
817.512	27355
817.653	27332
817.793	27096
817.934	27291
818.075	27226
818.216	27230
818.356	27211
818.497	27150
818.638	26891
818.778	27085
818.919	26906
819.06	27165
819.2	27116
819.341	27241
819.481	27275
819.622	27340
819.762	27568
819.903	27591
820.043	27466
820.184	27310
820.324	27431
820.465	27507
820.605	27313
820.746	27367
820.886	27123
821.026	27306
821.167	27268
821.307	27397
821.447	27199
821.588	27154
821.728	27081
821.868	26929
822.008	26743
822.149	26857
822.289	26804
822.429	26495
822.569	26377
822.709	26492
822.849	26313
822.99	26267
823.13	26168
823.27	26126
823.41	26043
823.55	25879
823.69	26134
823.83	26100
823.97	25944
824.11	25932
824.25	25868
824.389	25769
824.529	25879
824.669	25860
824.809	26016
824.949	25913
825.089	26069
825.228	25928
825.368	25727
825.508	25700
825.648	25791
825.787	25799
825.927	25845
826.067	25677
826.206	25734
826.346	25795
826.485	25791
826.625	25864
826.765	25784
826.904	25677
827.044	25525
827.183	25430
827.323	25445
827.462	25476
827.601	25396
827.741	25525
827.88	25460
828.02	25171
828.159	25407
828.298	25438
828.437	25502
828.577	25312
828.716	25552
828.855	25327
828.994	25263
829.134	25122
829.273	25160
829.412	25141
829.551	25012
829.69	25118
829.829	25240
829.968	25206
830.107	25206
830.246	25217
830.385	25057
830.524	25057
830.663	24901
830.802	24909
830.941	24688
831.08	24734
831.219	24783
831.357	24814
831.496	25088
831.635	24802
831.774	24639
831.913	24776
832.051	24623
832.19	24582
832.329	24646
832.467	24376
832.606	24388
832.744	24304
832.883	24384
833.022	24452
833.16	24357
833.299	24342
833.437	24372
833.576	24589
833.714	24376
833.852	24544
833.991	24544
834.129	24631
834.267	24631
834.406	24448
834.544	24509
834.682	24608
834.821	24433
834.959	24631
835.097	24388
835.235	24601
835.373	24464
835.511	24608
835.65	24258
835.788	24289
835.926	24140
836.064	24148
836.202	24140
836.34	24353
836.478	24563
836.615	24300
836.753	24270
836.891	24483
837.029	24334
837.167	24319
837.305	24171
837.443	24315
837.58	24190
837.718	24243
837.856	24110
837.993	23999
838.131	24144
838.269	23923
838.406	24030
838.544	23977
838.681	23851
838.819	23786
838.956	23634
839.094	23672
839.231	23619
839.369	23847
839.506	24148
839.643	23786
839.781	23714
839.918	23589
840.055	23577
840.193	23562
840.33	23577
840.467	23467
840.604	23493
840.742	23847
840.879	23490
841.016	23490
841.153	23436
841.29	23608
841.427	23558
841.564	23554
841.701	23387
841.838	23512
841.975	23395
842.112	23395
842.249	23288
842.385	23349
842.522	23467
842.659	23383
842.796	23277
842.933	23200
843.069	23315
843.206	23242
843.343	23360
843.479	23296
843.616	23307
843.752	23105
843.889	23140
844.025	23273
844.162	22991
844.298	23140
844.435	23094
844.571	23018
844.708	23071
844.844	23181
844.98	23147
845.117	23037
845.253	23014
845.389	22961
845.525	23071
845.661	22915
845.798	22835
845.934	22934
846.07	22862
846.206	22885
846.342	22869
846.478	22805
846.614	22451
846.75	22428
846.886	22554
847.022	22634
847.158	22470
847.294	22485
847.429	22561
847.565	22489
847.701	22801
847.837	22344
847.972	22318
848.108	22352
848.244	22306
848.379	22253
848.515	21964
848.65	22268
848.786	22013
848.921	22120
849.057	22299
849.192	22287
849.328	22185
849.463	22044
849.598	22029
849.734	22025
849.869	22002
850.004	21968
850.14	21941
850.275	21869
850.41	21789
850.545	21953
850.68	21854
850.815	21915
850.95	21892
851.085	22074
851.22	22029
851.355	21922
851.49	21873
851.625	21892
851.76	21884
851.895	21800
852.03	21812
852.165	21949
852.299	21816
852.434	21975
852.569	21998
852.703	21861
852.838	22029
852.973	22063
853.107	21922
853.242	21770
853.376	21667
853.511	21679
853.645	21595
853.78	21705
853.914	21759
854.048	21637
854.183	21732
854.317	21739
854.451	21915
854.585	21637
854.72	21724
854.854	21679
854.988	21667
855.122	21667
855.256	21614
855.39	21705
855.524	21724
855.658	21816
855.792	21743
855.926	21663
856.06	21682
856.194	21781
856.327	21739
856.461	21698
856.595	21576
856.729	21644
856.862	21819
856.996	21713
857.13	21667
857.263	21926
857.397	21751
857.53	21667
857.664	21804
857.797	21747
857.931	21899
858.064	21751
858.197	21831
858.331	21785
858.464	21660
858.597	21587
858.731	21713
858.864	21622
858.997	21603
859.13	21747
859.263	21713
859.396	21804
859.529	21606
859.662	21652
859.795	21591
859.928	21774
860.061	21823
860.194	21960
860.327	21682
860.46	21778
860.592	21793
860.725	21983
860.858	21827
860.99	21595
861.123	21652
861.256	21713
861.388	21591
861.521	22584
861.653	21587
861.786	21492
861.918	21473
862.05	21587
862.183	21545
862.315	21724
862.447	21713
862.58	21549
862.712	21443
862.844	21359
862.976	21393
863.108	21458
863.24	21762
863.372	21397
863.504	21401
863.636	21450
863.768	21439
863.9	21408
864.032	21291
864.164	21317
864.296	21435
864.428	21580
864.559	21428
864.691	21447
864.823	21428
864.954	21298
865.086	21302
865.217	21393
865.349	21245
865.48	21359
865.612	21359
865.743	21382
865.875	21408
866.006	21249
866.137	21306
866.269	21237
866.4	21241
866.531	21332
866.662	21268
866.793	21176
866.924	21264
867.055	21332
867.186	21192
867.317	21233
867.448	21062
867.579	21310
867.71	21089
867.841	21146
867.972	21272
868.103	21184
868.233	21135
868.364	21226
868.495	21397
868.625	21610
868.756	21542
868.886	21462
869.017	21393
869.147	21637
869.278	21564
869.408	21606
869.539	21469
869.669	21515
869.799	21587
869.929	21648
870.06	21568
870.19	21846
870.32	21778
870.45	21857
870.58	21945
870.71	21903
870.84	21979
870.97	21918
871.1	21873
871.23	22074
871.36	22135
871.489	22017
871.619	21956
871.749	22143
871.879	22082
872.008	22055
872.138	22185
872.267	22029
872.397	21949
872.526	21854
872.656	21869
872.785	21835
872.915	22090
873.044	22055
873.173	22070
873.303	22074
873.432	22051
873.561	22261
873.69	22181
873.819	22181
873.948	22048
874.077	22048
874.206	22040
874.335	22097
874.464	22238
874.593	22299
874.722	22356
874.851	22379
874.979	22405
875.108	22443
875.237	22226
875.365	22169
875.494	22295
875.623	22493
875.751	22268
875.88	22405
876.008	22497
876.136	22485
876.265	22729
876.393	22816
876.521	22755
876.65	22805
876.778	22740
876.906	22782
877.034	22493
877.162	22592
877.29	22618
877.418	22717
877.546	22668
877.674	22630
877.802	22706
877.93	22668
878.058	22717
878.185	22493
878.313	22679
878.441	22641
878.568	22649
878.696	22653
878.824	22812
878.951	22683
879.079	22938
879.206	22957
879.333	22885
879.461	22828
879.588	22733
879.715	22976
879.842	22866
879.97	22675
880.097	22470
880.224	22421
880.351	22474
880.478	22565
880.605	22394
880.732	22466
880.859	22790
880.986	22443
881.112	22588
881.239	22371
881.366	22261
881.493	22257
881.619	22101
881.746	22207
881.872	21911
881.999	22017
882.125	21979
882.252	22128
882.378	22067
882.505	22109
882.631	21915
882.757	21679
882.883	21857
883.01	21781
883.136	21774
883.262	21614
883.388	21618
883.514	21728
883.64	21808
883.766	21633
883.892	21329
884.018	21679
884.143	21644
884.269	21770
884.395	21515
884.52	21458
884.646	21374
884.772	21310
884.897	21272
885.023	21389
885.148	21412
885.274	21507
885.399	21466
885.524	21435
885.65	21462
885.775	21519
885.9	21401
886.025	21458
886.15	21382
886.275	21351
886.4	21397
886.525	21306
886.65	21298
886.775	21344
886.9	21363
887.025	21549
887.149	21340
887.274	21260
887.399	21157
887.523	21104
887.648	21108
887.773	21108
887.897	21222
888.021	21108
888.146	21154
888.27	21214
888.395	21157
888.519	21203
888.643	21287
888.767	21275
888.891	21013
889.015	21013
889.139	21058
889.263	20948
889.387	20952
889.511	21119
889.635	21062
889.759	20975
889.883	20914
890.006	20952
890.13	20971
890.254	20918
890.377	20857
890.501	20621
890.624	20636
890.748	20632
890.871	20587
890.995	20530
891.118	20389
891.241	20667
891.364	20526
891.488	20541
891.611	20503
891.734	20632
891.857	20617
891.98	20621
892.103	20537
892.226	20480
892.349	20480
892.471	20324
892.594	20495
892.717	20499
892.839	20461
892.962	20385
893.085	20533
893.207	20404
893.33	20355
893.452	20320
893.575	20495
893.697	20400
893.819	20636
893.941	20598
894.064	20541
894.186	20431
894.308	20351
894.43	20499
894.552	20587
894.674	20465
894.796	20358
894.918	20438
895.04	20351
895.161	20461
895.283	20629
895.405	20298
895.526	20480
895.648	20336
895.769	20465
895.891	20419
896.012	20461
896.134	20507
896.255	20309
896.376	20370
896.498	20408
896.619	20480
896.74	20389
896.861	20541
896.982	20587
897.103	20910
897.224	20735
897.345	20533
897.466	20609
897.587	20590
897.708	20644
897.828	20735
897.949	20590
898.07	20454
898.19	20541
898.311	20777
898.431	20575
898.552	20587
898.672	20674
898.792	20739
898.913	20727
899.033	20511
899.153	20476
899.273	20298
899.393	20377
899.513	20423
899.633	20374
899.753	20454
899.873	20286
899.993	20419
900.113	20248
900.232	20355
900.352	20278
900.472	20161
900.591	20172
900.711	20191
900.83	20039
900.95	20180
901.069	20252
901.189	20107
901.308	19731
901.427	19784
901.546	19738
901.665	19753
901.784	19757
901.904	19635
902.023	19552
902.141	19365
902.26	19278
902.379	19369
902.498	19316
902.617	19190
902.735	19175
902.854	19065
902.973	19194
903.091	18973
903.21	18856
903.328	18806
903.446	18700
903.565	18787
903.683	18726
903.801	18661
903.919	18787
904.038	18646
904.156	18513
904.274	18479
904.392	18441
904.51	18342
904.627	18467
904.745	18623
904.863	18525
904.981	18216
905.098	18136
905.216	18148
905.334	18178
905.451	18125
905.569	18102
905.686	18110
905.803	18087
905.921	17984
906.038	18155
906.155	17973
906.272	17824
906.389	17783
906.506	17809
906.623	17695
906.74	17524
906.857	17547
906.974	17566
907.091	17623
907.208	17840
907.324	17653
907.441	17634
907.557	17417
907.674	17414
907.79	17299
907.907	17421
908.023	17463
908.139	17364
908.256	17376
908.372	17162
908.488	17212
908.604	17155
908.72	17102
908.836	17170
908.952	17094
909.068	17162
909.184	17155
909.3	17227
909.415	17067
909.531	17216
909.647	16858
909.762	16904
909.878	16778
909.993	16828
910.108	16805
910.224	16778
910.339	16866
910.454	16687
910.57	16672
910.685	16592
910.8	16812
910.915	16729
911.03	16565
911.145	16447
911.259	16455
911.374	16341
911.489	16417
911.604	16329
911.718	16200
911.833	16120
911.947	16055
912.062	16010
912.176	16139
912.291	16234
912.405	16124
912.519	16318
912.633	16413
912.748	16204
912.862	16185
912.976	16055
913.09	15827
913.204	15911
913.318	16032
913.431	16105
913.545	16173
913.659	16048
913.772	15945
913.886	15854
914	15781
914.113	15785
914.226	15857
914.34	15884
914.453	15675
914.566	15892
914.68	15732
914.793	15557
914.906	15549
915.019	15348
915.132	15431
915.245	15393
915.358	15443
915.47	15416
915.583	15450
915.696	15488
915.809	15500
915.921	15511
916.034	15317
916.146	15291
916.259	15268
916.371	15351
916.483	15401
916.595	15195
916.708	15123
916.82	15226
916.932	15184
917.044	15116
917.156	15203
917.268	14937
917.38	15020
917.491	14952
917.603	14948
917.715	15089
917.826	15154
917.938	15032
918.049	14979
918.161	14941
918.272	15176
918.384	15093
918.495	14933
918.606	14796
918.717	14762
918.828	14944
918.939	14796
919.05	14701
919.161	14705
919.272	14636
919.383	14651
919.494	14811
919.604	14914
919.715	14815
919.826	14804
919.936	14727
920.047	14781
920.157	14743
920.267	14849
920.378	14682
920.488	14632
920.598	14861
920.708	15142
920.818	14868
920.928	14933
921.038	14937
921.148	14872
921.258	14651
921.368	14598
921.477	14522
921.587	14434
921.697	14328
921.806	14446
921.916	14355
922.025	14100
922.134	14138
922.244	14142
922.353	14134
922.462	14001
922.571	13868
922.68	13822
922.789	13731
922.898	13833
923.007	13666
923.116	13776
923.224	13795
923.333	13597
923.442	13639
923.55	13609
923.659	13616
923.767	13636
923.876	13491
923.984	13502
924.092	13521
924.201	13480
924.309	13544
924.417	13540
924.525	13400
924.633	13400
924.741	14408
924.849	13137
924.956	13228
925.064	13156
925.172	13122
925.279	13198
925.387	13160
925.494	13179
925.602	13289
925.709	13217
925.816	13129
925.924	13118
926.031	13183
926.138	13133
926.245	13076
926.352	13061
926.459	13190
926.566	13221
926.673	13053
926.779	12916
926.886	12837
926.993	12798
927.099	12745
927.206	12711
927.312	12662
927.419	12741
927.525	12711
927.631	12817
927.737	12559
927.843	12502
927.95	12464
928.056	12555
928.162	12445
928.267	12604
928.373	13133
928.479	12589
928.585	12407
928.69	12506
928.796	12555
928.901	12391
929.007	12285
929.112	12403
929.218	12323
929.323	12350
929.428	12201
929.533	12369
929.638	12171
929.743	12213
929.848	12338
929.953	12243
930.058	12110
930.163	12015
930.267	11965
930.372	12098
930.477	11885
930.581	12129
930.685	11992
930.79	11874
930.894	11927
930.998	11889
931.103	11965
931.207	11516
931.311	11543
931.415	11493
931.519	11166
931.623	11090
