Data from test_V78500241_3084.txt Node
Date: Fri Mar 25 16:03:09 CST 2022
User: usil
Spectrometer: V785-0024
Trigger mode: 0
Integration Time (sec): 4.000000E-1
Scans to average: 1
Nonlinearity correction enabled: false
Boxcar width: 0
Storing dark spectrum: false
XAxis mode: Wavelengths
Number of Pixels in Spectrum: 1024
>>>>>Begin Spectral Data<<<<<
801.071	28767
801.214	28740
801.356	28649
801.499	28428
801.641	28504
801.783	28348
801.926	28474
802.068	28352
802.211	28310
802.353	28131
802.496	28055
802.638	28219
802.78	27949
802.923	28131
803.065	27949
803.208	28059
803.35	28044
803.492	28150
803.635	28478
803.777	28226
803.919	28272
804.061	28664
804.204	28401
804.346	28341
804.488	28325
804.63	28367
804.773	28253
804.915	28462
805.057	28645
805.199	28348
805.341	28474
805.483	28561
805.626	28386
805.768	28413
805.91	28466
806.052	28588
806.194	28497
806.336	28672
806.478	28538
806.62	28637
806.762	28687
806.904	28847
807.046	29060
807.188	28915
807.33	29010
807.472	28972
807.614	28873
807.756	28892
807.898	28888
808.04	28816
808.182	28778
808.324	28790
808.465	28824
808.607	29109
808.749	29166
808.891	29311
809.033	29421
809.174	29509
809.316	29083
809.458	29170
809.6	29075
809.741	29436
809.883	29299
810.025	29421
810.166	29649
810.308	29490
810.45	29421
810.591	29391
810.733	29265
810.875	29162
811.016	29105
811.158	29307
811.299	29292
811.441	29128
811.582	29535
811.724	29227
811.865	29227
812.007	29318
812.148	29246
812.29	29482
812.431	29353
812.573	29657
812.714	29783
812.855	29741
812.997	29847
813.138	29866
813.279	29901
813.421	29843
813.562	29699
813.703	29562
813.845	29459
813.986	29151
814.127	28995
814.268	29025
814.41	29022
814.551	28850
814.692	28995
814.833	28999
814.974	28949
815.115	28946
815.256	28820
815.397	28911
815.539	28820
815.68	28603
815.821	28782
815.962	28702
816.103	28793
816.244	28584
816.385	28565
816.526	28508
816.666	28401
816.807	28242
816.948	28299
817.089	28535
817.23	28314
817.371	28135
817.512	28257
817.653	28265
817.793	28306
817.934	28196
818.075	28295
818.216	28310
818.356	28268
818.497	28150
818.638	28036
818.778	27960
818.919	28032
819.06	28131
819.2	28188
819.341	28363
819.481	28367
819.622	28481
819.762	28660
819.903	28478
820.043	28596
820.184	28478
820.324	28405
820.465	28443
820.605	28504
820.746	28371
820.886	28112
821.026	28341
821.167	28284
821.307	28546
821.447	28188
821.588	28177
821.728	28169
821.868	27880
822.008	27713
822.149	27785
822.289	27618
822.429	27507
822.569	27435
822.709	27348
822.849	27264
822.99	27344
823.13	27401
823.27	27306
823.41	27104
823.55	26921
823.69	27127
823.83	27112
823.97	27081
824.11	26948
824.25	26906
824.389	27036
824.529	27043
824.669	26929
824.809	27024
824.949	26960
825.089	26975
825.228	26933
825.368	26895
825.508	26678
825.648	26804
825.787	26967
825.927	26982
826.067	26872
826.206	26773
826.346	26899
826.485	26910
826.625	26880
826.765	26929
826.904	26899
827.044	26541
827.183	26606
827.323	26484
827.462	26549
827.601	26606
827.741	26541
827.88	26613
828.02	26453
828.159	26526
828.298	26549
828.437	26617
828.577	26396
828.716	26575
828.855	26358
828.994	26191
829.134	26214
829.273	26332
829.412	26225
829.551	26206
829.69	26214
829.829	26191
829.968	26252
830.107	26187
830.246	26328
830.385	26142
830.524	26062
830.663	26062
830.802	25913
830.941	25864
831.08	25742
831.219	25811
831.357	25803
831.496	25997
831.635	26016
831.774	25635
831.913	25750
832.051	25616
832.19	25616
832.329	25795
832.467	25495
832.606	25601
832.744	25506
832.883	25396
833.022	25540
833.16	25525
833.299	25537
833.437	25525
833.576	25594
833.714	25556
833.852	25658
833.991	25552
834.129	25715
834.267	25704
834.406	25518
834.544	25537
834.682	25594
834.821	25506
834.959	25765
835.097	25594
835.235	25590
835.373	25628
835.511	25518
835.65	25449
835.788	25403
835.926	25304
836.064	25278
836.202	25247
836.34	25381
836.478	25495
836.615	25362
836.753	25441
836.891	25457
837.029	25419
837.167	25297
837.305	25244
837.443	25209
837.58	25240
837.718	25221
837.856	25255
837.993	25156
838.131	25270
838.269	25088
838.406	25103
838.544	25122
838.681	24947
838.819	24859
838.956	24658
839.094	24806
839.231	24703
839.369	24890
839.506	25050
839.643	24913
839.781	24738
839.918	24547
840.055	24688
840.193	24604
840.33	24627
840.467	24582
840.604	24654
840.742	24909
840.879	24445
841.016	24483
841.153	24441
841.29	24707
841.427	24445
841.564	24517
841.701	24639
841.838	24532
841.975	24467
842.112	24456
842.249	24414
842.385	24369
842.522	24456
842.659	24414
842.796	24304
842.933	24388
843.069	24194
843.206	24254
843.343	24426
843.479	24350
843.616	24285
843.752	24201
843.889	24194
844.025	24155
844.162	24038
844.298	24201
844.435	24095
844.571	23897
844.708	24060
844.844	24338
844.98	24197
845.117	24201
845.253	23977
845.389	23935
845.525	23904
845.661	23984
845.798	23923
845.934	23908
846.07	23916
846.206	23912
846.342	23901
846.478	23866
846.614	23661
846.75	23547
846.886	23592
847.022	23570
847.158	23695
847.294	23497
847.429	23604
847.565	23520
847.701	23805
847.837	23296
847.972	23204
848.108	23402
848.244	23299
848.379	23128
848.515	23140
848.65	23075
848.786	23102
848.921	23155
849.057	23277
849.192	23250
849.328	23151
849.463	23083
849.598	22976
849.734	23041
849.869	23014
850.004	22961
850.14	22774
850.275	22873
850.41	22885
850.545	22881
850.68	22965
850.815	22889
850.95	22877
851.085	23098
851.22	23010
851.355	22968
851.49	22946
851.625	22877
851.76	22923
851.895	22835
852.03	22885
852.165	22839
852.299	22965
852.434	22965
852.569	22938
852.703	22892
852.838	23060
852.973	22965
853.107	22892
853.242	22896
853.376	22717
853.511	22588
853.645	22653
853.78	22763
853.914	22843
854.048	22710
854.183	22687
854.317	22717
854.451	22877
854.585	22797
854.72	22725
854.854	22752
854.988	22577
855.122	22759
855.256	22584
855.39	22713
855.524	22782
855.658	22592
855.792	22725
855.926	22603
856.06	22752
856.194	22809
856.327	22645
856.461	22607
856.595	22630
856.729	22752
856.862	22889
856.996	22889
857.13	22797
857.263	22748
857.397	22778
857.53	22702
857.664	22835
857.797	22645
857.931	22858
858.064	22740
858.197	22824
858.331	22778
858.464	22710
858.597	22615
858.731	22752
858.864	22622
858.997	22725
859.13	22687
859.263	22755
859.396	22778
859.529	22691
859.662	22752
859.795	22710
859.928	22748
860.061	22908
860.194	22805
860.327	22809
860.46	22908
860.592	22953
860.725	22839
860.858	22866
860.99	22812
861.123	22630
861.256	22717
861.388	22774
861.521	23322
861.653	22497
861.786	22451
861.918	22512
862.05	22649
862.183	22546
862.315	22641
862.447	22649
862.58	22630
862.712	22443
862.844	22348
862.976	22436
863.108	22588
863.24	22793
863.372	22409
863.504	22474
863.636	22417
863.768	22455
863.9	22485
864.032	22360
864.164	22440
864.296	22417
864.428	22577
864.559	22527
864.691	22588
864.823	22459
864.954	22508
865.086	22443
865.217	22310
865.349	22299
865.48	22352
865.612	22329
865.743	22344
865.875	22356
866.006	22352
866.137	22325
866.269	22238
866.4	22093
866.531	22196
866.662	22207
866.793	22150
866.924	22204
867.055	22223
867.186	22246
867.317	22246
867.448	22063
867.579	22139
867.71	22188
867.841	22169
867.972	22226
868.103	22253
868.233	22234
868.364	22284
868.495	22284
868.625	22459
868.756	22611
868.886	22352
869.017	22459
869.147	22611
869.278	22546
869.408	22497
869.539	22455
869.669	22390
869.799	22493
869.929	22565
870.06	22596
870.19	22801
870.32	22767
870.45	22782
870.58	22957
870.71	22927
870.84	22927
870.97	22839
871.1	22721
871.23	23044
871.36	23044
871.489	22934
871.619	23121
871.749	23060
871.879	23162
872.008	23170
872.138	22957
872.267	23105
872.397	22915
872.526	22824
872.656	22953
872.785	22965
872.915	22938
873.044	23269
873.173	23170
873.303	23124
873.432	23155
873.561	23147
873.69	23174
873.819	23090
873.948	23147
874.077	23181
874.206	23041
874.335	23052
874.464	23204
874.593	23330
874.722	23254
874.851	23303
874.979	23345
875.108	23337
875.237	23143
875.365	23326
875.494	23292
875.623	23349
875.751	23417
875.88	23360
876.008	23231
876.136	23383
876.265	23741
876.393	23817
876.521	23748
876.65	23775
876.778	23714
876.906	23676
877.034	23638
877.162	23722
877.29	23642
877.418	23737
877.546	23638
877.674	23573
877.802	23585
877.93	23558
878.058	23543
878.185	23429
878.313	23562
878.441	23615
878.568	23474
878.696	23604
878.824	23493
878.951	23570
879.079	23741
879.206	23878
879.333	23764
879.461	23623
879.588	23764
879.715	23745
879.842	23935
879.97	23726
880.097	23364
880.224	23410
880.351	23634
880.478	23421
880.605	23349
880.732	23322
880.859	23665
880.986	23452
881.112	23497
881.239	23250
881.366	23220
881.493	23041
881.619	23003
881.746	23037
881.872	23094
881.999	22892
882.125	23018
882.252	23140
882.378	22999
882.505	23117
882.631	22866
882.757	22862
882.883	22873
883.01	22656
883.136	22637
883.262	22618
883.388	22440
883.514	22687
883.64	22778
883.766	22649
883.892	22394
884.018	22440
884.143	22637
884.269	22649
884.395	22344
884.52	22120
884.646	22421
884.772	22242
884.897	22188
885.023	22318
885.148	22478
885.274	22500
885.399	22390
885.524	22360
885.65	22337
885.775	22223
885.9	22291
886.025	22337
886.15	22394
886.275	22291
886.4	22207
886.525	22249
886.65	22211
886.775	22124
886.9	22344
887.025	22333
887.149	22299
887.274	22131
887.399	22196
887.523	22036
887.648	21983
887.773	21998
887.897	22044
888.021	22162
888.146	21907
888.27	22181
888.395	22154
888.519	22097
888.643	21972
888.767	22078
888.891	21922
889.015	21846
889.139	21964
889.263	21709
889.387	21998
889.511	22128
889.635	21972
889.759	21766
889.883	21793
890.006	21941
890.13	21964
890.254	21800
890.377	21888
890.501	21549
890.624	21466
890.748	21656
890.871	21610
890.995	21378
891.118	21397
891.241	21443
891.364	21428
891.488	21538
891.611	21435
891.734	21477
891.857	21393
891.98	21473
892.103	21507
892.226	21526
892.349	21389
892.471	21214
892.594	21203
892.717	21363
892.839	21241
892.962	21310
893.085	21336
893.207	21344
893.33	21195
893.452	21131
893.575	21283
893.697	21146
893.819	21435
893.941	21523
894.064	21382
894.186	21161
894.308	21165
894.43	21279
894.552	21408
894.674	21351
894.796	21226
894.918	21226
895.04	21188
895.161	21351
895.283	21405
895.405	21237
895.526	21169
895.648	21256
895.769	21283
895.891	21313
896.012	21393
896.134	21272
896.255	21424
896.376	21108
896.498	21272
896.619	21222
896.74	21077
896.861	21302
896.982	21580
897.103	21694
897.224	21633
897.345	21447
897.466	21401
897.587	21462
897.708	21568
897.828	21530
897.949	21351
898.07	21332
898.19	21397
898.311	21538
898.431	21310
898.552	21386
898.672	21648
898.792	21401
898.913	21553
899.033	21370
899.153	21222
899.273	21146
899.393	21135
899.513	21230
899.633	21260
899.753	21093
899.873	21100
899.993	21192
900.113	21161
900.232	21146
900.352	21104
900.472	20998
900.591	20796
900.711	21020
900.83	20944
900.95	21020
901.069	21119
901.189	20811
901.308	20583
901.427	20571
901.546	20541
901.665	20564
901.784	20393
901.904	20374
902.023	20305
902.141	20107
902.26	20065
902.379	20001
902.498	20054
902.617	19963
902.735	19997
902.854	20062
902.973	19902
903.091	19734
903.21	19784
903.328	19620
903.446	19548
903.565	19426
903.683	19392
903.801	19316
903.919	19381
904.038	19430
904.156	19194
904.274	19232
904.392	19247
904.51	19240
904.627	19198
904.745	19160
904.863	19282
904.981	18928
905.098	18928
905.216	18897
905.334	18913
905.451	18882
905.569	18859
905.686	18981
905.803	18814
905.921	18635
906.038	18776
906.155	18734
906.272	18582
906.389	18612
906.506	18357
906.623	18388
906.74	18361
906.857	18327
906.974	18300
907.091	18486
907.208	18422
907.324	18422
907.441	18388
907.557	18251
907.674	18155
907.79	18041
907.907	18117
908.023	18152
908.139	18121
908.256	17984
908.372	18053
908.488	17946
908.604	17836
908.72	17786
908.836	17855
908.952	17828
909.068	17813
909.184	17923
909.3	17809
909.415	17748
909.531	17828
909.647	17532
909.762	17558
909.878	17509
909.993	17619
910.108	17478
910.224	17577
910.339	17429
910.454	17414
910.57	17345
910.685	17223
910.8	17512
910.915	17429
911.03	17341
911.145	17147
911.259	17200
911.374	17064
911.489	16927
911.604	16953
911.718	16828
911.833	16786
911.947	16717
912.062	16672
912.176	16889
912.291	16850
912.405	16835
912.519	17052
912.633	17102
912.748	16904
912.862	16801
912.976	16672
913.09	16615
913.204	16580
913.318	16698
913.431	16736
913.545	16721
913.659	16668
913.772	16740
913.886	16447
914	16481
914.113	16489
914.226	16561
914.34	16417
914.453	16405
914.566	16466
914.68	16295
914.793	16257
914.906	16090
915.019	16090
915.132	16059
915.245	16074
915.358	16162
915.47	15972
915.583	15960
915.696	16082
915.809	16071
915.921	16112
916.034	16010
916.146	15892
916.259	15884
916.371	16010
916.483	15899
916.595	15781
916.708	15884
916.82	15831
916.932	15857
917.044	15785
917.156	15774
917.268	15660
917.38	15686
917.491	15667
917.603	15568
917.715	15724
917.826	15751
917.938	15549
918.049	15477
918.161	15698
918.272	15675
918.384	15641
918.495	15568
918.606	15317
918.717	15336
918.828	15416
918.939	15462
919.05	15279
919.161	15473
919.272	15119
919.383	15188
919.494	15401
919.604	15572
919.715	15317
919.826	15180
919.936	15214
920.047	15405
920.157	15291
920.267	15622
920.378	15313
920.488	15222
920.598	15553
920.708	15576
920.818	15393
920.928	15355
921.038	15625
921.148	15538
921.258	15287
921.368	15268
921.477	15123
921.587	15081
921.697	14937
921.806	15058
921.916	14918
922.025	14731
922.134	14762
922.244	14632
922.353	14701
922.462	14545
922.571	14533
922.68	14374
922.789	14237
922.898	14301
923.007	14267
923.116	14320
923.224	14343
923.333	14256
923.442	14157
923.55	14195
923.659	14195
923.767	14157
923.876	14058
923.984	14176
924.092	13974
924.201	14001
924.309	14035
924.417	13986
924.525	13955
924.633	13967
924.741	14773
924.849	13875
924.956	13811
925.064	13734
925.172	13647
925.279	13655
925.387	13719
925.494	13693
925.602	13769
925.709	13738
925.816	13480
925.924	13647
926.031	13765
926.138	13616
926.245	13605
926.352	13525
926.459	13643
926.566	13605
926.673	13548
926.779	13445
926.886	13441
926.993	13308
927.099	13266
927.206	13183
927.312	13145
927.419	13263
927.525	13225
927.631	13247
927.737	13152
927.843	13042
927.95	13008
928.056	13038
928.162	12989
928.267	13137
928.373	13685
928.479	13137
928.585	12844
928.69	13038
928.796	12970
928.901	12901
929.007	12764
929.112	12859
929.218	12852
929.323	12741
929.428	12722
929.533	12848
929.638	12677
929.743	12726
929.848	12681
929.953	12703
930.058	12536
930.163	12403
930.267	12395
930.372	12532
930.477	12414
930.581	12635
930.685	12403
930.79	12251
930.894	12380
930.998	12220
931.103	12445
931.207	12030
931.311	12015
931.415	11904
931.519	11676
931.623	11630
