Data from test_V78500241_367.txt Node
Date: Fri Mar 25 15:44:20 CST 2022
User: usil
Spectrometer: V785-0024
Trigger mode: 0
Integration Time (sec): 4.000000E-1
Scans to average: 1
Nonlinearity correction enabled: false
Boxcar width: 0
Storing dark spectrum: false
XAxis mode: Wavelengths
Number of Pixels in Spectrum: 1024
>>>>>Begin Spectral Data<<<<<
801.071	29596
801.214	29474
801.356	29566
801.499	29334
801.641	29223
801.783	29307
801.926	29269
802.068	29345
802.211	29170
802.353	29094
802.496	28942
802.638	28999
802.78	28873
802.923	28805
803.065	28809
803.208	28847
803.35	29029
803.492	29060
803.635	29121
803.777	29136
803.919	29105
804.061	29482
804.204	29071
804.346	29075
804.488	29067
804.63	29204
804.773	29075
804.915	28991
805.057	29231
805.199	29048
805.341	29265
805.483	29280
805.626	29360
805.768	29227
805.91	29147
806.052	29265
806.194	29204
806.336	29433
806.478	29174
806.62	29284
806.762	29292
806.904	29646
807.046	29775
807.188	29638
807.33	29764
807.472	29756
807.614	29798
807.756	29592
807.898	29657
808.04	29531
808.182	29539
808.324	29661
808.465	29512
808.607	29676
808.749	29783
808.891	29923
809.033	30095
809.174	29980
809.316	29954
809.458	30022
809.6	29897
809.741	29912
809.883	30011
810.025	30190
810.166	30197
810.308	30247
810.45	30163
810.591	30136
810.733	30076
810.875	29901
811.016	29760
811.158	29920
811.299	29969
811.441	30144
811.582	30057
811.724	29901
811.865	29855
812.007	30041
812.148	29817
812.29	30053
812.431	30011
812.573	30281
812.714	30498
812.855	30544
812.997	30566
813.138	30563
813.279	30498
813.421	30589
813.562	30517
813.703	30361
813.845	30114
813.986	29836
814.127	29687
814.268	29714
814.41	29551
814.551	29581
814.692	29767
814.833	29646
814.974	29589
815.115	29589
815.256	29482
815.397	29353
815.539	29455
815.68	29406
815.821	29398
815.962	29391
816.103	29414
816.244	29132
816.385	29083
816.526	29200
816.666	28961
816.807	28824
816.948	28908
817.089	28995
817.23	28934
817.371	28915
817.512	28888
817.653	28847
817.793	28866
817.934	28771
818.075	28835
818.216	28820
818.356	28782
818.497	28649
818.638	28542
818.778	28580
818.919	28577
819.06	28645
819.2	28653
819.341	28839
819.481	28687
819.622	28915
819.762	29273
819.903	29121
820.043	29155
820.184	28896
820.324	28888
820.465	29143
820.605	28934
820.746	28915
820.886	28767
821.026	28965
821.167	28915
821.307	28953
821.447	28919
821.588	28763
821.728	28569
821.868	28348
822.008	28325
822.149	28360
822.289	28238
822.429	28010
822.569	27991
822.709	27880
822.849	27633
822.99	27580
823.13	27816
823.27	27724
823.41	27564
823.55	27340
823.69	27538
823.83	27625
823.97	27561
824.11	27245
824.25	27351
824.389	27195
824.529	27439
824.669	27367
824.809	27435
824.949	27435
825.089	27485
825.228	27466
825.368	27233
825.508	27317
825.648	27245
825.787	27287
825.927	27279
826.067	27119
826.206	27226
826.346	27272
826.485	27184
826.625	27199
826.765	27298
826.904	27359
827.044	26929
827.183	26925
827.323	26971
827.462	26765
827.601	26975
827.741	26845
827.88	26868
828.02	26807
828.159	26914
828.298	26891
828.437	26944
828.577	26815
828.716	26914
828.855	26705
828.994	26625
829.134	26564
829.273	26644
829.412	26629
829.551	26617
829.69	26655
829.829	26606
829.968	26731
830.107	26613
830.246	26442
830.385	26419
830.524	26385
830.663	26317
830.802	26263
830.941	26073
831.08	26020
831.219	26176
831.357	26221
831.496	26362
831.635	25993
831.774	25925
831.913	25932
832.051	25875
832.19	25955
832.329	25902
832.467	25902
832.606	25727
832.744	25822
832.883	25776
833.022	25795
833.16	25734
833.299	25883
833.437	25925
833.576	25913
833.714	25830
833.852	25974
833.991	25818
834.129	25921
834.267	25849
834.406	25742
834.544	25662
834.682	25715
834.821	25784
834.959	25989
835.097	25708
835.235	25769
835.373	25799
835.511	25788
835.65	25613
835.788	25712
835.926	25491
836.064	25525
836.202	25502
836.34	25704
836.478	25818
836.615	25457
836.753	25548
836.891	25696
837.029	25685
837.167	25487
837.305	25445
837.443	25605
837.58	25514
837.718	25559
837.856	25460
837.993	25312
838.131	25441
838.269	25251
838.406	25255
838.544	25099
838.681	25050
838.819	25027
838.956	24905
839.094	24829
839.231	24875
839.369	25038
839.506	25179
839.643	25110
839.781	24867
839.918	24741
840.055	24791
840.193	24783
840.33	24654
840.467	24779
840.604	24970
840.742	25084
840.879	24620
841.016	24654
841.153	24570
841.29	24920
841.427	24661
841.564	24757
841.701	24707
841.838	24593
841.975	24608
842.112	24604
842.249	24525
842.385	24505
842.522	24692
842.659	24566
842.796	24471
842.933	24452
843.069	24418
843.206	24464
843.343	24414
843.479	24289
843.616	24384
843.752	24209
843.889	24182
844.025	24300
844.162	24182
844.298	24213
844.435	24133
844.571	24232
844.708	24251
844.844	24273
844.98	24323
845.117	24220
845.253	24171
845.389	23958
845.525	24152
845.661	24030
845.798	23927
845.934	24041
846.07	23775
846.206	23897
846.342	23973
846.478	23950
846.614	23619
846.75	23611
846.886	23562
847.022	23611
847.158	23649
847.294	23554
847.429	23703
847.565	23452
847.701	23855
847.837	23242
847.972	23284
848.108	23341
848.244	23505
848.379	23311
848.515	23216
848.65	23109
848.786	23223
848.921	23239
849.057	23189
849.192	23166
849.328	23246
849.463	23231
849.598	23075
849.734	22999
849.869	23025
850.004	22919
850.14	22991
850.275	22987
850.41	22843
850.545	22881
850.68	22923
850.815	22911
850.95	22873
851.085	23086
851.22	23060
851.355	22934
851.49	22957
851.625	22911
851.76	22843
851.895	22816
852.03	22824
852.165	22892
852.299	22968
852.434	22885
852.569	22889
852.703	22972
852.838	22900
852.973	23067
853.107	23041
853.242	22763
853.376	22687
853.511	22531
853.645	22729
853.78	22885
853.914	22656
854.048	22611
854.183	22679
854.317	22725
854.451	22919
854.585	22736
854.72	22816
854.854	22793
854.988	22611
855.122	22767
855.256	22630
855.39	22710
855.524	22809
855.658	22797
855.792	22694
855.926	22702
856.06	22744
856.194	22759
856.327	22717
856.461	22656
856.595	22641
856.729	22725
856.862	22862
856.996	22698
857.13	22774
857.263	22729
857.397	22782
857.53	22611
857.664	22767
857.797	22736
857.931	22656
858.064	22622
858.197	22721
858.331	22691
858.464	22573
858.597	22519
858.731	22706
858.864	22580
858.997	22584
859.13	22771
859.263	22729
859.396	22752
859.529	22523
859.662	22550
859.795	22542
859.928	22683
860.061	22729
860.194	22835
860.327	22588
860.46	22687
860.592	22744
860.725	22755
860.858	22637
860.99	22717
861.123	22565
861.256	22542
861.388	22569
861.521	23395
861.653	22588
861.786	22447
861.918	22481
862.05	22512
862.183	22516
862.315	22577
862.447	22744
862.58	22554
862.712	22470
862.844	22367
862.976	22451
863.108	22546
863.24	22790
863.372	22268
863.504	22379
863.636	22257
863.768	22356
863.9	22318
864.032	22230
864.164	22287
864.296	22398
864.428	22432
864.559	22363
864.691	22268
864.823	22322
864.954	22246
865.086	22131
865.217	22242
865.349	22154
865.48	22200
865.612	22211
865.743	22390
865.875	22337
866.006	22234
866.137	22295
866.269	22135
866.4	22135
866.531	22078
866.662	22158
866.793	22120
866.924	22139
867.055	22135
867.186	22185
867.317	22101
867.448	22063
867.579	22101
867.71	22070
867.841	21960
867.972	22162
868.103	22139
868.233	22120
868.364	22196
868.495	22257
868.625	22367
868.756	22474
868.886	22200
869.017	22470
869.147	22440
869.278	22535
869.408	22367
869.539	22329
869.669	22398
869.799	22485
869.929	22459
870.06	22443
870.19	22637
870.32	22691
870.45	22489
870.58	22774
870.71	22843
870.84	22835
870.97	22896
871.1	22790
871.23	22942
871.36	22999
871.489	22843
871.619	22923
871.749	23090
871.879	22987
872.008	23212
872.138	22968
872.267	22881
872.397	22866
872.526	22797
872.656	22733
872.785	22793
872.915	23018
873.044	23105
873.173	22923
873.303	23056
873.432	22934
873.561	23056
873.69	23060
873.819	22927
873.948	23105
874.077	22915
874.206	22911
874.335	23022
874.464	22953
874.593	23216
874.722	23208
874.851	23208
874.979	23185
875.108	23193
875.237	23200
875.365	23067
875.494	23178
875.623	23185
875.751	23227
875.88	23227
876.008	23280
876.136	23345
876.265	23471
876.393	23737
876.521	23623
876.65	23573
876.778	23566
876.906	23429
877.034	23577
877.162	23611
877.29	23463
877.418	23646
877.546	23543
877.674	23570
877.802	23490
877.93	23505
878.058	23493
878.185	23539
878.313	23467
878.441	23471
878.568	23398
878.696	23421
878.824	23608
878.951	23691
879.079	23764
879.206	23771
879.333	23710
879.461	23554
879.588	23695
879.715	23687
879.842	23897
879.97	23615
880.097	23250
880.224	23444
880.351	23360
880.478	23322
880.605	23273
880.732	23356
880.859	23429
880.986	23391
881.112	23425
881.239	23174
881.366	23052
881.493	23003
881.619	23094
881.746	22984
881.872	22820
881.999	22885
882.125	22869
882.252	22869
882.378	22744
882.505	22984
882.631	22949
882.757	22691
882.883	22786
883.01	22637
883.136	22618
883.262	22474
883.388	22341
883.514	22550
883.64	22630
883.766	22489
883.892	22363
884.018	22394
884.143	22531
884.269	22710
884.395	22284
884.52	22265
884.646	22306
884.772	22249
884.897	22188
885.023	22322
885.148	22432
885.274	22325
885.399	22341
885.524	22150
885.65	22143
885.775	22314
885.9	22093
886.025	22466
886.15	22284
886.275	22150
886.4	22082
886.525	22078
886.65	22074
886.775	22185
886.9	22367
887.025	22402
887.149	22246
887.274	21926
887.399	22029
887.523	21865
887.648	21930
887.773	21888
887.897	22040
888.021	21968
888.146	21930
888.27	21949
888.395	22090
888.519	21937
888.643	22093
888.767	22002
888.891	21778
889.015	21713
889.139	21797
889.263	21793
889.387	21876
889.511	21850
889.635	21842
889.759	21800
889.883	21789
890.006	21766
890.13	21778
890.254	21633
890.377	21724
890.501	21485
890.624	21416
890.748	21599
890.871	21428
890.995	21344
891.118	21249
891.241	21351
891.364	21329
891.488	21336
891.611	21435
891.734	21317
891.857	21374
891.98	21355
892.103	21355
892.226	21321
892.349	21237
892.471	21154
892.594	21188
892.717	21287
892.839	21135
892.962	21184
893.085	21386
893.207	21226
893.33	21089
893.452	21047
893.575	21218
893.697	21108
893.819	21188
893.941	21363
894.064	21252
894.186	21135
894.308	21055
894.43	21336
894.552	21405
894.674	21355
894.796	21119
894.918	21157
895.04	21123
895.161	21287
895.283	21287
895.405	21074
895.526	21184
895.648	21131
895.769	21135
895.891	21256
896.012	21195
896.134	21199
896.255	21321
896.376	21211
896.498	21241
896.619	21237
896.74	21093
896.861	21252
896.982	21526
897.103	21694
897.224	21431
897.345	21298
897.466	21264
897.587	21412
897.708	21542
897.828	21355
897.949	21256
898.07	21142
898.19	21329
898.311	21450
898.431	21359
898.552	21367
898.672	21473
898.792	21504
898.913	21367
899.033	21157
899.153	21138
899.273	20937
899.393	20994
899.513	21058
899.633	21039
899.753	21036
899.873	20864
899.993	21127
900.113	20971
900.232	21070
900.352	21005
900.472	20925
900.591	20857
900.711	20823
900.83	20815
900.95	20944
901.069	20998
901.189	20686
901.308	20530
901.427	20374
901.546	20480
901.665	20446
901.784	20263
901.904	20199
902.023	20180
902.141	19986
902.26	20043
902.379	20138
902.498	19917
902.617	19883
902.735	19986
902.854	19890
902.973	19898
903.091	19499
903.21	19499
903.328	19586
903.446	19365
903.565	19312
903.683	19396
903.801	19278
903.919	19190
904.038	19297
904.156	19042
904.274	19236
904.392	19065
904.51	19107
904.627	19031
904.745	19129
904.863	19110
904.981	18856
905.098	18707
905.216	18730
905.334	18825
905.451	18772
905.569	18757
905.686	18791
905.803	18749
905.921	18547
906.038	18703
906.155	18612
906.272	18513
906.389	18517
906.506	18372
906.623	18254
906.74	18270
906.857	18220
906.974	18098
907.091	18289
907.208	18388
907.324	18171
907.441	18144
907.557	17988
907.674	17931
907.79	18019
907.907	18076
908.023	17965
908.139	18022
908.256	17965
908.372	17950
908.488	17802
908.604	17672
908.72	17535
908.836	17691
908.952	17710
909.068	17809
909.184	17843
909.3	17672
909.415	17718
909.531	17672
909.647	17421
909.762	17395
909.878	17280
909.993	17330
910.108	17376
910.224	17254
910.339	17379
910.454	17242
910.57	17231
910.685	17128
910.8	17311
910.915	17356
911.03	17208
911.145	16984
911.259	16942
911.374	16923
911.489	16854
911.604	16877
911.718	16615
911.833	16687
911.947	16531
912.062	16447
912.176	16664
912.291	16733
912.405	16649
912.519	16835
912.633	16805
912.748	16721
912.862	16599
912.976	16538
913.09	16421
913.204	16367
913.318	16459
913.431	16481
913.545	16523
913.659	16421
913.772	16329
913.886	16284
914	16204
914.113	16280
914.226	16280
914.34	16276
914.453	16029
914.566	16322
914.68	16158
914.793	16021
914.906	15918
915.019	15918
915.132	15857
915.245	15888
915.358	15861
915.47	15854
915.583	15876
915.696	15926
915.809	15994
915.921	16006
916.034	15770
916.146	15701
916.259	15656
916.371	15838
916.483	15690
916.595	15648
916.708	15648
916.82	15648
916.932	15603
917.044	15519
917.156	15625
917.268	15412
917.38	15389
917.491	15370
917.603	15443
917.715	15519
917.826	15466
917.938	15408
918.049	15279
918.161	15363
918.272	15584
918.384	15523
918.495	15378
918.606	15214
918.717	15116
918.828	15176
918.939	15218
919.05	15062
919.161	15161
919.272	14937
919.383	15154
919.494	15097
919.604	15405
919.715	15138
919.826	15005
919.936	15146
920.047	15344
920.157	15188
920.267	15405
920.378	15302
920.488	15039
920.598	15287
920.708	15416
920.818	15287
920.928	15249
921.038	15393
921.148	15294
921.258	15089
921.368	15039
921.477	14807
921.587	14838
921.697	14796
921.806	14883
921.916	14663
922.025	14552
922.134	14549
922.244	14419
922.353	14503
922.462	14457
922.571	14343
922.68	14100
922.789	14199
922.898	14088
923.007	14081
923.116	14149
923.224	14016
923.333	14077
923.442	13925
923.55	13868
923.659	13959
923.767	13974
923.876	13799
923.984	13913
924.092	13845
924.201	13845
924.309	13936
924.417	13788
924.525	13658
924.633	13757
924.741	14526
924.849	13434
924.956	13757
925.064	13499
925.172	13472
925.279	13514
925.387	13601
925.494	13476
925.602	13636
925.709	13556
925.816	13308
925.924	13449
926.031	13506
926.138	13308
926.245	13415
926.352	13251
926.459	13464
926.566	13529
926.673	13449
926.779	13206
926.886	13255
926.993	13076
927.099	13076
927.206	12996
927.312	13027
927.419	13031
927.525	12996
927.631	13038
927.737	12973
927.843	12878
927.95	12787
928.056	12817
928.162	12894
928.267	12913
928.373	13464
928.479	12924
928.585	12692
928.69	12821
928.796	12798
928.901	12703
929.007	12555
929.112	12719
929.218	12620
929.323	12620
929.428	12593
929.533	12555
929.638	12464
929.743	12483
929.848	12597
929.953	12551
930.058	12376
930.163	12270
930.267	12296
930.372	12311
930.477	12197
930.581	12338
930.685	12213
930.79	12175
930.894	12300
930.998	12110
931.103	12224
931.207	11828
931.311	11779
931.415	11634
931.519	11433
931.623	11433
