Data from test_V78500241_3378.txt Node
Date: Fri Mar 25 16:05:12 CST 2022
User: usil
Spectrometer: V785-0024
Trigger mode: 0
Integration Time (sec): 4.000000E-1
Scans to average: 1
Nonlinearity correction enabled: false
Boxcar width: 0
Storing dark spectrum: false
XAxis mode: Wavelengths
Number of Pixels in Spectrum: 1024
>>>>>Begin Spectral Data<<<<<
801.071	28322
801.214	28276
801.356	28120
801.499	27914
801.641	27972
801.783	27903
801.926	27876
802.068	27994
802.211	27850
802.353	27819
802.496	27800
802.638	27606
802.78	27648
802.923	27561
803.065	27507
803.208	27549
803.35	27762
803.492	27857
803.635	27728
803.777	27603
803.919	27918
804.061	28124
804.204	27873
804.346	27819
804.488	27724
804.63	27808
804.773	27804
804.915	27937
805.057	27842
805.199	27854
805.341	28032
805.483	27991
805.626	28055
805.768	27808
805.91	27907
806.052	27926
806.194	27911
806.336	28185
806.478	28059
806.62	28051
806.762	28204
806.904	28284
807.046	28565
807.188	28363
807.33	28421
807.472	28516
807.614	28295
807.756	28379
807.898	28344
808.04	28078
808.182	28265
808.324	28280
808.465	28413
808.607	28573
808.749	28748
808.891	28713
809.033	28763
809.174	28854
809.316	28554
809.458	28592
809.6	28622
809.741	28854
809.883	28702
810.025	28991
810.166	28934
810.308	29037
810.45	28717
810.591	28938
810.733	28679
810.875	28626
811.016	28675
811.158	28531
811.299	28831
811.441	28793
811.582	28816
811.724	28752
811.865	28653
812.007	28725
812.148	28641
812.29	28687
812.431	28767
812.573	29006
812.714	29006
812.855	29140
812.997	29299
813.138	29379
813.279	29383
813.421	29162
813.562	29265
813.703	28957
813.845	28831
813.986	28672
814.127	28436
814.268	28363
814.41	28261
814.551	28280
814.692	28394
814.833	28401
814.974	28261
815.115	28379
815.256	28310
815.397	28242
815.539	28166
815.68	28086
815.821	28177
815.962	28105
816.103	28207
816.244	28188
816.385	28032
816.526	27880
816.666	27857
816.807	27644
816.948	27663
817.089	27823
817.23	27709
817.371	27656
817.512	27762
817.653	27606
817.793	27622
817.934	27781
818.075	27656
818.216	27667
818.356	27694
818.497	27564
818.638	27534
818.778	27545
818.919	27427
819.06	27545
819.2	27599
819.341	27679
819.481	27614
819.622	27846
819.762	27960
819.903	27968
820.043	27720
820.184	27793
820.324	27698
820.465	27888
820.605	27778
820.746	27724
820.886	27580
821.026	27785
821.167	27679
821.307	27816
821.447	27652
821.588	27652
821.728	27599
821.868	27424
822.008	27135
822.149	27066
822.289	27123
822.429	26868
822.569	26762
822.709	26842
822.849	26720
822.99	26644
823.13	26590
823.27	26526
823.41	26461
823.55	26434
823.69	26568
823.83	26492
823.97	26385
824.11	26419
824.25	26370
824.389	26259
824.529	26358
824.669	26328
824.809	26431
824.949	26385
825.089	26343
825.228	26271
825.368	26240
825.508	26202
825.648	26206
825.787	26305
825.927	26278
826.067	26122
826.206	26252
826.346	26210
826.485	26221
826.625	26218
826.765	26324
826.904	26191
827.044	25868
827.183	26016
827.323	25871
827.462	26103
827.601	25898
827.741	25845
827.88	25860
828.02	25841
828.159	25887
828.298	25887
828.437	25894
828.577	25868
828.716	26031
828.855	25830
828.994	25670
829.134	25495
829.273	25620
829.412	25613
829.551	25544
829.69	25514
829.829	25533
829.968	25738
830.107	25597
830.246	25582
830.385	25559
830.524	25495
830.663	25377
830.802	25297
830.941	25232
831.08	25274
831.219	25362
831.357	25129
831.496	25502
831.635	25232
831.774	25148
831.913	25141
832.051	25069
832.19	24920
832.329	25015
832.467	24924
832.606	24840
832.744	24814
832.883	24856
833.022	24837
833.16	24829
833.299	24871
833.437	24947
833.576	24970
833.714	24973
833.852	24878
833.991	25053
834.129	25034
834.267	24977
834.406	24905
834.544	24859
834.682	25038
834.821	24913
834.959	25095
835.097	24837
835.235	25015
835.373	24863
835.511	24825
835.65	24764
835.788	24711
835.926	24665
836.064	24627
836.202	24585
836.34	24779
836.478	24814
836.615	24684
836.753	24764
836.891	24878
837.029	24909
837.167	24722
837.305	24589
837.443	24544
837.58	24483
837.718	24544
837.856	24673
837.993	24623
838.131	24505
838.269	24441
838.406	24593
838.544	24525
838.681	24266
838.819	24098
838.956	24129
839.094	24144
839.231	23999
839.369	24201
839.506	24426
839.643	24361
839.781	24034
839.918	23942
840.055	24140
840.193	23973
840.33	24015
840.467	23908
840.604	23904
840.742	24190
840.879	23897
841.016	23939
841.153	23767
841.29	24098
841.427	23863
841.564	24068
841.701	24018
841.838	23920
841.975	23832
842.112	23889
842.249	23691
842.385	23630
842.522	23961
842.659	23737
842.796	23615
842.933	23756
843.069	23695
843.206	23611
843.343	23726
843.479	23668
843.616	23649
843.752	23573
843.889	23589
844.025	23596
844.162	23448
844.298	23608
844.435	23463
844.571	23474
844.708	23558
844.844	23558
844.98	23627
845.117	23691
845.253	23459
845.389	23376
845.525	23452
845.661	23330
845.798	23269
845.934	23258
846.07	23212
846.206	23246
846.342	23296
846.478	23174
846.614	22980
846.75	22869
846.886	22869
847.022	23079
847.158	22980
847.294	23010
847.429	23041
847.565	23022
847.701	23258
847.837	22824
847.972	22630
848.108	22767
848.244	22740
848.379	22596
848.515	22470
848.65	22497
848.786	22679
848.921	22554
849.057	22698
849.192	22535
849.328	22668
849.463	22531
849.598	22519
849.734	22424
849.869	22447
850.004	22333
850.14	22181
850.275	22280
850.41	22363
850.545	22333
850.68	22249
850.815	22417
850.95	22230
851.085	22478
851.22	22440
851.355	22375
851.49	22249
851.625	22234
851.76	22306
851.895	22219
852.03	22242
852.165	22253
852.299	22371
852.434	22306
852.569	22428
852.703	22268
852.838	22348
852.973	22432
853.107	22375
853.242	22242
853.376	22192
853.511	22051
853.645	22135
853.78	22287
853.914	22192
854.048	22150
854.183	22234
854.317	22204
854.451	22280
854.585	22021
854.72	22082
854.854	22204
854.988	22086
855.122	22162
855.256	22055
855.39	21991
855.524	22265
855.658	22234
855.792	22116
855.926	22166
856.06	22086
856.194	22200
856.327	22173
856.461	22059
856.595	21941
856.729	22150
856.862	22116
856.996	22185
857.13	22322
857.263	22337
857.397	22192
857.53	22040
857.664	22188
857.797	22204
857.931	22322
858.064	22219
858.197	22112
858.331	22147
858.464	22025
858.597	22078
858.731	22223
858.864	22226
858.997	22272
859.13	22185
859.263	22120
859.396	22150
859.529	22078
859.662	22055
859.795	22158
859.928	22040
860.061	22272
860.194	22268
860.327	22234
860.46	22135
860.592	22276
860.725	22356
860.858	22238
860.99	22211
861.123	22090
861.256	22059
861.388	22086
861.521	22786
861.653	22010
861.786	21884
861.918	21934
862.05	22025
862.183	22013
862.315	21922
862.447	22078
862.58	21991
862.712	21918
862.844	21720
862.976	21915
863.108	21934
863.24	22485
863.372	21751
863.504	21797
863.636	21865
863.768	21903
863.9	21892
864.032	21785
864.164	21827
864.296	21899
864.428	22032
864.559	21930
864.691	21903
864.823	21876
864.954	21876
865.086	21823
865.217	21698
865.349	21690
865.48	21690
865.612	21644
865.743	21850
865.875	21816
866.006	21717
866.137	21663
866.269	21728
866.4	21720
866.531	21679
866.662	21633
866.793	21633
866.924	21610
867.055	21724
867.186	21667
867.317	21618
867.448	21603
867.579	21633
867.71	21477
867.841	21610
867.972	21747
868.103	21637
868.233	21660
868.364	21770
868.495	21686
868.625	21808
868.756	21949
868.886	21911
869.017	21873
869.147	21930
869.278	21987
869.408	21945
869.539	21945
869.669	22021
869.799	21972
869.929	22010
870.06	21941
870.19	22265
870.32	22249
870.45	22371
870.58	22310
870.71	22386
870.84	22436
870.97	22382
871.1	22249
871.23	22428
871.36	22428
871.489	22443
871.619	22500
871.749	22478
871.879	22428
872.008	22634
872.138	22577
872.267	22557
872.397	22310
872.526	22318
872.656	22318
872.785	22211
872.915	22645
873.044	22588
873.173	22523
873.303	22626
873.432	22649
873.561	22672
873.69	22512
873.819	22421
873.948	22683
874.077	22478
874.206	22470
874.335	22508
874.464	22626
874.593	22736
874.722	22683
874.851	22824
874.979	22793
875.108	22630
875.237	22607
875.365	22569
875.494	22713
875.623	22889
875.751	22683
875.88	22740
876.008	22771
876.136	22873
876.265	23170
876.393	23197
876.521	23227
876.65	23094
876.778	23075
876.906	23128
877.034	23102
877.162	23189
877.29	23090
877.418	23048
877.546	23136
877.674	23254
877.802	23010
877.93	23056
878.058	23105
878.185	22949
878.313	23060
878.441	23162
878.568	22839
878.696	23056
878.824	23052
878.951	23178
879.079	23277
879.206	23391
879.333	23242
879.461	23159
879.588	23296
879.715	23273
879.842	23379
879.97	23174
880.097	22953
880.224	22831
880.351	22938
880.478	22881
880.605	22847
880.732	22881
880.859	23064
880.986	22938
881.112	22911
881.239	22740
881.366	22618
881.493	22554
881.619	22485
881.746	22402
881.872	22512
881.999	22474
882.125	22363
882.252	22379
882.378	22394
882.505	22455
882.631	22280
882.757	22219
882.883	22280
883.01	22093
883.136	22048
883.262	22135
883.388	21945
883.514	22200
883.64	22181
883.766	22025
883.892	21983
884.018	22013
884.143	22097
884.269	22192
884.395	21793
884.52	21804
884.646	21892
884.772	21671
884.897	21679
885.023	21842
885.148	21804
885.274	21960
885.399	21922
885.524	21804
885.65	21800
885.775	21804
885.9	21747
886.025	21930
886.15	21785
886.275	21781
886.4	21667
886.525	21694
886.65	21644
886.775	21751
886.9	21899
887.025	21899
887.149	21774
887.274	21732
887.399	21485
887.523	21496
887.648	21450
887.773	21443
887.897	21629
888.021	21595
888.146	21507
888.27	21671
888.395	21660
888.519	21618
888.643	21568
888.767	21576
888.891	21488
889.015	21283
889.139	21382
889.263	21279
889.387	21435
889.511	21485
889.635	21408
889.759	21370
889.883	21226
890.006	21317
890.13	21488
890.254	21382
890.377	21336
890.501	21123
890.624	21001
890.748	21123
890.871	20990
890.995	20868
891.118	20853
891.241	20975
891.364	20883
891.488	20998
891.611	20918
891.734	20982
891.857	20933
891.98	20731
892.103	20933
892.226	20902
892.349	20781
892.471	20765
892.594	20826
892.717	20845
892.839	20773
892.962	20811
893.085	21013
893.207	20815
893.33	20632
893.452	20670
893.575	20765
893.697	20792
893.819	21032
893.941	21100
894.064	20971
894.186	20838
894.308	20678
894.43	20842
894.552	20902
894.674	20838
894.796	20640
894.918	20746
895.04	20716
895.161	20982
895.283	20842
895.405	20773
895.526	20773
895.648	20830
895.769	20788
895.891	20819
896.012	20792
896.134	20823
896.255	20819
896.376	20800
896.498	20739
896.619	20792
896.74	20834
896.861	20952
896.982	21055
897.103	21150
897.224	21188
897.345	21070
897.466	20941
897.587	20952
897.708	21154
897.828	21032
897.949	21032
898.07	20785
898.19	20921
898.311	21051
898.431	20971
898.552	21009
898.672	21047
898.792	21138
898.913	21001
899.033	20952
899.153	20750
899.273	20777
899.393	20739
899.513	20823
899.633	20678
899.753	20727
899.873	20689
899.993	20807
900.113	20621
900.232	20655
900.352	20667
900.472	20556
900.591	20457
900.711	20438
900.83	20427
900.95	20587
901.069	20609
901.189	20415
901.308	20248
901.427	20024
901.546	20096
901.665	20084
901.784	19978
901.904	20039
902.023	19841
902.141	19655
902.26	19632
902.379	19647
902.498	19487
902.617	19472
902.735	19575
902.854	19518
902.973	19457
903.091	19228
903.21	19175
903.328	19236
903.446	19179
903.565	19168
903.683	19023
903.801	18954
903.919	18996
904.038	18909
904.156	18787
904.274	18989
904.392	18844
904.51	18817
904.627	18783
904.745	18776
904.863	18817
904.981	18650
905.098	18475
905.216	18494
905.334	18494
905.451	18441
905.569	18418
905.686	18452
905.803	18429
905.921	18209
906.038	18418
906.155	18247
906.272	18159
906.389	18216
906.506	17954
906.623	18095
906.74	17863
906.857	17821
906.974	17954
907.091	18064
907.208	18159
907.324	18102
907.441	17805
907.557	17634
907.674	17767
907.79	17630
907.907	17748
908.023	17779
908.139	17752
908.256	17790
908.372	17581
908.488	17581
908.604	17474
908.72	17429
908.836	17505
908.952	17410
909.068	17410
909.184	17585
909.3	17452
909.415	17299
909.531	17467
909.647	17227
909.762	17098
909.878	17109
909.993	17128
910.108	17121
910.224	17060
910.339	17037
910.454	17067
910.57	17018
910.685	16881
910.8	17197
910.915	17083
911.03	16850
911.145	16672
911.259	16706
911.374	16641
911.489	16668
911.604	16584
911.718	16455
911.833	16466
911.947	16322
912.062	16299
912.176	16413
912.291	16443
912.405	16466
912.519	16634
912.633	16622
912.748	16493
912.862	16341
912.976	16223
913.09	16268
913.204	16177
913.318	16234
913.431	16478
913.545	16280
913.659	16436
913.772	16299
913.886	16059
914	16086
914.113	16226
914.226	16124
914.34	16105
914.453	16002
914.566	16188
914.68	15880
914.793	15838
914.906	15629
915.019	15644
915.132	15568
915.245	15599
915.358	15759
915.47	15587
915.583	15606
915.696	15572
915.809	15781
915.921	15774
916.034	15580
916.146	15584
916.259	15447
916.371	15660
916.483	15504
916.595	15542
916.708	15485
916.82	15488
916.932	15458
917.044	15443
917.156	15325
917.268	15237
917.38	15302
917.491	15283
917.603	15279
917.715	15279
917.826	15306
917.938	15272
918.049	15119
918.161	15252
918.272	15317
918.384	15230
918.495	15165
918.606	15024
918.717	15070
918.828	15074
918.939	15024
919.05	14952
919.161	14994
919.272	14804
919.383	14937
919.494	14982
919.604	15138
919.715	15001
919.826	15005
919.936	14979
920.047	15058
920.157	14994
920.267	15138
920.378	15043
920.488	14979
920.598	15169
920.708	15291
920.818	15165
920.928	15100
921.038	15199
921.148	15135
921.258	14895
921.368	14834
921.477	14765
921.587	14701
921.697	14617
921.806	14708
921.916	14636
922.025	14400
922.134	14450
922.244	14286
922.353	14385
922.462	14271
922.571	14065
922.68	14012
922.789	13955
922.898	14035
923.007	13917
923.116	14065
923.224	14001
923.333	13887
923.442	13753
923.55	13807
923.659	13757
923.767	13776
923.876	13791
923.984	13788
924.092	13769
924.201	13677
924.309	13685
924.417	13674
924.525	13639
924.633	13597
924.741	14545
924.849	13460
924.956	13582
925.064	13403
925.172	13358
925.279	13384
925.387	13403
925.494	13438
925.602	13495
925.709	13434
925.816	13343
925.924	13285
926.031	13499
926.138	13297
926.245	13335
926.352	13251
926.459	13499
926.566	13373
926.673	13228
926.779	13145
926.886	13175
926.993	12981
927.099	12916
927.206	12890
927.312	12973
927.419	12909
927.525	12966
927.631	12977
927.737	12749
927.843	12764
927.95	12662
928.056	12760
928.162	12730
928.267	12738
928.373	13297
928.479	12779
928.585	12582
928.69	12722
928.796	12711
928.901	12593
929.007	12525
929.112	12601
929.218	12483
929.323	12445
929.428	12502
929.533	12566
929.638	12315
929.743	12407
929.848	12445
929.953	12391
930.058	12270
930.163	12155
930.267	12129
930.372	12167
930.477	12117
930.581	12292
930.685	12262
930.79	12015
930.894	12026
930.998	11984
931.103	12064
931.207	11798
931.311	11695
931.415	11566
931.519	11436
931.623	11398
