Data from test_V78500241_2815.txt Node
Date: Fri Mar 25 16:01:18 CST 2022
User: usil
Spectrometer: V785-0024
Trigger mode: 0
Integration Time (sec): 4.000000E-1
Scans to average: 1
Nonlinearity correction enabled: false
Boxcar width: 0
Storing dark spectrum: false
XAxis mode: Wavelengths
Number of Pixels in Spectrum: 1024
>>>>>Begin Spectral Data<<<<<
801.071	29037
801.214	28965
801.356	28736
801.499	28653
801.641	28462
801.783	28527
801.926	28615
802.068	28653
802.211	28432
802.353	28394
802.496	28333
802.638	28204
802.78	28124
802.923	28063
803.065	28109
803.208	28181
803.35	28200
803.492	28356
803.635	28417
803.777	28333
803.919	28489
804.061	28683
804.204	28466
804.346	28538
804.488	28325
804.63	28466
804.773	28466
804.915	28455
805.057	28706
805.199	28542
805.341	28519
805.483	28599
805.626	28660
805.768	28580
805.91	28664
806.052	28733
806.194	28596
806.336	28752
806.478	28759
806.62	28626
806.762	28862
806.904	28885
807.046	29174
807.188	29037
807.33	29178
807.472	29200
807.614	28957
807.756	29204
807.898	28904
808.04	28904
808.182	28828
808.324	29033
808.465	28934
808.607	29178
808.749	29273
808.891	29398
809.033	29452
809.174	29364
809.316	29250
809.458	29277
809.6	29322
809.741	29395
809.883	29471
810.025	29733
810.166	29676
810.308	29634
810.45	29623
810.591	29543
810.733	29448
810.875	29360
811.016	29216
811.158	29193
811.299	29436
811.441	29482
811.582	29520
811.724	29478
811.865	29303
812.007	29296
812.148	29482
812.29	29459
812.431	29531
812.573	29752
812.714	29752
812.855	29836
812.997	30121
813.138	30205
813.279	30007
813.421	29862
813.562	29809
813.703	29646
813.845	29505
813.986	29284
814.127	29151
814.268	29128
814.41	29102
814.551	29056
814.692	29181
814.833	28991
814.974	29140
815.115	29067
815.256	28972
815.397	28869
815.539	28961
815.68	28942
815.821	28755
815.962	28927
816.103	28896
816.244	28847
816.385	28603
816.526	28702
816.666	28394
816.807	28497
816.948	28341
817.089	28550
817.23	28500
817.371	28421
817.512	28390
817.653	28367
817.793	28379
817.934	28363
818.075	28379
818.216	28409
818.356	28314
818.497	28272
818.638	28051
818.778	28177
818.919	28242
819.06	28261
819.2	28341
819.341	28489
819.481	28519
819.622	28462
819.762	28721
819.903	28740
820.043	28656
820.184	28401
820.324	28436
820.465	28580
820.605	28481
820.746	28538
820.886	28375
821.026	28493
821.167	28607
821.307	28599
821.447	28344
821.588	28409
821.728	28162
821.868	28097
822.008	27907
822.149	27850
822.289	27838
822.429	27603
822.569	27542
822.709	27644
822.849	27481
822.99	27401
823.13	27450
823.27	27389
823.41	27218
823.55	27173
823.69	27287
823.83	27241
823.97	27173
824.11	27077
824.25	27036
824.389	26971
824.529	27138
824.669	27123
824.809	27203
824.949	27093
825.089	27127
825.228	27131
825.368	26925
825.508	27032
825.648	26940
825.787	26952
825.927	26990
826.067	26811
826.206	26929
826.346	27119
826.485	26960
826.625	26963
826.765	26994
826.904	27051
827.044	26853
827.183	26663
827.323	26583
827.462	26743
827.601	26830
827.741	26765
827.88	26697
828.02	26530
828.159	26609
828.298	26530
828.437	26644
828.577	26693
828.716	26693
828.855	26571
828.994	26240
829.134	26404
829.273	26347
829.412	26366
829.551	26317
829.69	26415
829.829	26366
829.968	26453
830.107	26294
830.246	26446
830.385	26313
830.524	26252
830.663	26187
830.802	26111
830.941	25944
831.08	25978
831.219	26157
831.357	26092
831.496	26191
831.635	25890
831.774	25864
831.913	25849
832.051	25856
832.19	25704
832.329	25765
832.467	25712
832.606	25559
832.744	25685
832.883	25613
833.022	25540
833.16	25719
833.299	25689
833.437	25700
833.576	25761
833.714	25757
833.852	25807
833.991	25788
834.129	25803
834.267	25700
834.406	25696
834.544	25731
834.682	25719
834.821	25761
834.959	25917
835.097	25658
835.235	25807
835.373	25788
835.511	25731
835.65	25552
835.788	25514
835.926	25426
836.064	25407
836.202	25491
836.34	25571
836.478	25556
836.615	25533
836.753	25487
836.891	25715
837.029	25609
837.167	25499
837.305	25419
837.443	25411
837.58	25381
837.718	25499
837.856	25297
837.993	25343
838.131	25297
838.269	25164
838.406	25206
838.544	25107
838.681	25072
838.819	24962
838.956	24764
839.094	24905
839.231	25023
839.369	24992
839.506	25076
839.643	25057
839.781	24711
839.918	24730
840.055	24859
840.193	24795
840.33	24810
840.467	24833
840.604	24783
840.742	25023
840.879	24422
841.016	24642
841.153	24566
841.29	24837
841.427	24669
841.564	24722
841.701	24650
841.838	24875
841.975	24570
842.112	24696
842.249	24376
842.385	24563
842.522	24601
842.659	24559
842.796	24376
842.933	24559
843.069	24308
843.206	24361
843.343	24604
843.479	24509
843.616	24479
843.752	24338
843.889	24342
844.025	24395
844.162	24224
844.298	24338
844.435	24178
844.571	24292
844.708	24243
844.844	24353
844.98	24376
845.117	24304
845.253	24205
845.389	24201
845.525	24133
845.661	24121
845.798	24003
845.934	23992
846.07	24049
846.206	24049
846.342	24026
846.478	23935
846.614	23657
846.75	23577
846.886	23619
847.022	23665
847.158	23786
847.294	23771
847.429	23809
847.565	23615
847.701	23824
847.837	23417
847.972	23406
848.108	23531
848.244	23410
848.379	23387
848.515	23277
848.65	23235
848.786	23265
848.921	23254
849.057	23383
849.192	23383
849.328	23406
849.463	23250
849.598	23261
849.734	23189
849.869	23178
850.004	23075
850.14	23086
850.275	23014
850.41	23014
850.545	23003
850.68	22984
850.815	23143
850.95	22995
851.085	23273
851.22	23094
851.355	23083
851.49	23071
851.625	23044
851.76	23025
851.895	23010
852.03	22881
852.165	23010
852.299	23121
852.434	23143
852.569	23159
852.703	22995
852.838	23006
852.973	23223
853.107	23193
853.242	22908
853.376	22877
853.511	22725
853.645	22854
853.78	22972
853.914	22866
854.048	22782
854.183	22862
854.317	22892
854.451	23075
854.585	22850
854.72	22942
854.854	22957
854.988	22892
855.122	22869
855.256	22752
855.39	22839
855.524	22934
855.658	22923
855.792	22812
855.926	22816
856.06	22892
856.194	22972
856.327	22759
856.461	22744
856.595	22713
856.729	22911
856.862	22953
856.996	22797
857.13	23010
857.263	22965
857.397	22949
857.53	22740
857.664	22911
857.797	22911
857.931	22812
858.064	22793
858.197	23029
858.331	22862
858.464	22843
858.597	22812
858.731	22812
858.864	22790
858.997	22835
859.13	22816
859.263	22873
859.396	22934
859.529	22862
859.662	22866
859.795	22744
859.928	22938
860.061	23006
860.194	23052
860.327	22923
860.46	22839
860.592	22949
860.725	23025
860.858	22889
860.99	22911
861.123	22767
861.256	22824
861.388	22862
861.521	23619
861.653	22729
861.786	22618
861.918	22733
862.05	22679
862.183	22702
862.315	22831
862.447	22793
862.58	22786
862.712	22713
862.844	22557
862.976	22748
863.108	22573
863.24	22991
863.372	22634
863.504	22554
863.636	22580
863.768	22637
863.9	22542
864.032	22455
864.164	22500
864.296	22516
864.428	22660
864.559	22630
864.691	22698
864.823	22641
864.954	22504
865.086	22523
865.217	22455
865.349	22500
865.48	22367
865.612	22394
865.743	22478
865.875	22451
866.006	22341
866.137	22436
866.269	22504
866.4	22459
866.531	22310
866.662	22322
866.793	22409
866.924	22303
867.055	22485
867.186	22432
867.317	22371
867.448	22394
867.579	22337
867.71	22360
867.841	22280
867.972	22371
868.103	22360
868.233	22394
868.364	22295
868.495	22637
868.625	22481
868.756	22691
868.886	22615
869.017	22531
869.147	22717
869.278	22668
869.408	22554
869.539	22596
869.669	22698
869.799	22672
869.929	22843
870.06	22717
870.19	22961
870.32	22927
870.45	22953
870.58	23098
870.71	23098
870.84	23208
870.97	23079
871.1	23060
871.23	23181
871.36	23181
871.489	23105
871.619	23132
871.749	23277
871.879	23250
872.008	23356
872.138	23143
872.267	23220
872.397	23071
872.526	22930
872.656	23041
872.785	23124
872.915	23265
873.044	23303
873.173	23109
873.303	23181
873.432	23284
873.561	23341
873.69	23280
873.819	23128
873.948	23372
874.077	23136
874.206	23273
874.335	23143
874.464	23170
874.593	23410
874.722	23436
874.851	23478
874.979	23455
875.108	23398
875.237	23433
875.365	23284
875.494	23505
875.623	23307
875.751	23258
875.88	23372
876.008	23539
876.136	23623
876.265	23729
876.393	23901
876.521	23847
876.65	23927
876.778	23805
876.906	23824
877.034	23760
877.162	23756
877.29	23668
877.418	23794
877.546	23821
877.674	23585
877.802	23752
877.93	23726
878.058	23699
878.185	23630
878.313	23630
878.441	23764
878.568	23528
878.696	23668
878.824	23775
878.951	23984
879.079	23920
879.206	24114
879.333	23912
879.461	23710
879.588	23935
879.715	23859
879.842	23908
879.97	23897
880.097	23729
880.224	23676
880.351	23714
880.478	23649
880.605	23566
880.732	23592
880.859	23786
880.986	23676
881.112	23505
881.239	23486
881.366	23337
881.493	23235
881.619	23178
881.746	23124
881.872	23216
881.999	23079
882.125	23025
882.252	23140
882.378	22991
882.505	23204
882.631	22877
882.757	22881
882.883	22911
883.01	22733
883.136	22782
883.262	22672
883.388	22557
883.514	22892
883.64	22862
883.766	22763
883.892	22535
884.018	22706
884.143	22702
884.269	22869
884.395	22478
884.52	22268
884.646	22527
884.772	22329
884.897	22360
885.023	22390
885.148	22402
885.274	22641
885.399	22656
885.524	22238
885.65	22436
885.775	22493
885.9	22371
886.025	22508
886.15	22504
886.275	22428
886.4	22398
886.525	22409
886.65	22341
886.775	22341
886.9	22508
887.025	22554
887.149	22219
887.274	22188
887.399	22261
887.523	22185
887.648	22139
887.773	22048
887.897	22337
888.021	22284
888.146	22055
888.27	22398
888.395	22173
888.519	22188
888.643	22253
888.767	22261
888.891	22059
889.015	21956
889.139	22051
889.263	21945
889.387	22010
889.511	22265
889.635	22143
889.759	21937
889.883	21915
890.006	21926
890.13	22116
890.254	21755
890.377	21968
890.501	21838
890.624	21576
890.748	21759
890.871	21618
890.995	21599
891.118	21424
891.241	21435
891.364	21466
891.488	21762
891.611	21564
891.734	21466
891.857	21618
891.98	21389
892.103	21618
892.226	21557
892.349	21431
892.471	21351
892.594	21374
892.717	21386
892.839	21298
892.962	21389
893.085	21443
893.207	21363
893.33	21252
893.452	21264
893.575	21401
893.697	21408
893.819	21603
893.941	21519
894.064	21412
894.186	21184
894.308	21275
894.43	21515
894.552	21618
894.674	21359
894.796	21302
894.918	21443
895.04	21344
895.161	21420
895.283	21310
895.405	21252
895.526	21412
895.648	21310
895.769	21367
895.891	21370
896.012	21473
896.134	21428
896.255	21260
896.376	21332
896.498	21287
896.619	21332
896.74	21477
896.861	21435
896.982	21812
897.103	21816
897.224	21663
897.345	21572
897.466	21473
897.587	21610
897.708	21709
897.828	21690
897.949	21412
898.07	21405
898.19	21595
898.311	21686
898.431	21599
898.552	21538
898.672	21614
898.792	21663
898.913	21606
899.033	21386
899.153	21214
899.273	21336
899.393	21348
899.513	21401
899.633	21393
899.753	21275
899.873	21252
899.993	21332
900.113	21230
900.232	21287
900.352	21302
900.472	21131
900.591	21074
900.711	21089
900.83	20982
900.95	21089
901.069	21047
901.189	20933
901.308	20788
901.427	20640
901.546	20762
901.665	20746
901.784	20594
901.904	20571
902.023	20408
902.141	20225
902.26	20218
902.379	20263
902.498	20149
902.617	20157
902.735	20157
902.854	20054
902.973	19997
903.091	19814
903.21	19734
903.328	19826
903.446	19674
903.565	19670
903.683	19457
903.801	19434
903.919	19460
904.038	19563
904.156	19331
904.274	19343
904.392	19255
904.51	19346
904.627	19282
904.745	19434
904.863	19388
904.981	19027
905.098	18920
905.216	18924
905.334	19046
905.451	18993
905.569	18958
905.686	19084
905.803	18928
905.921	18764
906.038	18791
906.155	18886
906.272	18707
906.389	18730
906.506	18578
906.623	18555
906.74	18631
906.857	18525
906.974	18372
907.091	18631
907.208	18616
907.324	18544
907.441	18456
907.557	18281
907.674	18243
907.79	18197
907.907	18152
908.023	18163
908.139	18270
908.256	18239
908.372	18167
908.488	18053
908.604	18007
908.72	17863
908.836	18019
908.952	17870
909.068	17946
909.184	17996
909.3	17996
909.415	17999
909.531	17927
909.647	17672
909.762	17752
909.878	17543
909.993	17623
910.108	17646
910.224	17577
910.339	17619
910.454	17512
910.57	17501
910.685	17341
910.8	17551
910.915	17596
911.03	17311
911.145	17242
911.259	17204
911.374	17242
911.489	17197
911.604	17083
911.718	16999
911.833	16991
911.947	16790
912.062	16797
912.176	16946
912.291	16976
912.405	16946
912.519	17109
912.633	17064
912.748	16930
912.862	16850
912.976	16744
913.09	16592
913.204	16797
913.318	16744
913.431	16816
913.545	16873
913.659	16778
913.772	16584
913.886	16592
914	16615
914.113	16569
914.226	16584
914.34	16577
914.453	16375
914.566	16573
914.68	16409
914.793	16428
914.906	16215
915.019	16173
915.132	16105
915.245	16044
915.358	16036
915.47	16048
915.583	16116
915.696	16017
915.809	16192
915.921	16131
916.034	16048
916.146	15960
916.259	15953
916.371	16063
916.483	15937
916.595	15876
916.708	15941
916.82	15922
916.932	15892
917.044	15960
917.156	15812
917.268	15823
917.38	15709
917.491	15728
917.603	15705
917.715	15793
917.826	15835
917.938	15618
918.049	15576
918.161	15614
918.272	15854
918.384	15743
918.495	15553
918.606	15496
918.717	15336
918.828	15515
918.939	15507
919.05	15382
919.161	15492
919.272	15112
919.383	15420
919.494	15481
919.604	15663
919.715	15401
919.826	15359
919.936	15393
920.047	15492
920.157	15405
920.267	15572
920.378	15553
920.488	15313
920.598	15450
920.708	15660
920.818	15584
920.928	15549
921.038	15637
921.148	15576
921.258	15386
921.368	15252
921.477	15093
921.587	15161
921.697	14925
921.806	15176
921.916	14967
922.025	14861
922.134	14758
922.244	14682
922.353	14819
922.462	14610
922.571	14507
922.68	14419
922.789	14431
922.898	14457
923.007	14301
923.116	14514
923.224	14454
923.333	14290
923.442	14259
923.55	14225
923.659	14225
923.767	14225
923.876	14164
923.984	14290
924.092	14100
924.201	14027
924.309	14092
924.417	14126
924.525	13936
924.633	13982
924.741	14982
924.849	13902
924.956	13959
925.064	13765
925.172	13734
925.279	13784
925.387	13811
925.494	13655
925.602	13807
925.709	13811
925.816	13681
925.924	13769
926.031	13788
926.138	13719
926.245	13811
926.352	13552
926.459	13658
926.566	13795
926.673	13616
926.779	13521
926.886	13415
926.993	13365
927.099	13190
927.206	13278
927.312	13285
927.419	13251
927.525	13373
927.631	13324
927.737	13221
927.843	13152
927.95	13057
928.056	13107
928.162	13194
928.267	13156
928.373	13628
928.479	13126
928.585	12871
928.69	13027
928.796	12996
928.901	13031
929.007	12745
929.112	12966
929.218	12939
929.323	12863
929.428	12787
929.533	12897
929.638	12772
929.743	12719
929.848	12844
929.953	12768
930.058	12700
930.163	12498
930.267	12471
930.372	12559
930.477	12403
930.581	12677
930.685	12490
930.79	12372
930.894	12395
930.998	12292
931.103	12479
931.207	12019
931.311	12003
931.415	11878
931.519	11756
931.623	11756
