Data from test_V78500241_1971.txt Node
Date: Fri Mar 25 15:55:27 CST 2022
User: usil
Spectrometer: V785-0024
Trigger mode: 0
Integration Time (sec): 4.000000E-1
Scans to average: 1
Nonlinearity correction enabled: false
Boxcar width: 0
Storing dark spectrum: false
XAxis mode: Wavelengths
Number of Pixels in Spectrum: 1024
>>>>>Begin Spectral Data<<<<<
801.071	27618
801.214	27652
801.356	27336
801.499	27310
801.641	27214
801.783	27146
801.926	27173
802.068	27047
802.211	27032
802.353	27051
802.496	26758
802.638	26792
802.78	26705
802.923	26868
803.065	26727
803.208	26686
803.35	26743
803.492	26887
803.635	26925
803.777	26849
803.919	27055
804.061	27245
804.204	27032
804.346	26929
804.488	26861
804.63	27036
804.773	27020
804.915	27028
805.057	27055
805.199	27051
805.341	27211
805.483	27127
805.626	27150
805.768	26956
805.91	27013
806.052	27207
806.194	26921
806.336	27317
806.478	27104
806.62	27009
806.762	27199
806.904	27241
807.046	27610
807.188	27553
807.33	27481
807.472	27603
807.614	27500
807.756	27462
807.898	27302
808.04	27294
808.182	27279
808.324	27382
808.465	27553
808.607	27568
808.749	27800
808.891	27926
809.033	27812
809.174	27785
809.316	27713
809.458	27747
809.6	27641
809.741	27827
809.883	27857
810.025	27934
810.166	28006
810.308	27968
810.45	27854
810.591	27888
810.733	27781
810.875	27789
811.016	27557
811.158	27583
811.299	27732
811.441	27831
811.582	27770
811.724	27690
811.865	27557
812.007	27633
812.148	27564
812.29	27671
812.431	27895
812.573	28044
812.714	28078
812.855	28097
812.997	28211
813.138	28344
813.279	28299
813.421	28021
813.562	28074
813.703	28109
813.845	27888
813.986	27568
814.127	27435
814.268	27386
814.41	27473
814.551	27332
814.692	27530
814.833	27131
814.974	27306
815.115	27329
815.256	27233
815.397	27279
815.539	27108
815.68	27138
815.821	27070
815.962	27256
816.103	27207
816.244	26967
816.385	26952
816.526	26906
816.666	26785
816.807	26720
816.948	26560
817.089	26796
817.23	26724
817.371	26670
817.512	26522
817.653	26533
817.793	26438
817.934	26598
818.075	26659
818.216	26670
818.356	26629
818.497	26522
818.638	26446
818.778	26438
818.919	26301
819.06	26400
819.2	26594
819.341	26575
819.481	26568
819.622	26712
819.762	26937
819.903	26815
820.043	26785
820.184	26823
820.324	26883
820.465	26838
820.605	26792
820.746	26556
820.886	26590
821.026	26697
821.167	26670
821.307	26674
821.447	26602
821.588	26499
821.728	26495
821.868	26324
822.008	26172
822.149	26100
822.289	26134
822.429	25833
822.569	25685
822.709	25826
822.849	25632
822.99	25571
823.13	25506
823.27	25556
823.41	25411
823.55	25255
823.69	25552
823.83	25483
823.97	25327
824.11	25095
824.25	25145
824.389	25171
824.529	25324
824.669	25228
824.809	25221
824.949	25324
825.089	25346
825.228	25289
825.368	25145
825.508	25008
825.648	25019
825.787	25114
825.927	25183
826.067	25069
826.206	25046
826.346	25187
826.485	25072
826.625	25118
826.765	25133
826.904	25152
827.044	24935
827.183	24749
827.323	24719
827.462	24977
827.601	24829
827.741	24844
827.88	24894
828.02	24722
828.159	24700
828.298	24779
828.437	24711
828.577	24726
828.716	24878
828.855	24574
828.994	24585
829.134	24486
829.273	24494
829.412	24388
829.551	24391
829.69	24422
829.829	24460
829.968	24646
830.107	24540
830.246	24471
830.385	24315
830.524	24422
830.663	24422
830.802	24304
830.941	24098
831.08	24136
831.219	24277
831.357	24220
831.496	24258
831.635	24091
831.774	24018
831.913	23889
832.051	23851
832.19	23984
832.329	23901
832.467	23939
832.606	23847
832.744	23699
832.883	23874
833.022	23707
833.16	23790
833.299	23752
833.437	23729
833.576	23889
833.714	23729
833.852	23980
833.991	23946
834.129	23904
834.267	23923
834.406	23783
834.544	23832
834.682	23912
834.821	23843
834.959	23901
835.097	23813
835.235	23843
835.373	23790
835.511	23809
835.65	23714
835.788	23627
835.926	23398
836.064	23490
836.202	23444
836.34	23699
836.478	23752
836.615	23585
836.753	23672
836.891	23615
837.029	23718
837.167	23627
837.305	23573
837.443	23554
837.58	23455
837.718	23653
837.856	23356
837.993	23379
838.131	23452
838.269	23376
838.406	23490
838.544	23334
838.681	23090
838.819	23193
838.956	22862
839.094	22991
839.231	23098
839.369	23044
839.506	23356
839.643	23258
839.781	22908
839.918	22953
840.055	22927
840.193	22991
840.33	22949
840.467	22927
840.604	22934
840.742	23143
840.879	22694
841.016	22911
841.153	22660
841.29	22930
841.427	22862
841.564	23014
841.701	22820
841.838	22744
841.975	22812
842.112	22698
842.249	22721
842.385	22561
842.522	22889
842.659	22858
842.796	22687
842.933	22637
843.069	22538
843.206	22523
843.343	22679
843.479	22557
843.616	22687
843.752	22421
843.889	22367
844.025	22546
844.162	22344
844.298	22508
844.435	22402
844.571	22360
844.708	22394
844.844	22474
844.98	22478
845.117	22451
845.253	22360
845.389	22322
845.525	22246
845.661	22284
845.798	22067
845.934	22181
846.07	22147
846.206	22200
846.342	22421
846.478	22044
846.614	21888
846.75	21770
846.886	21819
847.022	21941
847.158	21869
847.294	21911
847.429	21915
847.565	21842
847.701	22238
847.837	21720
847.972	21519
848.108	21717
848.244	21717
848.379	21568
848.515	21481
848.65	21488
848.786	21557
848.921	21530
849.057	21603
849.192	21542
849.328	21534
849.463	21428
849.598	21466
849.734	21473
849.869	21386
850.004	21150
850.14	21195
850.275	21268
850.41	21226
850.545	21176
850.68	21275
850.815	21176
850.95	21230
851.085	21412
851.22	21393
851.355	21344
851.49	21275
851.625	21230
851.76	21291
851.895	21211
852.03	21093
852.165	21127
852.299	21325
852.434	21329
852.569	21310
852.703	21199
852.838	21154
852.973	21367
853.107	21367
853.242	21180
853.376	21058
853.511	20937
853.645	21070
853.78	21192
853.914	21291
854.048	20971
854.183	21123
854.317	21222
854.451	21340
854.585	21058
854.72	20967
854.854	21062
854.988	20910
855.122	21024
855.256	20975
855.39	21001
855.524	21116
855.658	21188
855.792	21051
855.926	21017
856.06	21154
856.194	21135
856.327	21074
856.461	20979
856.595	20967
856.729	21032
856.862	21142
856.996	21119
857.13	21249
857.263	21184
857.397	21131
857.53	21005
857.664	21074
857.797	21207
857.931	21176
858.064	21112
858.197	21233
858.331	21055
858.464	21070
858.597	20967
858.731	20944
858.864	21032
858.997	20971
859.13	21119
859.263	21081
859.396	21131
859.529	20941
859.662	21066
859.795	21036
859.928	21089
860.061	21252
860.194	21325
860.327	21154
860.46	21077
860.592	21294
860.725	21184
860.858	21154
860.99	21055
861.123	21036
861.256	21055
861.388	21135
861.521	21774
861.653	20838
861.786	20861
861.918	20804
862.05	20967
862.183	20941
862.315	21032
862.447	21100
862.58	21017
862.712	20834
862.844	20758
862.976	20887
863.108	20887
863.24	21203
863.372	20686
863.504	20678
863.636	20918
863.768	20731
863.9	20758
864.032	20636
864.164	20727
864.296	20826
864.428	20861
864.559	20792
864.691	20925
864.823	20811
864.954	20659
865.086	20739
865.217	20697
865.349	20537
865.48	20609
865.612	20720
865.743	20735
865.875	20819
866.006	20682
866.137	20724
866.269	20697
866.4	20629
866.531	20629
866.662	20579
866.793	20678
866.924	20499
867.055	20636
867.186	20606
867.317	20594
867.448	20518
867.579	20640
867.71	20560
867.841	20533
867.972	20575
868.103	20602
868.233	20667
868.364	20682
868.495	20739
868.625	20754
868.756	21074
868.886	20853
869.017	20914
869.147	20910
869.278	20921
869.408	20914
869.539	20910
869.669	20929
869.799	20861
869.929	21058
870.06	21058
870.19	21214
870.32	21207
870.45	21142
870.58	21233
870.71	21367
870.84	21359
870.97	21260
871.1	21272
871.23	21462
871.36	21458
871.489	21294
871.619	21359
871.749	21466
871.879	21450
872.008	21477
872.138	21431
872.267	21332
872.397	21367
872.526	21230
872.656	21294
872.785	21283
872.915	21507
873.044	21580
873.173	21538
873.303	21675
873.432	21580
873.561	21606
873.69	21481
873.819	21435
873.948	21439
874.077	21466
874.206	21485
874.335	21439
874.464	21633
874.593	21656
874.722	21667
874.851	21831
874.979	21732
875.108	21766
875.237	21603
875.365	21709
875.494	21709
875.623	21789
875.751	21736
875.88	21709
876.008	21808
876.136	22021
876.265	22135
876.393	22257
876.521	22188
876.65	22207
876.778	21994
876.906	22048
877.034	21987
877.162	21964
877.29	22059
877.418	22010
877.546	22051
877.674	21960
877.802	21945
877.93	22101
878.058	21964
878.185	21903
878.313	22032
878.441	22010
878.568	21759
878.696	21998
878.824	22135
878.951	22196
879.079	22196
879.206	22314
879.333	22234
879.461	22097
879.588	22223
879.715	22211
879.842	22333
879.97	22154
880.097	21915
880.224	21949
880.351	21987
880.478	21865
880.605	21781
880.732	21945
880.859	22154
880.986	21975
881.112	21785
881.239	21842
881.366	21648
881.493	21557
881.619	21515
881.746	21477
881.872	21496
881.999	21378
882.125	21321
882.252	21553
882.378	21382
882.505	21500
882.631	21252
882.757	21222
882.883	21169
883.01	21169
883.136	21195
883.262	21062
883.388	21036
883.514	21127
883.64	21199
883.766	21055
883.892	20986
884.018	21017
884.143	21112
884.269	21199
884.395	20868
884.52	20811
884.646	20769
884.772	20659
884.897	20731
885.023	20891
885.148	20845
885.274	20952
885.399	20937
885.524	20899
885.65	20838
885.775	20746
885.9	20579
886.025	20918
886.15	20861
886.275	20788
886.4	20705
886.525	20716
886.65	20811
886.775	20644
886.9	20819
887.025	20994
887.149	20845
887.274	20625
887.399	20682
887.523	20514
887.648	20518
887.773	20564
887.897	20640
888.021	20598
888.146	20503
888.27	20648
888.395	20609
888.519	20644
888.643	20583
888.767	20667
888.891	20454
889.015	20419
889.139	20415
889.263	20370
889.387	20522
889.511	20655
889.635	20549
889.759	20332
889.883	20377
890.006	20404
890.13	20488
890.254	20366
890.377	20195
890.501	20191
890.624	20081
890.748	20240
890.871	20039
890.995	19982
891.118	20016
891.241	19989
891.364	19986
891.488	20020
891.611	19936
891.734	20016
891.857	20001
891.98	19970
892.103	19951
892.226	19887
892.349	19803
892.471	19822
892.594	19913
892.717	19906
892.839	19727
892.962	19925
893.085	19989
893.207	19830
893.33	19727
893.452	19723
893.575	19902
893.697	19879
893.819	20096
893.941	20005
894.064	20031
894.186	19791
894.308	19746
894.43	19959
894.552	20005
894.674	19970
894.796	19883
894.918	19978
895.04	19708
895.161	19967
895.283	19890
895.405	19784
895.526	19940
895.648	19841
895.769	19909
895.891	19852
896.012	19997
896.134	19830
896.255	19959
896.376	19868
896.498	19875
896.619	19932
896.74	19860
896.861	19906
896.982	20206
897.103	20377
897.224	20103
897.345	20100
897.466	20046
897.587	20153
897.708	20267
897.828	19986
897.949	20027
898.07	19852
898.19	20054
898.311	20195
898.431	20039
898.552	20092
898.672	20221
898.792	20073
898.913	20073
899.033	20081
899.153	19742
899.273	19841
899.393	19936
899.513	19959
899.633	19852
899.753	19967
899.873	19757
899.993	19955
900.113	19769
900.232	19837
900.352	19811
900.472	19757
900.591	19533
900.711	19685
900.83	19613
900.95	19795
901.069	19708
901.189	19495
901.308	19377
901.427	19240
901.546	19339
901.665	19266
901.784	19225
901.904	19072
902.023	19004
902.141	18802
902.26	18791
902.379	18776
902.498	18681
902.617	18768
902.735	18730
902.854	18669
902.973	18563
903.091	18460
903.21	18456
903.328	18479
903.446	18258
903.565	18239
903.683	18205
903.801	18133
903.919	18300
904.038	18277
904.156	18022
904.274	18163
904.392	17988
904.51	17954
904.627	17977
904.745	18007
904.863	18125
904.981	17855
905.098	17714
905.216	17745
905.334	17703
905.451	17695
905.569	17547
905.686	17589
905.803	17627
905.921	17486
906.038	17516
906.155	17532
906.272	17326
906.389	17345
906.506	17197
906.623	17239
906.74	17223
906.857	17060
906.974	17136
907.091	17185
907.208	17364
907.324	17239
907.441	17208
907.557	16949
907.674	16831
907.79	16847
907.907	16828
908.023	16908
908.139	16934
908.256	16927
908.372	16729
908.488	16752
908.604	16675
908.72	16565
908.836	16622
908.952	16558
909.068	16733
909.184	16744
909.3	16588
909.415	16656
909.531	16687
909.647	16352
909.762	16333
909.878	16352
909.993	16299
910.108	16314
910.224	16230
910.339	16295
910.454	16230
910.57	16063
910.685	16124
910.8	16276
910.915	16329
911.03	16223
911.145	16006
911.259	15994
911.374	15945
911.489	15850
911.604	15873
911.718	15713
911.833	15686
911.947	15644
912.062	15595
912.176	15622
912.291	15759
912.405	15660
912.519	15994
912.633	15774
912.748	15724
912.862	15644
912.976	15485
913.09	15325
913.204	15504
913.318	15580
913.431	15663
913.545	15591
913.659	15614
913.772	15488
913.886	15329
914	15355
914.113	15325
914.226	15348
914.34	15477
914.453	15222
914.566	15317
914.68	15214
914.793	15218
914.906	15017
915.019	14918
915.132	14849
915.245	14899
915.358	14891
915.47	14910
915.583	14937
915.696	14861
915.809	15070
915.921	14979
916.034	14773
916.146	14708
916.259	14872
916.371	14914
916.483	14815
916.595	14807
916.708	14792
916.82	14804
916.932	14720
917.044	14712
917.156	14670
917.268	14613
917.38	14579
917.491	14434
917.603	14663
917.715	14571
917.826	14640
917.938	14541
918.049	14385
918.161	14431
918.272	14735
918.384	14629
918.495	14537
918.606	14423
918.717	14252
918.828	14263
918.939	14396
919.05	14233
919.161	14362
919.272	14153
919.383	14142
919.494	14290
919.604	14568
919.715	14400
919.826	14233
919.936	14336
920.047	14404
920.157	14336
920.267	14495
920.378	14252
920.488	14229
920.598	14476
920.708	14503
920.818	14446
920.928	14457
921.038	14659
921.148	14587
921.258	14305
921.368	14248
921.477	14069
921.587	14027
921.697	13913
921.806	13986
921.916	13959
922.025	13719
922.134	13674
922.244	13666
922.353	13696
922.462	13655
922.571	13548
922.68	13324
922.789	13369
922.898	13415
923.007	13232
923.116	13415
923.224	13232
923.333	13403
923.442	13187
923.55	13209
923.659	13255
923.767	13228
923.876	13190
923.984	13221
924.092	13027
924.201	13088
924.309	13164
924.417	13129
924.525	13069
924.633	13015
924.741	13951
924.849	12886
924.956	12985
925.064	12821
925.172	12696
925.279	12738
925.387	12833
925.494	12749
925.602	12954
925.709	12848
925.816	12673
925.924	12696
926.031	12734
926.138	12696
926.245	12795
926.352	12585
926.459	12734
926.566	12779
926.673	12673
926.779	12547
926.886	12544
926.993	12448
927.099	12391
927.206	12220
927.312	12296
927.419	12369
927.525	12334
927.631	12441
927.737	12235
927.843	12228
927.95	12136
928.056	12140
928.162	12205
928.267	12167
928.373	12863
928.479	12266
928.585	12003
928.69	12144
928.796	12178
928.901	12045
929.007	11897
929.112	12053
929.218	12034
929.323	11958
929.428	11885
929.533	12003
929.638	11752
929.743	11878
929.848	11942
929.953	11824
930.058	11775
930.163	11665
930.267	11619
930.372	11748
930.477	11509
930.581	11779
930.685	11634
930.79	11516
930.894	11516
930.998	11497
931.103	11581
931.207	11250
931.311	11098
931.415	11079
931.519	10858
931.623	10843
