Data from test_V78500241_483.txt Node
Date: Fri Mar 25 15:45:08 CST 2022
User: usil
Spectrometer: V785-0024
Trigger mode: 0
Integration Time (sec): 4.000000E-1
Scans to average: 1
Nonlinearity correction enabled: false
Boxcar width: 0
Storing dark spectrum: false
XAxis mode: Wavelengths
Number of Pixels in Spectrum: 1024
>>>>>Begin Spectral Data<<<<<
801.071	27618
801.214	27507
801.356	27325
801.499	27165
801.641	27245
801.783	27169
801.926	27138
802.068	27074
802.211	27066
802.353	27001
802.496	26739
802.638	26849
802.78	26921
802.923	26648
803.065	26678
803.208	26746
803.35	26811
803.492	27001
803.635	26895
803.777	26804
803.919	26887
804.061	27135
804.204	27047
804.346	26918
804.488	26800
804.63	26914
804.773	26853
804.915	26979
805.057	27051
805.199	26853
805.341	26952
805.483	26975
805.626	27119
805.768	27017
805.91	27176
806.052	27039
806.194	26986
806.336	27275
806.478	27066
806.62	27028
806.762	27138
806.904	27370
807.046	27542
807.188	27561
807.33	27401
807.472	27587
807.614	27408
807.756	27382
807.898	27344
808.04	27283
808.182	27252
808.324	27195
808.465	27310
808.607	27367
808.749	27618
808.891	27797
809.033	27800
809.174	27781
809.316	27759
809.458	27743
809.6	27652
809.741	27720
809.883	27595
810.025	27819
810.166	28002
810.308	28002
810.45	27903
810.591	27979
810.733	27709
810.875	27622
811.016	27534
811.158	27633
811.299	27861
811.441	27884
811.582	27869
811.724	27629
811.865	27717
812.007	27667
812.148	27698
812.29	27846
812.431	27876
812.573	28135
812.714	28139
812.855	28261
812.997	28310
813.138	28440
813.279	28405
813.421	28329
813.562	28223
813.703	27979
813.845	27922
813.986	27606
814.127	27439
814.268	27363
814.41	27294
814.551	27397
814.692	27443
814.833	27241
814.974	27427
815.115	27218
815.256	27302
815.397	27100
815.539	27348
815.68	27146
815.821	27116
815.962	27157
816.103	27135
816.244	26910
816.385	26842
816.526	26842
816.666	26834
816.807	26617
816.948	26568
817.089	26811
817.23	26552
817.371	26621
817.512	26636
817.653	26511
817.793	26617
817.934	26552
818.075	26731
818.216	26651
818.356	26644
818.497	26583
818.638	26267
818.778	26305
818.919	26434
819.06	26389
819.2	26488
819.341	26579
819.481	26613
819.622	26765
819.762	26963
819.903	26731
820.043	26811
820.184	26712
820.324	26617
820.465	26735
820.605	26697
820.746	26648
820.886	26488
821.026	26621
821.167	26762
821.307	26598
821.447	26659
821.588	26568
821.728	26431
821.868	26351
822.008	26168
822.149	26096
822.289	26008
822.429	25837
822.569	25746
822.709	25708
822.849	25609
822.99	25559
823.13	25476
823.27	25559
823.41	25358
823.55	25285
823.69	25339
823.83	25289
823.97	25244
824.11	25168
824.25	25152
824.389	25213
824.529	25175
824.669	25046
824.809	25411
824.949	25247
825.089	25270
825.228	25316
825.368	25053
825.508	25122
825.648	25057
825.787	25095
825.927	25133
826.067	25103
826.206	25046
826.346	25072
826.485	25156
826.625	25156
826.765	25152
826.904	25129
827.044	24947
827.183	24764
827.323	24620
827.462	24913
827.601	24749
827.741	24806
827.88	24810
828.02	24684
828.159	24635
828.298	24776
828.437	24916
828.577	24753
828.716	24738
828.855	24684
828.994	24582
829.134	24475
829.273	24509
829.412	24323
829.551	24429
829.69	24414
829.829	24593
829.968	24505
830.107	24517
830.246	24456
830.385	24490
830.524	24361
830.663	24426
830.802	24152
830.941	24117
831.08	23996
831.219	24098
831.357	24003
831.496	24300
831.635	24079
831.774	23942
831.913	24053
832.051	23859
832.19	23958
832.329	23988
832.467	23832
832.606	23649
832.744	23783
832.883	23528
833.022	23790
833.16	23851
833.299	23832
833.437	23904
833.576	23821
833.714	23863
833.852	23783
833.991	23813
834.129	23893
834.267	23779
834.406	23764
834.544	23897
834.682	23802
834.821	23779
834.959	23969
835.097	23680
835.235	23832
835.373	23783
835.511	23691
835.65	23520
835.788	23566
835.926	23592
836.064	23505
836.202	23547
836.34	23699
836.478	23687
836.615	23680
836.753	23703
836.891	23714
837.029	23684
837.167	23573
837.305	23516
837.443	23554
837.58	23570
837.718	23596
837.856	23429
837.993	23539
838.131	23459
838.269	23223
838.406	23387
838.544	23284
838.681	23140
838.819	23044
838.956	23010
839.094	22904
839.231	23033
839.369	23124
839.506	23330
839.643	23280
839.781	22972
839.918	22919
840.055	22927
840.193	23060
840.33	22854
840.467	22953
840.604	22946
840.742	23151
840.879	22824
841.016	22904
841.153	22786
841.29	23037
841.427	22809
841.564	22862
841.701	22873
841.838	22930
841.975	22733
842.112	22809
842.249	22660
842.385	22664
842.522	22831
842.659	22698
842.796	22626
842.933	22694
843.069	22592
843.206	22584
843.343	22847
843.479	22508
843.616	22729
843.752	22382
843.889	22432
844.025	22569
844.162	22390
844.298	22398
844.435	22348
844.571	22504
844.708	22421
844.844	22660
844.98	22554
845.117	22527
845.253	22341
845.389	22341
845.525	22291
845.661	22211
845.798	22124
845.934	22177
846.07	22059
846.206	22074
846.342	22234
846.478	22040
846.614	21991
846.75	21819
846.886	21751
847.022	21922
847.158	21819
847.294	21846
847.429	21941
847.565	21857
847.701	22059
847.837	21564
847.972	21534
848.108	21713
848.244	21633
848.379	21496
848.515	21496
848.65	21363
848.786	21397
848.921	21405
849.057	21618
849.192	21557
849.328	21622
849.463	21416
849.598	21458
849.734	21389
849.869	21351
850.004	21211
850.14	21268
850.275	21233
850.41	21199
850.545	21036
850.68	21241
850.815	21237
850.95	21169
851.085	21351
851.22	21245
851.355	21287
851.49	21165
851.625	21256
851.76	21112
851.895	21100
852.03	21112
852.165	21100
852.299	21249
852.434	21279
852.569	21230
852.703	21256
852.838	21218
852.973	21256
853.107	21382
853.242	21207
853.376	21074
853.511	20925
853.645	20986
853.78	21157
853.914	21043
854.048	21051
854.183	20963
854.317	21089
854.451	21230
854.585	21074
854.72	21108
854.854	21104
854.988	21013
855.122	21032
855.256	20902
855.39	20982
855.524	21085
855.658	21176
855.792	21039
855.926	21020
856.06	21020
856.194	21039
856.327	20956
856.461	21005
856.595	20990
856.729	21085
856.862	21161
856.996	21058
857.13	21207
857.263	21154
857.397	21150
857.53	21028
857.664	21055
857.797	21085
857.931	21294
858.064	21116
858.197	21142
858.331	20941
858.464	20960
858.597	20937
858.731	21017
858.864	21001
858.997	21036
859.13	21154
859.263	21051
859.396	21184
859.529	20921
859.662	21024
859.795	20933
859.928	21108
860.061	21096
860.194	21260
860.327	21161
860.46	21017
860.592	21233
860.725	21203
860.858	21138
860.99	21066
861.123	20990
861.256	20864
861.388	20986
861.521	21652
861.653	21028
861.786	20739
861.918	20845
862.05	20910
862.183	20952
862.315	20952
862.447	21039
862.58	20956
862.712	20724
862.844	20712
862.976	20838
863.108	20804
863.24	21218
863.372	20739
863.504	20788
863.636	20670
863.768	20743
863.9	20758
864.032	20629
864.164	20693
864.296	20750
864.428	20830
864.559	20857
864.691	20823
864.823	20743
864.954	20640
865.086	20689
865.217	20674
865.349	20549
865.48	20609
865.612	20678
865.743	20743
865.875	20689
866.006	20549
866.137	20609
866.269	20632
866.4	20621
866.531	20602
866.662	20617
866.793	20571
866.924	20644
867.055	20583
867.186	20632
867.317	20545
867.448	20446
867.579	20617
867.71	20537
867.841	20575
867.972	20530
868.103	20636
868.233	20495
868.364	20636
868.495	20720
868.625	20788
868.756	20918
868.886	20663
869.017	20899
869.147	21001
869.278	20952
869.408	20804
869.539	20807
869.669	20906
869.799	20872
869.929	20902
870.06	21028
870.19	21188
870.32	21207
870.45	21211
870.58	21325
870.71	21332
870.84	21363
870.97	21230
871.1	21329
871.23	21408
871.36	21412
871.489	21359
871.619	21340
871.749	21401
871.879	21504
872.008	21557
872.138	21488
872.267	21397
872.397	21218
872.526	21184
872.656	21291
872.785	21203
872.915	21496
873.044	21458
873.173	21488
873.303	21515
873.432	21469
873.561	21545
873.69	21542
873.819	21431
873.948	21492
874.077	21515
874.206	21405
874.335	21481
874.464	21496
874.593	21759
874.722	21618
874.851	21736
874.979	21690
875.108	21751
875.237	21679
875.365	21572
875.494	21675
875.623	21663
875.751	21622
875.88	21739
876.008	21743
876.136	21857
876.265	22078
876.393	22181
876.521	22192
876.65	22150
876.778	22147
876.906	22021
877.034	21979
877.162	22044
877.29	21907
877.418	22051
877.546	22101
877.674	22120
877.802	22082
877.93	22044
878.058	21998
878.185	21895
878.313	21846
878.441	21945
878.568	21857
878.696	22040
878.824	22059
878.951	22253
879.079	22169
879.206	22310
879.333	22188
879.461	22025
879.588	22173
879.715	22272
879.842	22230
879.97	22158
880.097	21937
880.224	21717
880.351	21899
880.478	21808
880.605	21850
880.732	21888
880.859	22090
880.986	21732
881.112	21774
881.239	21667
881.366	21511
881.493	21542
881.619	21397
881.746	21549
881.872	21416
881.999	21355
882.125	21401
882.252	21458
882.378	21428
882.505	21553
882.631	21351
882.757	21192
882.883	21180
883.01	21154
883.136	21013
883.262	20998
883.388	20925
883.514	21195
883.64	21142
883.766	21131
883.892	20929
884.018	20963
884.143	21138
884.269	21116
884.395	20769
884.52	20819
884.646	20899
884.772	20743
884.897	20644
885.023	20857
885.148	20773
885.274	20941
885.399	20857
885.524	20731
885.65	20838
885.775	20925
885.9	20758
886.025	20868
886.15	20785
886.275	20739
886.4	20659
886.525	20754
886.65	20636
886.775	20625
886.9	20883
887.025	21001
887.149	20777
887.274	20549
887.399	20530
887.523	20526
887.648	20454
887.773	20381
887.897	20518
888.021	20682
888.146	20442
888.27	20545
888.395	20560
888.519	20594
888.643	20549
888.767	20552
888.891	20507
889.015	20427
889.139	20427
889.263	20423
889.387	20393
889.511	20575
889.635	20564
889.759	20259
889.883	20256
890.006	20370
890.13	20533
890.254	20206
890.377	20358
890.501	20161
890.624	20103
890.748	20115
890.871	20016
890.995	19932
891.118	19871
891.241	19909
891.364	20012
891.488	20027
891.611	19883
891.734	19986
891.857	19955
891.98	19955
892.103	19944
892.226	20012
892.349	19868
892.471	19753
892.594	19833
892.717	19742
892.839	19719
892.962	19951
893.085	19830
893.207	19852
893.33	19742
893.452	19689
893.575	19909
893.697	19879
893.819	19887
893.941	20027
894.064	19982
894.186	19830
894.308	19674
894.43	19947
894.552	19955
894.674	19967
894.796	19776
894.918	19788
895.04	19776
895.161	19837
895.283	19925
895.405	19818
895.526	19875
895.648	19791
895.769	19902
895.891	19856
896.012	20020
896.134	19902
896.255	19837
896.376	19875
896.498	19795
896.619	19845
896.74	19898
896.861	19932
896.982	20111
897.103	20381
897.224	20092
897.345	20046
897.466	19963
897.587	20012
897.708	20122
897.828	20138
897.949	19993
898.07	19906
898.19	19982
898.311	20164
898.431	20046
898.552	20065
898.672	20073
898.792	20088
898.913	20054
899.033	20005
899.153	19936
899.273	19814
899.393	19830
899.513	19830
899.633	19689
899.753	19906
899.873	19868
899.993	19890
900.113	19845
900.232	19871
900.352	19830
900.472	19780
900.591	19556
900.711	19719
900.83	19635
900.95	19571
901.069	19624
901.189	19620
901.308	19312
901.427	19221
901.546	19335
901.665	19198
901.784	19168
901.904	18935
902.023	18996
902.141	18745
902.26	18730
902.379	18867
902.498	18661
902.617	18635
902.735	18734
902.854	18707
902.973	18597
903.091	18353
903.21	18403
903.328	18414
903.446	18292
903.565	18148
903.683	18235
903.801	18034
903.919	18106
904.038	18098
904.156	18022
904.274	18068
904.392	17863
904.51	18015
904.627	18011
904.745	18034
904.863	18045
904.981	17798
905.098	17722
905.216	17672
905.334	17745
905.451	17600
905.569	17554
905.686	17634
905.803	17615
905.921	17467
906.038	17596
906.155	17448
906.272	17395
906.389	17311
906.506	17132
906.623	17185
906.74	17124
906.857	17052
906.974	17117
907.091	17216
907.208	17299
907.324	17223
907.441	17090
907.557	16946
907.674	16965
907.79	16824
907.907	16801
908.023	16942
908.139	16911
908.256	16843
908.372	16858
908.488	16752
908.604	16683
908.72	16588
908.836	16618
908.952	16615
909.068	16672
909.184	16717
909.3	16546
909.415	16698
909.531	16584
909.647	16413
909.762	16314
909.878	16284
909.993	16367
910.108	16352
910.224	16234
910.339	16413
910.454	16268
910.57	16128
910.685	16078
910.8	16398
910.915	16226
911.03	16093
911.145	15960
911.259	15949
911.374	15865
911.489	15785
911.604	15808
911.718	15656
911.833	15652
911.947	15660
912.062	15557
912.176	15736
912.291	15675
912.405	15732
912.519	15937
912.633	15915
912.748	15724
912.862	15603
912.976	15351
913.09	15367
913.204	15439
913.318	15473
913.431	15553
913.545	15469
913.659	15591
913.772	15389
913.886	15237
914	15298
914.113	15348
914.226	15359
914.34	15363
914.453	15047
914.566	15351
914.68	15195
914.793	15013
914.906	14925
915.019	14872
915.132	14891
915.245	14895
915.358	14910
915.47	14872
915.583	14861
915.696	14914
915.809	14956
915.921	14933
916.034	14815
916.146	14724
916.259	14777
916.371	14864
916.483	14876
916.595	14785
916.708	14754
916.82	14750
916.932	14682
917.044	14659
917.156	14674
917.268	14518
917.38	14480
917.491	14526
917.603	14587
917.715	14648
917.826	14644
917.938	14427
918.049	14431
918.161	14488
918.272	14636
918.384	14575
918.495	14446
918.606	14423
918.717	14286
918.828	14320
918.939	14336
919.05	14233
919.161	14294
919.272	14020
919.383	14119
919.494	14366
919.604	14465
919.715	14240
919.826	14256
919.936	14240
920.047	14290
920.157	14343
920.267	14499
920.378	14290
920.488	14214
920.598	14484
920.708	14579
920.818	14438
920.928	14438
921.038	14552
921.148	14610
921.258	14187
921.368	14161
921.477	13970
921.587	14092
921.697	13860
921.806	14008
921.916	13963
922.025	13734
922.134	13704
922.244	13647
922.353	13712
922.462	13559
922.571	13552
922.68	13373
922.789	13285
922.898	13350
923.007	13312
923.116	13350
923.224	13324
923.333	13335
923.442	13293
923.55	13232
923.659	13247
923.767	13244
923.876	13175
923.984	13251
924.092	13046
924.201	13072
924.309	13038
924.417	13164
924.525	13019
924.633	13118
924.741	13860
924.849	12859
924.956	12985
925.064	12779
925.172	12700
925.279	12817
925.387	12840
925.494	12795
925.602	12894
925.709	12787
925.816	12654
925.924	12753
926.031	12814
926.138	12768
926.245	12768
926.352	12738
926.459	12741
926.566	12867
926.673	12722
926.779	12525
926.886	12559
926.993	12388
927.099	12452
927.206	12361
927.312	12300
927.419	12418
927.525	12437
927.631	12418
927.737	12152
927.843	12243
927.95	12068
928.056	12194
928.162	12152
928.267	12304
928.373	12814
928.479	12281
928.585	12038
928.69	12167
928.796	12091
928.901	12117
929.007	11912
929.112	12076
929.218	12038
929.323	12022
929.428	11992
929.533	12121
929.638	11828
929.743	11863
929.848	11931
929.953	11859
930.058	11790
930.163	11649
930.267	11680
930.372	11707
930.477	11543
930.581	11790
930.685	11684
930.79	11562
930.894	11543
930.998	11474
931.103	11649
931.207	11277
931.311	11185
931.415	11052
931.519	10938
931.623	11003
