Data from test_V78500241_2585.txt Node
Date: Fri Mar 25 15:59:42 CST 2022
User: usil
Spectrometer: V785-0024
Trigger mode: 0
Integration Time (sec): 4.000000E-1
Scans to average: 1
Nonlinearity correction enabled: false
Boxcar width: 0
Storing dark spectrum: false
XAxis mode: Wavelengths
Number of Pixels in Spectrum: 1024
>>>>>Begin Spectral Data<<<<<
801.071	28592
801.214	28577
801.356	28401
801.499	28360
801.641	28185
801.783	28124
801.926	28333
802.068	28223
802.211	28021
802.353	28036
802.496	27861
802.638	27918
802.78	27759
802.923	27766
803.065	27857
803.208	27774
803.35	27823
803.492	28006
803.635	28090
803.777	27914
803.919	28021
804.061	28466
804.204	28097
804.346	27983
804.488	27960
804.63	28002
804.773	27987
804.915	28131
805.057	28249
805.199	28090
805.341	28101
805.483	28128
805.626	28192
805.768	28242
805.91	28169
806.052	28207
806.194	27998
806.336	28466
806.478	28268
806.62	28360
806.762	28421
806.904	28493
807.046	28801
807.188	28634
807.33	28679
807.472	28713
807.614	28694
807.756	28459
807.898	28580
808.04	28363
808.182	28443
808.324	28573
808.465	28645
808.607	28793
808.749	29067
808.891	28915
809.033	29041
809.174	28930
809.316	28991
809.458	28919
809.6	28885
809.741	28858
809.883	29018
810.025	29121
810.166	29299
810.308	29220
810.45	29159
810.591	29223
810.733	28953
810.875	28911
811.016	28717
811.158	28854
811.299	28888
811.441	29102
811.582	28938
811.724	28809
811.865	28949
812.007	28850
812.148	28881
812.29	29048
812.431	29071
812.573	29223
812.714	29341
812.855	29440
812.997	29581
813.138	29611
813.279	29566
813.421	29516
813.562	29204
813.703	29223
813.845	29052
813.986	28831
814.127	28691
814.268	28527
814.41	28592
814.551	28706
814.692	28611
814.833	28462
814.974	28386
815.115	28752
815.256	28478
815.397	28489
815.539	28451
815.68	28455
815.821	28481
815.962	28428
816.103	28440
816.244	28230
816.385	28181
816.526	28280
816.666	28029
816.807	27956
816.948	27899
817.089	27907
817.23	27956
817.371	27907
817.512	27816
817.653	27865
817.793	27793
817.934	28025
818.075	27922
818.216	27934
818.356	27876
818.497	27713
818.638	27785
818.778	27812
818.919	27671
819.06	27728
819.2	27884
819.341	27880
819.481	27842
819.622	28120
819.762	28268
819.903	28090
820.043	28143
820.184	28006
820.324	28002
820.465	28048
820.605	28093
820.746	28010
820.886	27975
821.026	27934
821.167	27960
821.307	28188
821.447	28025
821.588	27819
821.728	27770
821.868	27450
822.008	27450
822.149	27291
822.289	27408
822.429	27154
822.569	27058
822.709	27100
822.849	26967
822.99	26960
823.13	26868
823.27	26960
823.41	26636
823.55	26708
823.69	26678
823.83	26621
823.97	26663
824.11	26617
824.25	26453
824.389	26594
824.529	26667
824.669	26537
824.809	26594
824.949	26640
825.089	26659
825.228	26549
825.368	26377
825.508	26370
825.648	26503
825.787	26408
825.927	26693
826.067	26469
826.206	26366
826.346	26453
826.485	26552
826.625	26419
826.765	26686
826.904	26450
827.044	26187
827.183	26286
827.323	26134
827.462	26240
827.601	26358
827.741	26164
827.88	26153
828.02	26024
828.159	26237
828.298	26180
828.437	26221
828.577	26008
828.716	26199
828.855	26134
828.994	25845
829.134	25818
829.273	25932
829.412	25761
829.551	25845
829.69	25986
829.829	25757
829.968	26024
830.107	25887
830.246	25947
830.385	25769
830.524	25738
830.663	25590
830.802	25647
830.941	25533
831.08	25343
831.219	25590
831.357	25377
831.496	25635
831.635	25381
831.774	25354
831.913	25301
832.051	25217
832.19	25175
832.329	25255
832.467	25095
832.606	25072
832.744	25046
832.883	25057
833.022	25114
833.16	25129
833.299	25198
833.437	25244
833.576	25171
833.714	25266
833.852	25213
833.991	25179
834.129	25373
834.267	25247
834.406	25148
834.544	25198
834.682	25171
834.821	25160
834.959	25434
835.097	25129
835.235	25187
835.373	25156
835.511	25126
835.65	25091
835.788	25084
835.926	25107
836.064	24829
836.202	24977
836.34	25031
836.478	25046
836.615	24970
836.753	25126
836.891	25095
837.029	25034
837.167	24886
837.305	24970
837.443	24798
837.58	24840
837.718	24901
837.856	24909
837.993	24798
838.131	24779
838.269	24589
838.406	24760
838.544	24650
838.681	24380
838.819	24395
838.956	24346
839.094	24277
839.231	24338
839.369	24635
839.506	24654
839.643	24498
839.781	24285
839.918	24045
840.055	24369
840.193	24171
840.33	24266
840.467	24304
840.604	24178
840.742	24399
840.879	24197
841.016	24174
841.153	24102
841.29	24437
841.427	24300
841.564	24300
841.701	24102
841.838	24129
841.975	24133
842.112	24079
842.249	24102
842.385	24011
842.522	24232
842.659	24034
842.796	23817
842.933	24091
843.069	23920
843.206	23855
843.343	23988
843.479	24041
843.616	23992
843.752	23714
843.889	23726
844.025	23973
844.162	23718
844.298	23657
844.435	23813
844.571	23714
844.708	23729
844.844	23870
844.98	23863
845.117	23878
845.253	23638
845.389	23653
845.525	23722
845.661	23509
845.798	23353
845.934	23543
846.07	23501
846.206	23581
846.342	23630
846.478	23505
846.614	23185
846.75	23166
846.886	23250
847.022	23315
847.158	23170
847.294	23178
847.429	23254
847.565	23166
847.701	23376
847.837	22908
847.972	22965
848.108	22911
848.244	23006
848.379	22854
848.515	22763
848.65	22801
848.786	22710
848.921	22767
849.057	22824
849.192	22881
849.328	22759
849.463	22782
849.598	22713
849.734	22790
849.869	22649
850.004	22523
850.14	22500
850.275	22538
850.41	22440
850.545	22569
850.68	22443
850.815	22554
850.95	22584
851.085	22740
851.22	22713
851.355	22504
851.49	22500
851.625	22398
851.76	22512
851.895	22436
852.03	22489
852.165	22630
852.299	22653
852.434	22615
852.569	22523
852.703	22519
852.838	22577
852.973	22679
853.107	22774
853.242	22398
853.376	22314
853.511	22329
853.645	22402
853.78	22382
853.914	22588
854.048	22451
854.183	22402
854.317	22424
854.451	22561
854.585	22367
854.72	22341
854.854	22440
854.988	22394
855.122	22363
855.256	22090
855.39	22371
855.524	22360
855.658	22386
855.792	22394
855.926	22421
856.06	22379
856.194	22493
856.327	22405
856.461	22230
856.595	22257
856.729	22261
856.862	22344
856.996	22398
857.13	22386
857.263	22417
857.397	22436
857.53	22314
857.664	22386
857.797	22398
857.931	22402
858.064	22341
858.197	22592
858.331	22379
858.464	22375
858.597	22284
858.731	22276
858.864	22234
858.997	22299
859.13	22314
859.263	22371
859.396	22485
859.529	22257
859.662	22363
859.795	22150
859.928	22481
860.061	22466
860.194	22596
860.327	22432
860.46	22375
860.592	22443
860.725	22512
860.858	22417
860.99	22348
861.123	22287
861.256	22276
861.388	22337
861.521	23006
861.653	22204
861.786	22044
861.918	22139
862.05	22280
862.183	22325
862.315	22253
862.447	22325
862.58	22211
862.712	22036
862.844	21945
862.976	22074
863.108	22226
863.24	22508
863.372	22070
863.504	22162
863.636	22124
863.768	22109
863.9	22139
864.032	22010
864.164	22090
864.296	22055
864.428	22124
864.559	22158
864.691	22181
864.823	22067
864.954	22051
865.086	22017
865.217	21975
865.349	21926
865.48	21941
865.612	21899
865.743	22090
865.875	22010
866.006	21953
866.137	21956
866.269	21991
866.4	21983
866.531	21911
866.662	21876
866.793	21835
866.924	21926
867.055	21926
867.186	21968
867.317	21926
867.448	21732
867.579	21857
867.71	21709
867.841	21789
867.972	21770
868.103	21823
868.233	21934
868.364	21895
868.495	21873
868.625	22036
868.756	22150
868.886	22078
869.017	22158
869.147	22249
869.278	22226
869.408	22135
869.539	22124
869.669	22200
869.799	22074
869.929	22207
870.06	22234
870.19	22478
870.32	22371
870.45	22565
870.58	22470
870.71	22550
870.84	22596
870.97	22519
871.1	22398
871.23	22687
871.36	22622
871.489	22615
871.619	22607
871.749	22797
871.879	22675
872.008	22763
872.138	22771
872.267	22679
872.397	22660
872.526	22493
872.656	22516
872.785	22535
872.915	22691
873.044	22877
873.173	22790
873.303	22771
873.432	22729
873.561	22854
873.69	22637
873.819	22801
873.948	22908
874.077	22793
874.206	22672
874.335	22759
874.464	22824
874.593	22911
874.722	22946
874.851	23025
874.979	23018
875.108	23041
875.237	22896
875.365	22763
875.494	22942
875.623	23003
875.751	22946
875.88	23022
876.008	22980
876.136	23155
876.265	23265
876.393	23474
876.521	23436
876.65	23406
876.778	23421
876.906	23315
877.034	23261
877.162	23155
877.29	23200
877.418	23265
877.546	23261
877.674	23391
877.802	23193
877.93	23315
878.058	23216
878.185	23067
878.313	23280
878.441	23280
878.568	23178
878.696	23159
878.824	23372
878.951	23208
879.079	23486
879.206	23615
879.333	23436
879.461	23326
879.588	23444
879.715	23425
879.842	23589
879.97	23364
880.097	23075
880.224	22984
880.351	23208
880.478	23083
880.605	23121
880.732	23170
880.859	23292
880.986	23189
881.112	23079
881.239	22980
881.366	22736
881.493	22828
881.619	22615
881.746	22786
881.872	22618
881.999	22634
882.125	22611
882.252	22672
882.378	22706
882.505	22759
882.631	22527
882.757	22382
882.883	22333
883.01	22402
883.136	22337
883.262	22223
883.388	22150
883.514	22249
883.64	22344
883.766	22306
883.892	22086
884.018	22158
884.143	22306
884.269	22276
884.395	21964
884.52	21945
884.646	22006
884.772	22044
884.897	21899
885.023	22025
885.148	22082
885.274	22040
885.399	22051
885.524	21930
885.65	22154
885.775	22048
885.9	21850
886.025	21953
886.15	22006
886.275	21835
886.4	21869
886.525	21987
886.65	21789
886.775	21884
886.9	21994
887.025	22242
887.149	21926
887.274	21800
887.399	21819
887.523	21675
887.648	21682
887.773	21599
887.897	21869
888.021	21770
888.146	21690
888.27	21759
888.395	21785
888.519	21797
888.643	21793
888.767	21789
888.891	21606
889.015	21439
889.139	21553
889.263	21614
889.387	21599
889.511	21827
889.635	21580
889.759	21587
889.883	21580
890.006	21549
890.13	21568
890.254	21481
890.377	21557
890.501	21260
890.624	21241
890.748	21332
890.871	21116
890.995	21070
891.118	21085
891.241	21214
891.364	21222
891.488	21173
891.611	21081
891.734	21062
891.857	21074
891.98	21009
892.103	21154
892.226	21089
892.349	21093
892.471	20979
892.594	21024
892.717	21032
892.839	21036
892.962	21009
893.085	21074
893.207	20921
893.33	20883
893.452	20849
893.575	20990
893.697	20986
893.819	21089
893.941	21230
894.064	21108
894.186	20857
894.308	20857
894.43	21043
894.552	20979
894.674	20921
894.796	20842
894.918	20910
895.04	20937
895.161	20952
895.283	20982
895.405	21024
895.526	20948
895.648	20880
895.769	20929
895.891	20960
896.012	21051
896.134	20986
896.255	20914
896.376	20910
896.498	21005
896.619	20963
896.74	20998
896.861	21043
896.982	21249
897.103	21435
897.224	21283
897.345	21058
897.466	21093
897.587	21176
897.708	21291
897.828	21123
897.949	21039
898.07	21066
898.19	20937
898.311	21260
898.431	21089
898.552	21150
898.672	21245
898.792	21291
898.913	21157
899.033	21062
899.153	21062
899.273	20925
899.393	20807
899.513	20902
899.633	20910
899.753	20952
899.873	20804
899.993	20952
900.113	20815
900.232	20788
900.352	20895
900.472	20689
900.591	20629
900.711	20667
900.83	20583
900.95	20640
901.069	20724
901.189	20507
901.308	20358
901.427	20180
901.546	20218
901.665	20210
901.784	20180
901.904	20100
902.023	20069
902.141	19788
902.26	19807
902.379	19788
902.498	19696
902.617	19791
902.735	19651
902.854	19719
902.973	19662
903.091	19453
903.21	19449
903.328	19327
903.446	19301
903.565	19110
903.683	19156
903.801	18981
903.919	19091
904.038	19072
904.156	19000
904.274	19110
904.392	18920
904.51	18837
904.627	18810
904.745	18890
904.863	18901
904.981	18589
905.098	18513
905.216	18585
905.334	18639
905.451	18582
905.569	18654
905.686	18585
905.803	18673
905.921	18403
906.038	18498
906.155	18448
906.272	18388
906.389	18361
906.506	18194
906.623	18117
906.74	18125
906.857	18106
906.974	18102
907.091	18197
907.208	18136
907.324	18163
907.441	18136
907.557	17878
907.674	17885
907.79	17882
907.907	17756
908.023	17866
908.139	17870
908.256	17775
908.372	17760
908.488	17619
908.604	17589
908.72	17608
908.836	17668
908.952	17478
909.068	17532
909.184	17691
909.3	17516
909.415	17676
909.531	17516
909.647	17334
909.762	17269
909.878	17166
909.993	17273
910.108	17288
910.224	17307
910.339	17208
910.454	17212
910.57	16965
910.685	16991
910.8	17277
910.915	17162
911.03	16980
911.145	16831
911.259	16839
911.374	16835
911.489	16786
911.604	16752
911.718	16596
911.833	16615
911.947	16531
912.062	16398
912.176	16531
912.291	16679
912.405	16645
912.519	16679
912.633	16797
912.748	16656
912.862	16565
912.976	16363
913.09	16257
913.204	16402
913.318	16474
913.431	16470
913.545	16436
913.659	16451
913.772	16284
913.886	16154
914	16169
914.113	16150
914.226	16253
914.34	16253
914.453	16006
914.566	16181
914.68	16017
914.793	15979
914.906	15857
915.019	15759
915.132	15682
915.245	15743
915.358	15770
915.47	15785
915.583	15762
915.696	15755
915.809	15873
915.921	15823
916.034	15743
916.146	15648
916.259	15660
916.371	15861
916.483	15682
916.595	15648
916.708	15526
916.82	15496
916.932	15538
917.044	15564
917.156	15473
917.268	15428
917.38	15405
917.491	15431
917.603	15424
917.715	15473
917.826	15504
917.938	15260
918.049	15180
918.161	15363
918.272	15534
918.384	15523
918.495	15291
918.606	15272
918.717	15169
918.828	15214
918.939	15241
919.05	14963
919.161	15074
919.272	15013
919.383	14952
919.494	15176
919.604	15348
919.715	15119
919.826	15013
919.936	15009
920.047	15074
920.157	15104
920.267	15283
920.378	15058
920.488	14918
920.598	15241
920.708	15370
920.818	15146
920.928	15264
921.038	15443
921.148	15230
921.258	15112
921.368	14910
921.477	14849
921.587	14743
921.697	14693
921.806	14807
921.916	14712
922.025	14533
922.134	14442
922.244	14492
922.353	14545
922.462	14294
922.571	14313
922.68	14218
922.789	14176
922.898	14111
923.007	13970
923.116	14054
923.224	14035
923.333	14046
923.442	14027
923.55	13913
923.659	13894
923.767	13974
923.876	13868
923.984	13986
924.092	13860
924.201	13852
924.309	13746
924.417	13826
924.525	13700
924.633	13609
924.741	14526
924.849	13518
924.956	13704
925.064	13510
925.172	13445
925.279	13426
925.387	13441
925.494	13491
925.602	13628
925.709	13438
925.816	13384
925.924	13384
926.031	13499
926.138	13400
926.245	13407
926.352	13411
926.459	13506
926.566	13521
926.673	13327
926.779	13247
926.886	13183
926.993	13114
927.099	12996
927.206	12985
927.312	12977
927.419	13053
927.525	12996
927.631	13012
927.737	12875
927.843	12848
927.95	12791
928.056	12806
928.162	12916
928.267	12863
928.373	13480
928.479	12852
928.585	12540
928.69	12719
928.796	12863
928.901	12730
929.007	12559
929.112	12760
929.218	12612
929.323	12551
929.428	12597
929.533	12642
929.638	12593
929.743	12422
929.848	12506
929.953	12513
930.058	12388
930.163	12190
930.267	12235
930.372	12372
930.477	12235
930.581	12350
930.685	12254
930.79	12034
930.894	12152
930.998	12072
931.103	12300
931.207	11832
931.311	11805
931.415	11703
931.519	11395
931.623	11463
