Data from test_V78500241_485.txt Node
Date: Fri Mar 25 15:45:09 CST 2022
User: usil
Spectrometer: V785-0024
Trigger mode: 0
Integration Time (sec): 4.000000E-1
Scans to average: 1
Nonlinearity correction enabled: false
Boxcar width: 0
Storing dark spectrum: false
XAxis mode: Wavelengths
Number of Pixels in Spectrum: 1024
>>>>>Begin Spectral Data<<<<<
801.071	27724
801.214	27492
801.356	27340
801.499	27199
801.641	27123
801.783	27062
801.926	27306
802.068	27074
802.211	26944
802.353	26990
802.496	26769
802.638	26731
802.78	26659
802.923	26667
803.065	26629
803.208	26655
803.35	26765
803.492	26785
803.635	26910
803.777	26750
803.919	26857
804.061	27047
804.204	26918
804.346	26796
804.488	26796
804.63	26944
804.773	26689
804.915	26857
805.057	26925
805.199	26826
805.341	27043
805.483	26910
805.626	26925
805.768	26933
805.91	27089
806.052	27017
806.194	27036
806.336	27222
806.478	26994
806.62	26994
806.762	27085
806.904	27272
807.046	27793
807.188	27473
807.33	27431
807.472	27405
807.614	27359
807.756	27382
807.898	27287
808.04	27283
808.182	27237
808.324	27306
808.465	27306
808.607	27500
808.749	27595
808.891	27720
809.033	27835
809.174	27755
809.316	27800
809.458	27572
809.6	27591
809.741	27861
809.883	27766
810.025	27880
810.166	27987
810.308	27907
810.45	27914
810.591	27854
810.733	27732
810.875	27603
811.016	27591
811.158	27534
811.299	27759
811.441	27736
811.582	27831
811.724	27504
811.865	27618
812.007	27656
812.148	27606
812.29	27603
812.431	27846
812.573	28029
812.714	28032
812.855	28116
812.997	28238
813.138	28417
813.279	28310
813.421	28299
813.562	28105
813.703	27956
813.845	27911
813.986	27641
814.127	27625
814.268	27325
814.41	27393
814.551	27260
814.692	27287
814.833	27306
814.974	27230
815.115	27306
815.256	27268
815.397	27161
815.539	27283
815.68	27074
815.821	26979
815.962	27093
816.103	27195
816.244	26986
816.385	26819
816.526	26819
816.666	26819
816.807	26594
816.948	26613
817.089	26575
817.23	26689
817.371	26556
817.512	26492
817.653	26541
817.793	26579
817.934	26621
818.075	26674
818.216	26579
818.356	26469
818.497	26431
818.638	26240
818.778	26206
818.919	26336
819.06	26408
819.2	26438
819.341	26602
819.481	26602
819.622	26598
819.762	26899
819.903	26674
820.043	26708
820.184	26678
820.324	26609
820.465	26667
820.605	26754
820.746	26560
820.886	26613
821.026	26670
821.167	26686
821.307	26632
821.447	26484
821.588	26453
821.728	26404
821.868	26206
822.008	26043
822.149	26031
822.289	25955
822.429	25712
822.569	25578
822.709	25723
822.849	25559
822.99	25635
823.13	25499
823.27	25468
823.41	25297
823.55	25164
823.69	25346
823.83	25225
823.97	25343
824.11	25103
824.25	25110
824.389	25114
824.529	25202
824.669	25175
824.809	25441
824.949	25308
825.089	25240
825.228	25137
825.368	24913
825.508	24935
825.648	24947
825.787	25008
825.927	25126
826.067	24981
826.206	24932
826.346	24958
826.485	25126
826.625	25015
826.765	25209
826.904	25084
827.044	24783
827.183	24802
827.323	24623
827.462	24920
827.601	24798
827.741	24722
827.88	24741
828.02	24540
828.159	24570
828.298	24639
828.437	24722
828.577	24635
828.716	24863
828.855	24612
828.994	24422
829.134	24460
829.273	24532
829.412	24304
829.551	24319
829.69	24372
829.829	24437
829.968	24460
830.107	24460
830.246	24475
830.385	24365
830.524	24376
830.663	24186
830.802	24133
830.941	24140
831.08	23874
831.219	24003
831.357	24041
831.496	24251
831.635	24095
831.774	23939
831.913	23859
832.051	23802
832.19	23790
832.329	23707
832.467	23843
832.606	23710
832.744	23661
832.883	23642
833.022	23691
833.16	23680
833.299	23707
833.437	23790
833.576	23729
833.714	23680
833.852	23783
833.991	23939
834.129	23904
834.267	23813
834.406	23676
834.544	23691
834.682	23843
834.821	23710
834.959	23878
835.097	23703
835.235	23741
835.373	23756
835.511	23718
835.65	23543
835.788	23585
835.926	23554
836.064	23387
836.202	23429
836.34	23528
836.478	23786
836.615	23531
836.753	23547
836.891	23657
837.029	23634
837.167	23718
837.305	23467
837.443	23444
837.58	23417
837.718	23509
837.856	23516
837.993	23421
838.131	23356
838.269	23231
838.406	23311
838.544	23235
838.681	22995
838.819	23067
838.956	22927
839.094	22763
839.231	22866
839.369	23086
839.506	23398
839.643	23162
839.781	22797
839.918	22908
840.055	22927
840.193	22683
840.33	22797
840.467	22816
840.604	22915
840.742	23277
840.879	22706
841.016	22866
841.153	22805
841.29	22824
841.427	22740
841.564	22873
841.701	22843
841.838	22706
841.975	22748
842.112	22778
842.249	22713
842.385	22615
842.522	22816
842.659	22736
842.796	22694
842.933	22626
843.069	22440
843.206	22542
843.343	22527
843.479	22599
843.616	22428
843.752	22344
843.889	22402
844.025	22557
844.162	22261
844.298	22363
844.435	22257
844.571	22295
844.708	22424
844.844	22459
844.98	22436
845.117	22466
845.253	22287
845.389	22219
845.525	22295
845.661	22169
845.798	22063
845.934	22116
846.07	21987
846.206	22090
846.342	22166
846.478	21975
846.614	21941
846.75	21736
846.886	21770
847.022	21903
847.158	21819
847.294	21789
847.429	21842
847.565	21823
847.701	22055
847.837	21389
847.972	21416
848.108	21564
848.244	21610
848.379	21458
848.515	21336
848.65	21344
848.786	21386
848.921	21416
849.057	21416
849.192	21523
849.328	21450
849.463	21351
849.598	21359
849.734	21237
849.869	21203
850.004	21233
850.14	21150
850.275	21146
850.41	21085
850.545	21066
850.68	21112
850.815	21211
850.95	21157
851.085	21298
851.22	21207
851.355	21123
851.49	21119
851.625	21077
851.76	21176
851.895	21131
852.03	21085
852.165	21169
852.299	21192
852.434	21241
852.569	21123
852.703	21093
852.838	21260
852.973	21279
853.107	21332
853.242	21058
853.376	20887
853.511	20864
853.645	20868
853.78	21085
853.914	21001
854.048	20941
854.183	21001
854.317	20990
854.451	21176
854.585	21051
854.72	20929
854.854	21150
854.988	20971
855.122	20963
855.256	20899
855.39	20933
855.524	21074
855.658	21157
855.792	21039
855.926	21089
856.06	20994
856.194	20963
856.327	20971
856.461	20925
856.595	20948
856.729	20944
856.862	21150
856.996	21047
857.13	20967
857.263	21169
857.397	21123
857.53	20918
857.664	21039
857.797	21055
857.931	21043
858.064	20918
858.197	21074
858.331	20982
858.464	21009
858.597	20834
858.731	20883
858.864	20891
858.997	20838
859.13	20956
859.263	21005
859.396	20952
859.529	20990
859.662	21036
859.795	20929
859.928	20941
860.061	21150
860.194	21222
860.327	20956
860.46	21032
860.592	21047
860.725	21108
860.858	21036
860.99	20975
861.123	20883
861.256	21020
861.388	20986
861.521	21576
861.653	20895
861.786	20750
861.918	20845
862.05	20792
862.183	20918
862.315	20868
862.447	20937
862.58	20849
862.712	20613
862.844	20727
862.976	20735
863.108	20659
863.24	21161
863.372	20609
863.504	20674
863.636	20648
863.768	20769
863.9	20773
864.032	20621
864.164	20625
864.296	20689
864.428	20735
864.559	20648
864.691	20735
864.823	20720
864.954	20522
865.086	20648
865.217	20560
865.349	20537
865.48	20400
865.612	20621
865.743	20689
865.875	20739
866.006	20564
866.137	20594
866.269	20629
866.4	20598
866.531	20564
866.662	20556
866.793	20503
866.924	20526
867.055	20503
867.186	20594
867.317	20434
867.448	20488
867.579	20518
867.71	20389
867.841	20499
867.972	20560
868.103	20476
868.233	20423
868.364	20511
868.495	20712
868.625	20792
868.756	20621
868.886	20655
869.017	20796
869.147	20785
869.278	20914
869.408	20800
869.539	20781
869.669	20895
869.799	20857
869.929	20994
870.06	20819
870.19	21116
870.32	21142
870.45	21062
870.58	21051
870.71	21226
870.84	21351
870.97	21165
871.1	21100
871.23	21351
871.36	21367
871.489	21336
871.619	21329
871.749	21386
871.879	21401
872.008	21397
872.138	21329
872.267	21329
872.397	21154
872.526	21135
872.656	21199
872.785	21291
872.915	21332
873.044	21557
873.173	21359
873.303	21287
873.432	21431
873.561	21462
873.69	21363
873.819	21386
873.948	21481
874.077	21420
874.206	21317
874.335	21443
874.464	21466
874.593	21816
874.722	21511
874.851	21671
874.979	21717
875.108	21667
875.237	21622
875.365	21473
875.494	21622
875.623	21739
875.751	21542
875.88	21610
876.008	21660
876.136	21793
876.265	22032
876.393	22063
876.521	22055
876.65	22120
876.778	22017
876.906	22021
877.034	22010
877.162	22040
877.29	21812
877.418	22124
877.546	22055
877.674	21922
877.802	21934
877.93	21937
878.058	21903
878.185	21846
878.313	21888
878.441	22006
878.568	21778
878.696	21907
878.824	22036
878.951	22013
879.079	22154
879.206	22265
879.333	22147
879.461	22002
879.588	22067
879.715	22143
879.842	22177
879.97	22036
880.097	21835
880.224	21804
880.351	21873
880.478	21755
880.605	21789
880.732	21743
880.859	22013
880.986	21743
881.112	21861
881.239	21656
881.366	21580
881.493	21428
881.619	21279
881.746	21447
881.872	21439
881.999	21321
882.125	21275
882.252	21443
882.378	21405
882.505	21515
882.631	21207
882.757	21100
882.883	21176
883.01	21123
883.136	21081
883.262	20914
883.388	20853
883.514	20963
883.64	21028
883.766	21077
883.892	20872
884.018	20910
884.143	21043
884.269	21104
884.395	20716
884.52	20796
884.646	20712
884.772	20754
884.897	20640
885.023	20724
885.148	20777
885.274	20956
885.399	20781
885.524	20731
885.65	20838
885.775	20667
885.9	20693
886.025	20849
886.15	20773
886.275	20655
886.4	20701
886.525	20746
886.65	20644
886.775	20625
886.9	20823
887.025	20952
887.149	20686
887.274	20545
887.399	20488
887.523	20579
887.648	20438
887.773	20385
887.897	20545
888.021	20579
888.146	20415
888.27	20651
888.395	20632
888.519	20415
888.643	20533
888.767	20533
888.891	20473
889.015	20168
889.139	20381
889.263	20317
889.387	20290
889.511	20537
889.635	20396
889.759	20267
889.883	20298
890.006	20225
890.13	20434
890.254	20142
890.377	20252
890.501	20027
890.624	20012
890.748	20065
890.871	19947
890.995	19917
891.118	19761
891.241	19795
891.364	19875
891.488	20001
891.611	19769
891.734	19780
891.857	19913
891.98	19875
892.103	19902
892.226	20020
892.349	19902
892.471	19734
892.594	19727
892.717	19822
892.839	19818
892.962	19616
893.085	19845
893.207	19795
893.33	19674
893.452	19761
893.575	19860
893.697	19696
893.819	19811
893.941	20027
894.064	19875
894.186	19750
894.308	19788
894.43	19959
894.552	19940
894.674	19795
894.796	19712
894.918	19761
895.04	19776
895.161	19731
895.283	19799
895.405	19670
895.526	19879
895.648	19841
895.769	19746
895.891	19765
896.012	19963
896.134	19807
896.255	19765
896.376	19833
896.498	19772
896.619	19845
896.74	19807
896.861	19913
896.982	20046
897.103	20195
897.224	20050
897.345	20138
897.466	19951
897.587	20008
897.708	20081
897.828	19986
897.949	19932
898.07	19913
898.19	19989
898.311	20092
898.431	19917
898.552	19989
898.672	20115
898.792	20039
898.913	19921
899.033	20001
899.153	19826
899.273	19799
899.393	19670
899.513	19769
899.633	19750
899.753	19795
899.873	19734
899.993	19784
900.113	19791
900.232	19776
900.352	19704
900.472	19662
900.591	19438
900.711	19548
900.83	19655
900.95	19658
901.069	19696
901.189	19575
901.308	19278
901.427	19152
901.546	19137
901.665	19190
901.784	19194
901.904	18966
902.023	18977
902.141	18856
902.26	18783
902.379	18840
902.498	18627
902.617	18608
902.735	18688
902.854	18673
902.973	18665
903.091	18327
903.21	18365
903.328	18327
903.446	18327
903.565	18155
903.683	18045
903.801	18022
903.919	18163
904.038	18140
904.156	17851
904.274	18011
904.392	17965
904.51	17863
904.627	17992
904.745	18022
904.863	17916
904.981	17729
905.098	17573
905.216	17615
905.334	17714
905.451	17608
905.569	17558
905.686	17585
905.803	17573
905.921	17277
906.038	17532
906.155	17455
906.272	17303
906.389	17181
906.506	17151
906.623	17220
906.74	17079
906.857	17079
906.974	16968
907.091	17166
907.208	17227
907.324	17178
907.441	17067
907.557	16828
907.674	16869
907.79	16778
907.907	16847
908.023	16816
908.139	16797
908.256	16733
908.372	16786
908.488	16740
908.604	16618
908.72	16489
908.836	16603
908.952	16664
909.068	16584
909.184	16778
909.3	16538
909.415	16675
909.531	16451
909.647	16314
909.762	16188
909.878	16280
909.993	16295
910.108	16230
910.224	16276
910.339	16158
910.454	16086
910.57	16131
910.685	15998
910.8	16303
910.915	16109
911.03	15934
911.145	15873
911.259	15823
911.374	15835
911.489	15819
911.604	15701
911.718	15564
911.833	15671
911.947	15644
912.062	15450
912.176	15679
912.291	15759
912.405	15603
912.519	15736
912.633	15850
912.748	15663
912.862	15504
912.976	15428
913.09	15279
913.204	15344
913.318	15363
913.431	15545
913.545	15511
913.659	15382
913.772	15275
913.886	15317
914	15161
914.113	15313
914.226	15332
914.34	15283
914.453	15093
914.566	15245
914.68	15097
914.793	15077
914.906	14963
915.019	14872
915.132	14758
915.245	14792
915.358	14952
915.47	14872
915.583	14849
915.696	14864
915.809	14948
915.921	14982
916.034	14727
916.146	14743
916.259	14640
916.371	14849
916.483	14838
916.595	14720
916.708	14800
916.82	14651
916.932	14697
917.044	14625
917.156	14575
917.268	14537
917.38	14590
917.491	14568
917.603	14461
917.715	14625
917.826	14674
917.938	14366
918.049	14457
918.161	14450
918.272	14632
918.384	14670
918.495	14434
918.606	14419
918.717	14202
918.828	14339
918.939	14381
919.05	14180
919.161	14267
919.272	14103
919.383	14100
919.494	14374
919.604	14492
919.715	14248
919.826	14115
919.936	14218
920.047	14313
920.157	14286
920.267	14492
920.378	14271
920.488	14229
920.598	14476
920.708	14602
920.818	14419
920.928	14473
921.038	14564
921.148	14625
921.258	14301
921.368	14244
921.477	14062
921.587	13989
921.697	13860
921.806	14081
921.916	13871
922.025	13784
922.134	13719
922.244	13620
922.353	13655
922.462	13525
922.571	13491
922.68	13419
922.789	13293
922.898	13339
923.007	13304
923.116	13289
923.224	13312
923.333	13297
923.442	13160
923.55	13133
923.659	13274
923.767	13103
923.876	13118
923.984	13179
924.092	13050
924.201	13069
924.309	13149
924.417	13187
924.525	13027
924.633	13065
924.741	13841
924.849	12863
924.956	12894
925.064	12905
925.172	12650
925.279	12753
925.387	12700
925.494	12764
925.602	12776
925.709	12821
925.816	12692
925.924	12726
926.031	12848
926.138	12696
926.245	12783
926.352	12658
926.459	12711
926.566	12745
926.673	12665
926.779	12547
926.886	12475
926.993	12437
927.099	12365
927.206	12273
927.312	12239
927.419	12388
927.525	12258
927.631	12277
927.737	12209
927.843	12190
927.95	12091
928.056	12144
928.162	12072
928.267	12235
928.373	12897
928.479	12175
928.585	12003
928.69	12068
928.796	12133
928.901	12026
929.007	11874
929.112	12106
929.218	11939
929.323	11901
929.428	11874
929.533	11969
929.638	11874
929.743	11817
929.848	11916
929.953	11882
930.058	11737
930.163	11493
930.267	11608
930.372	11748
930.477	11543
930.581	11718
930.685	11627
930.79	11505
930.894	11414
930.998	11421
931.103	11581
931.207	11204
931.311	11128
931.415	11098
931.519	10919
931.623	10885
