Data from test_V78500241_3142.txt Node
Date: Fri Mar 25 16:03:34 CST 2022
User: usil
Spectrometer: V785-0024
Trigger mode: 0
Integration Time (sec): 4.000000E-1
Scans to average: 1
Nonlinearity correction enabled: false
Boxcar width: 0
Storing dark spectrum: false
XAxis mode: Wavelengths
Number of Pixels in Spectrum: 1024
>>>>>Begin Spectral Data<<<<<
801.071	28497
801.214	28763
801.356	28485
801.499	28265
801.641	28166
801.783	28306
801.926	28337
802.068	28284
802.211	28185
802.353	28166
802.496	28036
802.638	27914
802.78	27869
802.923	27880
803.065	27899
803.208	27926
803.35	27949
803.492	28120
803.635	28234
803.777	27983
803.919	28154
804.061	28451
804.204	28268
804.346	28116
804.488	27968
804.63	28246
804.773	28109
804.915	28310
805.057	28413
805.199	28177
805.341	28124
805.483	28325
805.626	28257
805.768	28276
805.91	28325
806.052	28462
806.194	28265
806.336	28485
806.478	28504
806.62	28424
806.762	28424
806.904	28478
807.046	28778
807.188	28797
807.33	28805
807.472	28843
807.614	28767
807.756	28687
807.898	28580
808.04	28462
808.182	28637
808.324	28637
808.465	28835
808.607	28980
808.749	28976
808.891	29193
809.033	29250
809.174	29079
809.316	29162
809.458	29010
809.6	29041
809.741	29147
809.883	29140
810.025	29429
810.166	29212
810.308	29299
810.45	29288
810.591	29235
810.733	29151
810.875	28995
811.016	29067
811.158	28976
811.299	29140
811.441	29181
811.582	29181
811.724	28904
811.865	29056
812.007	29117
812.148	29033
812.29	29197
812.431	29288
812.573	29410
812.714	29604
812.855	29642
812.997	29570
813.138	29775
813.279	29695
813.421	29665
813.562	29581
813.703	29414
813.845	29482
813.986	29010
814.127	28873
814.268	28854
814.41	28691
814.551	28664
814.692	28835
814.833	28820
814.974	28580
815.115	28767
815.256	28748
815.397	28622
815.539	28546
815.68	28500
815.821	28432
815.962	28523
816.103	28618
816.244	28580
816.385	28462
816.526	28382
816.666	28177
816.807	28044
816.948	28154
817.089	28169
817.23	28257
817.371	28097
817.512	28067
817.653	28010
817.793	28036
817.934	28109
818.075	28048
818.216	28051
818.356	28082
818.497	28139
818.638	27648
818.778	27869
818.919	27941
819.06	27960
819.2	28074
819.341	28048
819.481	28181
819.622	28162
819.762	28356
819.903	28310
820.043	28162
820.184	28143
820.324	28265
820.465	28200
820.605	28185
820.746	28211
820.886	28101
821.026	28223
821.167	28230
821.307	28287
821.447	28074
821.588	28150
821.728	27914
821.868	27747
822.008	27663
822.149	27515
822.289	27519
822.429	27329
822.569	27241
822.709	27252
822.849	27051
822.99	27001
823.13	27047
823.27	26967
823.41	26963
823.55	26796
823.69	26754
823.83	26849
823.97	26849
824.11	26705
824.25	26629
824.389	26640
824.529	26769
824.669	26731
824.809	26815
824.949	26823
825.089	26819
825.228	26720
825.368	26522
825.508	26518
825.648	26655
825.787	26560
825.927	26667
826.067	26644
826.206	26552
826.346	26708
826.485	26716
826.625	26560
826.765	26651
826.904	26670
827.044	26408
827.183	26442
827.323	26336
827.462	26415
827.601	26362
827.741	26183
827.88	26374
828.02	26259
828.159	26332
828.298	26218
828.437	26377
828.577	26317
828.716	26393
828.855	26202
828.994	26062
829.134	25982
829.273	26031
829.412	25978
829.551	25997
829.69	26005
829.829	26119
829.968	26161
830.107	26046
830.246	25913
830.385	26001
830.524	25837
830.663	25852
830.802	25651
830.941	25681
831.08	25693
831.219	25632
831.357	25647
831.496	25833
831.635	25613
831.774	25479
831.913	25434
832.051	25571
832.19	25369
832.329	25445
832.467	25285
832.606	25206
832.744	25187
832.883	25312
833.022	25289
833.16	25358
833.299	25255
833.437	25251
833.576	25274
833.714	25434
833.852	25506
833.991	25282
834.129	25346
834.267	25468
834.406	25358
834.544	25381
834.682	25415
834.821	25468
834.959	25396
835.097	25354
835.235	25396
835.373	25384
835.511	25426
835.65	25202
835.788	25247
835.926	25038
836.064	24920
836.202	25152
836.34	25232
836.478	25289
836.615	25255
836.753	25133
836.891	25289
837.029	25095
837.167	25061
837.305	25027
837.443	25072
837.58	25046
837.718	25145
837.856	24966
837.993	24962
838.131	24939
838.269	24924
838.406	24894
838.544	24787
838.681	24570
838.819	24673
838.956	24505
839.094	24502
839.231	24521
839.369	24673
839.506	24829
839.643	24783
839.781	24528
839.918	24441
840.055	24494
840.193	24445
840.33	24407
840.467	24399
840.604	24426
840.742	24684
840.879	24277
841.016	24464
841.153	24285
841.29	24559
841.427	24414
841.564	24418
841.701	24426
841.838	24292
841.975	24247
842.112	24369
842.249	24201
842.385	24178
842.522	24422
842.659	24194
842.796	24121
842.933	24068
843.069	24049
843.206	24148
843.343	24247
843.479	24102
843.616	24129
843.752	23908
843.889	24007
844.025	24102
844.162	23920
844.298	23999
844.435	23912
844.571	24015
844.708	23965
844.844	24053
844.98	23977
845.117	23950
845.253	23779
845.389	23794
845.525	23714
845.661	23775
845.798	23547
845.934	23687
846.07	23657
846.206	23608
846.342	23687
846.478	23634
846.614	23444
846.75	23356
846.886	23490
847.022	23501
847.158	23406
847.294	23440
847.429	23395
847.565	23315
847.701	23615
847.837	23064
847.972	23151
848.108	23162
848.244	23235
848.379	22995
848.515	22980
848.65	23006
848.786	22843
848.921	22949
849.057	23105
849.192	23155
849.328	23052
849.463	23075
849.598	22965
849.734	22885
849.869	22877
850.004	22687
850.14	22641
850.275	22740
850.41	22774
850.545	22713
850.68	22645
850.815	22729
850.95	22698
851.085	22881
851.22	22771
851.355	22618
851.49	22721
851.625	22683
851.76	22725
851.895	22706
852.03	22691
852.165	22656
852.299	22812
852.434	22736
852.569	22759
852.703	22721
852.838	22774
852.973	22869
853.107	22942
853.242	22668
853.376	22637
853.511	22436
853.645	22508
853.78	22588
853.914	22599
854.048	22573
854.183	22375
854.317	22679
854.451	22790
854.585	22557
854.72	22455
854.854	22577
854.988	22432
855.122	22615
855.256	22409
855.39	22516
855.524	22615
855.658	22573
855.792	22599
855.926	22485
856.06	22580
856.194	22596
856.327	22516
856.461	22554
856.595	22432
856.729	22630
856.862	22736
856.996	22542
857.13	22698
857.263	22580
857.397	22733
857.53	22516
857.664	22611
857.797	22664
857.931	22649
858.064	22599
858.197	22634
858.331	22588
858.464	22382
858.597	22379
858.731	22497
858.864	22523
858.997	22356
859.13	22550
859.263	22470
859.396	22634
859.529	22424
859.662	22554
859.795	22440
859.928	22565
860.061	22683
860.194	22736
860.327	22519
860.46	22577
860.592	22634
860.725	22717
860.858	22744
860.99	22622
861.123	22527
861.256	22531
861.388	22519
861.521	23166
861.653	22432
861.786	22360
861.918	22363
862.05	22421
862.183	22485
862.315	22516
862.447	22500
862.58	22462
862.712	22188
862.844	22150
862.976	22402
863.108	22367
863.24	22618
863.372	22344
863.504	22238
863.636	22230
863.768	22409
863.9	22291
864.032	22154
864.164	22268
864.296	22367
864.428	22459
864.559	22413
864.691	22280
864.823	22268
864.954	22226
865.086	22211
865.217	22204
865.349	22029
865.48	22025
865.612	22177
865.743	22154
865.875	22143
866.006	22139
866.137	22169
866.269	22280
866.4	22051
866.531	22029
866.662	22143
866.793	22093
866.924	21926
867.055	22044
867.186	22097
867.317	22124
867.448	22032
867.579	21991
867.71	21991
867.841	21975
867.972	21960
868.103	22010
868.233	22044
868.364	22105
868.495	22215
868.625	22242
868.756	22455
868.886	22272
869.017	22261
869.147	22382
869.278	22424
869.408	22306
869.539	22261
869.669	22295
869.799	22413
869.929	22390
870.06	22394
870.19	22527
870.32	22592
870.45	22660
870.58	22645
870.71	22824
870.84	22847
870.97	22630
871.1	22752
871.23	22847
871.36	22980
871.489	22694
871.619	22831
871.749	22915
871.879	22961
872.008	23010
872.138	22923
872.267	22972
872.397	22797
872.526	22733
872.656	22713
872.785	22702
872.915	22961
873.044	22927
873.173	22873
873.303	22999
873.432	22831
873.561	23003
873.69	22938
873.819	22873
873.948	23060
874.077	23018
874.206	22946
874.335	22843
874.464	23121
874.593	23136
874.722	23079
874.851	23170
874.979	23258
875.108	23269
875.237	23098
875.365	23033
875.494	23037
875.623	23242
875.751	23041
875.88	23033
876.008	23181
876.136	23376
876.265	23417
876.393	23634
876.521	23646
876.65	23509
876.778	23554
876.906	23524
877.034	23505
877.162	23486
877.29	23524
877.418	23490
877.546	23524
877.674	23463
877.802	23474
877.93	23433
878.058	23402
878.185	23452
878.313	23356
878.441	23524
878.568	23277
878.696	23497
878.824	23547
878.951	23570
879.079	23589
879.206	23779
879.333	23687
879.461	23501
879.588	23566
879.715	23577
879.842	23722
879.97	23608
880.097	23284
880.224	23273
880.351	23440
880.478	23353
880.605	23185
880.732	23185
880.859	23539
880.986	23261
881.112	23269
881.239	23064
881.366	22961
881.493	22930
881.619	22839
881.746	22866
881.872	22839
881.999	22839
882.125	22862
882.252	22767
882.378	22774
882.505	23044
882.631	22729
882.757	22592
882.883	22748
883.01	22489
883.136	22500
883.262	22310
883.388	22295
883.514	22527
883.64	22565
883.766	22333
883.892	22375
884.018	22440
884.143	22398
884.269	22405
884.395	22238
884.52	22143
884.646	22223
884.772	22150
884.897	22135
885.023	22131
885.148	22204
885.274	22238
885.399	22188
885.524	22223
885.65	22105
885.775	22116
885.9	22128
886.025	22158
886.15	22261
886.275	22044
886.4	22055
886.525	22078
886.65	22074
886.775	21941
886.9	22246
887.025	22337
887.149	22139
887.274	21972
887.399	21854
887.523	21956
887.648	21781
887.773	21812
887.897	21960
888.021	21915
888.146	21751
888.27	22044
888.395	21918
888.519	21884
888.643	21968
888.767	21884
888.891	21865
889.015	21739
889.139	21808
889.263	21793
889.387	21774
889.511	21884
889.635	21808
889.759	21671
889.883	21542
890.006	21709
890.13	21751
890.254	21629
890.377	21679
890.501	21435
890.624	21428
890.748	21526
890.871	21329
890.995	21207
891.118	21298
891.241	21089
891.364	21214
891.488	21412
891.611	21283
891.734	21367
891.857	21192
891.98	21146
892.103	21359
892.226	21077
892.349	21150
892.471	21055
892.594	21138
892.717	21169
892.839	21199
892.962	21195
893.085	21176
893.207	21184
893.33	21108
893.452	21024
893.575	21161
893.697	21195
893.819	21302
893.941	21310
894.064	21161
894.186	21100
894.308	21154
894.43	21119
894.552	21222
894.674	21138
894.796	20979
894.918	21256
895.04	21176
895.161	21135
895.283	21173
895.405	21077
895.526	21074
895.648	21074
895.769	21074
895.891	21203
896.012	21195
896.134	21127
896.255	21169
896.376	21119
896.498	21154
896.619	21100
896.74	21161
896.861	21157
896.982	21412
897.103	21526
897.224	21348
897.345	21420
897.466	21268
897.587	21401
897.708	21458
897.828	21279
897.949	21252
898.07	21165
898.19	21302
898.311	21420
898.431	21294
898.552	21218
898.672	21389
898.792	21389
898.913	21287
899.033	21226
899.153	20990
899.273	20979
899.393	21024
899.513	21070
899.633	21081
899.753	21009
899.873	21104
899.993	21020
900.113	20960
900.232	21085
900.352	20963
900.472	20880
900.591	20788
900.711	20925
900.83	20826
900.95	20842
901.069	20781
901.189	20735
901.308	20480
901.427	20328
901.546	20408
901.665	20324
901.784	20343
901.904	20183
902.023	20138
902.141	19993
902.26	19902
902.379	19955
902.498	19830
902.617	19879
902.735	19845
902.854	19963
902.973	19674
903.091	19620
903.21	19502
903.328	19441
903.446	19373
903.565	19358
903.683	19282
903.801	19251
903.919	19293
904.038	19354
904.156	19129
904.274	19175
904.392	19133
904.51	19034
904.627	19031
904.745	19110
904.863	19069
904.981	18886
905.098	18776
905.216	18798
905.334	18825
905.451	18821
905.569	18871
905.686	18779
905.803	18734
905.921	18464
906.038	18646
906.155	18570
906.272	18486
906.389	18536
906.506	18304
906.623	18273
906.74	18353
906.857	18213
906.974	18194
907.091	18315
907.208	18506
907.324	18254
907.441	18235
907.557	18106
907.674	17996
907.79	17958
907.907	17973
908.023	18083
908.139	17992
908.256	17874
908.372	17863
908.488	17790
908.604	17794
908.72	17668
908.836	17695
908.952	17672
909.068	17718
909.184	17745
909.3	17562
909.415	17665
909.531	17809
909.647	17440
909.762	17440
909.878	17467
909.993	17417
910.108	17368
910.224	17482
910.339	17520
910.454	17341
910.57	17288
910.685	17117
910.8	17379
910.915	17318
911.03	17159
911.145	17170
911.259	16984
911.374	17003
911.489	16984
911.604	16938
911.718	16717
911.833	16649
911.947	16702
912.062	16588
912.176	16637
912.291	16744
912.405	16713
912.519	16896
912.633	16904
912.748	16691
912.862	16702
912.976	16538
913.09	16474
913.204	16470
913.318	16599
913.431	16660
913.545	16561
913.659	16698
913.772	16497
913.886	16363
914	16268
914.113	16497
914.226	16405
914.34	16367
914.453	16173
914.566	16322
914.68	16223
914.793	16116
914.906	15994
915.019	15964
915.132	15907
915.245	15907
915.358	15941
915.47	15861
915.583	15998
915.696	15892
915.809	16036
915.921	15994
916.034	15850
916.146	15800
916.259	15739
916.371	15884
916.483	15865
916.595	15671
916.708	15709
916.82	15648
916.932	15625
917.044	15717
917.156	15671
917.268	15576
917.38	15633
917.491	15526
917.603	15549
917.715	15622
917.826	15599
917.938	15481
918.049	15397
918.161	15542
918.272	15629
918.384	15633
918.495	15386
918.606	15252
918.717	15237
918.828	15298
918.939	15264
919.05	15077
919.161	15173
919.272	15116
919.383	15176
919.494	15291
919.604	15435
919.715	15226
919.826	15142
919.936	15184
920.047	15351
920.157	15260
920.267	15355
920.378	15256
920.488	15150
920.598	15363
920.708	15450
920.818	15306
920.928	15321
921.038	15580
921.148	15454
921.258	15237
921.368	15104
921.477	14910
921.587	14994
921.697	14773
921.806	14864
921.916	14815
922.025	14712
922.134	14507
922.244	14488
922.353	14606
922.462	14431
922.571	14431
922.68	14294
922.789	14191
922.898	14210
923.007	14062
923.116	14324
923.224	14278
923.333	14183
923.442	14046
923.55	13906
923.659	13989
923.767	14142
923.876	14043
923.984	14054
924.092	14001
924.201	14054
924.309	14001
924.417	13883
924.525	13803
924.633	13845
924.741	14613
924.849	13624
924.956	13658
925.064	13727
925.172	13567
925.279	13624
925.387	13605
925.494	13567
925.602	13624
925.709	13563
925.816	13468
925.924	13556
926.031	13632
926.138	13480
926.245	13499
926.352	13449
926.459	13582
926.566	13563
926.673	13514
926.779	13388
926.886	13343
926.993	13149
927.099	13126
927.206	13061
927.312	13141
927.419	13232
927.525	13122
927.631	13156
927.737	13023
927.843	13095
927.95	12821
928.056	12966
928.162	12996
928.267	12954
928.373	13529
928.479	13065
928.585	12783
928.69	12821
928.796	12939
928.901	12821
929.007	12639
929.112	12730
929.218	12715
929.323	12616
929.428	12703
929.533	12837
929.638	12623
929.743	12604
929.848	12783
929.953	12544
930.058	12509
930.163	12289
930.267	12395
930.372	12521
930.477	12391
930.581	12467
930.685	12407
930.79	12190
930.894	12220
930.998	12102
931.103	12262
931.207	11965
931.311	11870
931.415	11828
931.519	11596
931.623	11486
