Data from test_V78500241_2272.txt Node
Date: Fri Mar 25 15:57:32 CST 2022
User: usil
Spectrometer: V785-0024
Trigger mode: 0
Integration Time (sec): 4.000000E-1
Scans to average: 1
Nonlinearity correction enabled: false
Boxcar width: 0
Storing dark spectrum: false
XAxis mode: Wavelengths
Number of Pixels in Spectrum: 1024
>>>>>Begin Spectral Data<<<<<
801.071	29239
801.214	29223
801.356	29003
801.499	29098
801.641	28987
801.783	28942
801.926	28892
802.068	28862
802.211	28843
802.353	28729
802.496	28660
802.638	28523
802.78	28683
802.923	28451
803.065	28489
803.208	28363
803.35	28508
803.492	28717
803.635	28683
803.777	28630
803.919	28881
804.061	29071
804.204	28972
804.346	28664
804.488	28763
804.63	28881
804.773	28778
804.915	28793
805.057	28987
805.199	28862
805.341	28942
805.483	29113
805.626	29033
805.768	28949
805.91	29044
806.052	29155
806.194	28972
806.336	29052
806.478	29048
806.62	28980
806.762	29185
806.904	29326
807.046	29531
807.188	29391
807.33	29570
807.472	29596
807.614	29356
807.756	29505
807.898	29379
808.04	29337
808.182	29307
808.324	29372
808.465	29349
808.607	29577
808.749	29676
808.891	29798
809.033	29855
809.174	29783
809.316	29794
809.458	29627
809.6	29756
809.741	29798
809.883	29942
810.025	30041
810.166	29908
810.308	29973
810.45	29999
810.591	29901
810.733	29920
810.875	29889
811.016	29733
811.158	29638
811.299	29912
811.441	29999
811.582	30060
811.724	29745
811.865	29729
812.007	29866
812.148	29859
812.29	29904
812.431	29965
812.573	30022
812.714	30243
812.855	30247
812.997	30407
813.138	30471
813.279	30422
813.421	30376
813.562	30140
813.703	30083
813.845	30098
813.986	29779
814.127	29562
814.268	29585
814.41	29676
814.551	29474
814.692	29611
814.833	29436
814.974	29531
815.115	29581
815.256	29322
815.397	29433
815.539	29326
815.68	29261
815.821	29147
815.962	29368
816.103	29372
816.244	29216
816.385	29105
816.526	29136
816.666	29075
816.807	28812
816.948	28858
817.089	28900
817.23	29048
817.371	28888
817.512	28854
817.653	28809
817.793	28710
817.934	28805
818.075	28759
818.216	28961
818.356	28957
818.497	28626
818.638	28542
818.778	28767
818.919	28603
819.06	28877
819.2	28763
819.341	28854
819.481	28828
819.622	29014
819.762	29071
819.903	29261
820.043	29178
820.184	28938
820.324	29003
820.465	29136
820.605	28980
820.746	28843
820.886	28816
821.026	28946
821.167	28873
821.307	29010
821.447	28763
821.588	28797
821.728	28596
821.868	28561
822.008	28436
822.149	28565
822.289	28234
822.429	28128
822.569	28169
822.709	28002
822.849	27918
822.99	27846
823.13	27823
823.27	27804
823.41	27599
823.55	27504
823.69	27694
823.83	27629
823.97	27637
824.11	27542
824.25	27477
824.389	27450
824.529	27454
824.669	27545
824.809	27705
824.949	27587
825.089	27515
825.228	27553
825.368	27310
825.508	27523
825.648	27393
825.787	27469
825.927	27477
826.067	27412
826.206	27325
826.346	27439
826.485	27454
826.625	27272
826.765	27534
826.904	27374
827.044	27203
827.183	27355
827.323	27154
827.462	27169
827.601	27119
827.741	27203
827.88	27077
828.02	27017
828.159	27138
828.298	27024
828.437	27188
828.577	27009
828.716	27192
828.855	26971
828.994	26880
829.134	26815
829.273	26834
829.412	26739
829.551	26670
829.69	26693
829.829	26834
829.968	26800
830.107	26804
830.246	26785
830.385	26819
830.524	26655
830.663	26606
830.802	26507
830.941	26461
831.08	26358
831.219	26537
831.357	26461
831.496	26670
831.635	26415
831.774	26301
831.913	26275
832.051	26324
832.19	26103
832.329	26138
832.467	26096
832.606	25959
832.744	25932
832.883	26001
833.022	26142
833.16	26145
833.299	26035
833.437	26187
833.576	26130
833.714	26149
833.852	26225
833.991	26244
834.129	26153
834.267	26199
834.406	26161
834.544	26145
834.682	26126
834.821	26096
834.959	26271
835.097	26073
835.235	26183
835.373	26111
835.511	26046
835.65	26035
835.788	25913
835.926	25841
836.064	25715
836.202	25677
836.34	25868
836.478	25974
836.615	25894
836.753	25986
836.891	26046
837.029	25947
837.167	25955
837.305	25822
837.443	25651
837.58	25746
837.718	25841
837.856	25803
837.993	25685
838.131	25746
838.269	25639
838.406	25597
838.544	25609
838.681	25362
838.819	25324
838.956	25187
839.094	25339
839.231	25221
839.369	25430
839.506	25651
839.643	25396
839.781	25175
839.918	25232
840.055	25358
840.193	25164
840.33	25179
840.467	25156
840.604	25038
840.742	25312
840.879	24947
841.016	25015
841.153	25069
841.29	25217
841.427	25008
841.564	25084
841.701	25069
841.838	24966
841.975	24996
842.112	25004
842.249	24973
842.385	25103
842.522	25107
842.659	24897
842.796	24749
842.933	24916
843.069	24741
843.206	24745
843.343	25061
843.479	24958
843.616	24894
843.752	24593
843.889	24582
844.025	24776
844.162	24711
844.298	24779
844.435	24661
844.571	24631
844.708	24730
844.844	24738
844.98	24726
845.117	24612
845.253	24616
845.389	24490
845.525	24475
845.661	24429
845.798	24414
845.934	24224
846.07	24346
846.206	24330
846.342	24471
846.478	24304
846.614	24083
846.75	24072
846.886	24053
847.022	24102
847.158	24148
847.294	24136
847.429	24155
847.565	24144
847.701	24266
847.837	23878
847.972	23859
848.108	23802
848.244	24022
848.379	23737
848.515	23630
848.65	23703
848.786	23665
848.921	23687
849.057	23878
849.192	23779
849.328	23760
849.463	23570
849.598	23634
849.734	23562
849.869	23528
850.004	23486
850.14	23539
850.275	23448
850.41	23497
850.545	23364
850.68	23353
850.815	23554
850.95	23299
851.085	23562
851.22	23562
851.355	23444
851.49	23395
851.625	23376
851.76	23520
851.895	23414
852.03	23200
852.165	23497
852.299	23459
852.434	23520
852.569	23436
852.703	23516
852.838	23497
852.973	23615
853.107	23566
853.242	23391
853.376	23277
853.511	23132
853.645	23227
853.78	23391
853.914	23273
854.048	23246
854.183	23178
854.317	23162
854.451	23334
854.585	23185
854.72	23208
854.854	23391
854.988	23200
855.122	23208
855.256	23162
855.39	23292
855.524	23265
855.658	23410
855.792	23102
855.926	23246
856.06	23372
856.194	23185
856.327	23181
856.461	23174
856.595	23299
856.729	23250
856.862	23326
856.996	23292
857.13	23360
857.263	23280
857.397	23395
857.53	23258
857.664	23208
857.797	23265
857.931	23421
858.064	23288
858.197	23242
858.331	23162
858.464	23322
858.597	23155
858.731	23223
858.864	23284
858.997	23155
859.13	23227
859.263	23315
859.396	23330
859.529	23235
859.662	23296
859.795	23124
859.928	23299
860.061	23448
860.194	23364
860.327	23334
860.46	23200
860.592	23410
860.725	23414
860.858	23440
860.99	23265
861.123	23124
861.256	23208
861.388	23204
861.521	23920
861.653	23178
861.786	23075
861.918	23143
862.05	22987
862.183	23292
862.315	23258
862.447	23239
862.58	23151
862.712	22927
862.844	23022
862.976	23071
863.108	23048
863.24	23417
863.372	23025
863.504	22927
863.636	23018
863.768	22839
863.9	23022
864.032	22866
864.164	22900
864.296	23018
864.428	23037
864.559	22915
864.691	23109
864.823	22866
864.954	22831
865.086	22812
865.217	22801
865.349	22710
865.48	22877
865.612	22809
865.743	22927
865.875	22771
866.006	22862
866.137	22733
866.269	22656
866.4	22790
866.531	22729
866.662	22740
866.793	22816
866.924	22759
867.055	22759
867.186	22866
867.317	22675
867.448	22611
867.579	22729
867.71	22687
867.841	22584
867.972	22778
868.103	22752
868.233	22668
868.364	22752
868.495	22892
868.625	22896
868.756	23037
868.886	22892
869.017	22934
869.147	23033
869.278	23044
869.408	23098
869.539	23018
869.669	23128
869.799	22995
869.929	23162
870.06	23121
870.19	23292
870.32	23341
870.45	23239
870.58	23467
870.71	23474
870.84	23459
870.97	23364
871.1	23372
871.23	23516
871.36	23661
871.489	23486
871.619	23551
871.749	23646
871.879	23638
872.008	23615
872.138	23474
872.267	23589
872.397	23478
872.526	23398
872.656	23524
872.785	23425
872.915	23668
873.044	23722
873.173	23676
873.303	23634
873.432	23570
873.561	23661
873.69	23581
873.819	23642
873.948	23699
874.077	23615
874.206	23417
874.335	23680
874.464	23874
874.593	23885
874.722	23714
874.851	23745
874.979	23840
875.108	23882
875.237	23748
875.365	23680
875.494	23649
875.623	23866
875.751	23741
875.88	23851
876.008	23939
876.136	23954
876.265	24205
876.393	24289
876.521	24197
876.65	24334
876.778	24292
876.906	24133
877.034	24174
877.162	24068
877.29	24003
877.418	24220
877.546	24247
877.674	24152
877.802	24251
877.93	24083
878.058	24167
878.185	24060
878.313	24068
878.441	24125
878.568	23969
878.696	24114
878.824	24201
878.951	24205
879.079	24308
879.206	24391
879.333	24304
879.461	24159
879.588	24277
879.715	24304
879.842	24357
879.97	24186
880.097	24018
880.224	23920
880.351	24030
880.478	23912
880.605	23980
880.732	23958
880.859	24171
880.986	23958
881.112	24053
881.239	23748
881.366	23566
881.493	23490
881.619	23573
881.746	23562
881.872	23600
881.999	23516
882.125	23440
882.252	23623
882.378	23433
882.505	23573
882.631	23322
882.757	23284
882.883	23250
883.01	23128
883.136	23075
883.262	22961
883.388	23067
883.514	23197
883.64	23094
883.766	23140
883.892	22896
884.018	22953
884.143	23044
884.269	23132
884.395	22854
884.52	22790
884.646	22889
884.772	22820
884.897	22782
885.023	22824
885.148	22961
885.274	22896
885.399	23018
885.524	22881
885.65	22835
885.775	22866
885.9	22736
886.025	22904
886.15	22911
886.275	22801
886.4	22660
886.525	22816
886.65	22710
886.775	22771
886.9	22847
887.025	22968
887.149	22839
887.274	22603
887.399	22516
887.523	22455
887.648	22386
887.773	22485
887.897	22577
888.021	22618
888.146	22462
888.27	22599
888.395	22592
888.519	22546
888.643	22687
888.767	22519
888.891	22557
889.015	22337
889.139	22451
889.263	22291
889.387	22485
889.511	22542
889.635	22500
889.759	22382
889.883	22268
890.006	22447
890.13	22519
890.254	22284
890.377	22363
890.501	22128
890.624	22109
890.748	22101
890.871	21934
890.995	21964
891.118	21808
891.241	21857
891.364	21857
891.488	22124
891.611	21846
891.734	22029
891.857	21873
891.98	21888
892.103	21861
892.226	21827
892.349	21861
892.471	21625
892.594	21797
892.717	21747
892.839	21720
892.962	21865
893.085	21766
893.207	21751
893.33	21694
893.452	21610
893.575	21705
893.697	21800
893.819	21899
893.941	21888
894.064	21922
894.186	21747
894.308	21606
894.43	21633
894.552	21827
894.674	21739
894.796	21701
894.918	21812
895.04	21797
895.161	21736
895.283	21759
895.405	21812
895.526	21785
895.648	21576
895.769	21656
895.891	21781
896.012	21846
896.134	21838
896.255	21827
896.376	21667
896.498	21663
896.619	21728
896.74	21663
896.861	21800
896.982	21937
897.103	22147
897.224	21987
897.345	21869
897.466	21884
897.587	21869
897.708	21987
897.828	21994
897.949	21800
898.07	21751
898.19	21800
898.311	21941
898.431	21945
898.552	21793
898.672	21941
898.792	21922
898.913	21793
899.033	21743
899.153	21770
899.273	21564
899.393	21603
899.513	21675
899.633	21682
899.753	21751
899.873	21485
899.993	21656
900.113	21481
900.232	21568
900.352	21568
900.472	21492
900.591	21283
900.711	21424
900.83	21332
900.95	21401
901.069	21561
901.189	21275
901.308	20956
901.427	20921
901.546	20944
901.665	20929
901.784	21001
901.904	20785
902.023	20689
902.141	20560
902.26	20450
902.379	20571
902.498	20499
902.617	20282
902.735	20564
902.854	20362
902.973	20336
903.091	20088
903.21	20130
903.328	20039
903.446	19974
903.565	20027
903.683	20008
903.801	19822
903.919	19746
904.038	19830
904.156	19666
904.274	19681
904.392	19601
904.51	19670
904.627	19552
904.745	19590
904.863	19620
904.981	19495
905.098	19270
905.216	19274
905.334	19236
905.451	19297
905.569	19240
905.686	19472
905.803	19278
905.921	19072
906.038	19129
906.155	19118
906.272	19012
906.389	18939
906.506	18859
906.623	18833
906.74	18848
906.857	18654
906.974	18772
907.091	18973
907.208	18935
907.324	18920
907.441	18738
907.557	18555
907.674	18391
907.79	18452
907.907	18479
908.023	18635
908.139	18483
908.256	18448
908.372	18395
908.488	18403
908.604	18289
908.72	18182
908.836	18365
908.952	18201
909.068	18296
909.184	18388
909.3	18205
909.415	18167
909.531	18186
909.647	17923
909.762	18038
909.878	17897
909.993	17931
910.108	17859
910.224	17802
910.339	17798
910.454	17729
910.57	17695
910.685	17596
910.8	17851
910.915	17828
911.03	17680
911.145	17547
911.259	17452
911.374	17592
911.489	17463
911.604	17455
911.718	17258
911.833	17197
911.947	17223
912.062	17071
912.176	17204
912.291	17261
912.405	17193
912.519	17425
912.633	17337
912.748	17341
912.862	17166
912.976	17018
913.09	16908
913.204	17006
913.318	17086
913.431	17105
913.545	17117
913.659	17071
913.772	17006
913.886	16858
914	16816
914.113	16854
914.226	16816
914.34	16953
914.453	16675
914.566	16793
914.68	16691
914.793	16489
914.906	16413
915.019	16329
915.132	16333
915.245	16379
915.358	16440
915.47	16386
915.583	16405
915.696	16310
915.809	16398
915.921	16481
916.034	16253
916.146	16261
916.259	16234
916.371	16310
916.483	16303
916.595	16291
916.708	16356
916.82	16280
916.932	16131
917.044	16071
917.156	16177
917.268	15949
917.38	16032
917.491	15949
917.603	15922
917.715	16055
917.826	15934
917.938	15949
918.049	15759
918.161	15941
918.272	15903
918.384	15983
918.495	15892
918.606	15686
918.717	15698
918.828	15812
918.939	15720
919.05	15614
919.161	15679
919.272	15481
919.383	15610
919.494	15717
919.604	15949
919.715	15679
919.826	15580
919.936	15629
920.047	15701
920.157	15644
920.267	15846
920.378	15717
920.488	15663
920.598	15930
920.708	15918
920.818	15606
920.928	15739
921.038	15899
921.148	15960
921.258	15629
921.368	15515
921.477	15370
921.587	15325
921.697	15207
921.806	15382
921.916	15245
922.025	15066
922.134	15017
922.244	14895
922.353	15009
922.462	14914
922.571	14830
922.68	14629
922.789	14682
922.898	14724
923.007	14549
923.116	14568
923.224	14678
923.333	14530
923.442	14507
923.55	14419
923.659	14492
923.767	14457
923.876	14385
923.984	14457
924.092	14294
924.201	14423
924.309	14347
924.417	14180
924.525	14168
924.633	14332
924.741	15203
924.849	14027
924.956	14149
925.064	14016
925.172	13944
925.279	13909
925.387	14043
925.494	14035
925.602	14020
925.709	14081
925.816	13944
925.924	13852
926.031	14077
926.138	13944
926.245	13932
926.352	13822
926.459	13890
926.566	13997
926.673	13837
926.779	13670
926.886	13655
926.993	13567
927.099	13605
927.206	13419
927.312	13453
927.419	13476
927.525	13537
927.631	13476
927.737	13377
927.843	13308
927.95	13247
928.056	13289
928.162	13289
928.267	13312
928.373	14001
928.479	13373
928.585	13053
928.69	13263
928.796	13308
928.901	13156
929.007	13000
929.112	13133
929.218	13118
929.323	13034
929.428	13000
929.533	13156
929.638	12894
929.743	12916
929.848	12905
929.953	12924
930.058	12859
930.163	12627
930.267	12665
930.372	12817
930.477	12601
930.581	12810
930.685	12662
930.79	12498
930.894	12513
930.998	12555
931.103	12669
931.207	12171
931.311	12136
931.415	12117
931.519	11927
931.623	11889
