Data from test_V78500241_136.txt Node
Date: Fri Mar 25 15:42:44 CST 2022
User: usil
Spectrometer: V785-0024
Trigger mode: 0
Integration Time (sec): 4.000000E-1
Scans to average: 1
Nonlinearity correction enabled: false
Boxcar width: 0
Storing dark spectrum: false
XAxis mode: Wavelengths
Number of Pixels in Spectrum: 1024
>>>>>Begin Spectral Data<<<<<
801.071	29672
801.214	29611
801.356	29497
801.499	29395
801.641	29227
801.783	29162
801.926	29140
802.068	29136
802.211	29071
802.353	28984
802.496	28767
802.638	28862
802.78	28797
802.923	28694
803.065	28668
803.208	28523
803.35	28721
803.492	28953
803.635	28881
803.777	28885
803.919	28805
804.061	29235
804.204	29029
804.346	28847
804.488	28801
804.63	28721
804.773	28683
804.915	28809
805.057	28938
805.199	28744
805.341	28938
805.483	28885
805.626	28938
805.768	28904
805.91	29003
806.052	28957
806.194	28957
806.336	29052
806.478	28820
806.62	28953
806.762	29022
806.904	29121
807.046	29402
807.188	29379
807.33	29364
807.472	29402
807.614	29242
807.756	29231
807.898	29159
808.04	29128
808.182	29083
808.324	29147
808.465	28995
808.607	29311
808.749	29425
808.891	29429
809.033	29665
809.174	29512
809.316	29459
809.458	29516
809.6	29482
809.741	29573
809.883	29589
810.025	29684
810.166	29638
810.308	29695
810.45	29627
810.591	29638
810.733	29459
810.875	29326
811.016	29410
811.158	29303
811.299	29531
811.441	29524
811.582	29573
811.724	29429
811.865	29490
812.007	29410
812.148	29353
812.29	29539
812.431	29577
812.573	29638
812.714	29832
812.855	29908
812.997	30121
813.138	30091
813.279	29908
813.421	29916
813.562	29862
813.703	29699
813.845	29505
813.986	29410
814.127	29170
814.268	29113
814.41	29128
814.551	29037
814.692	29136
814.833	28862
814.974	29052
815.115	29010
815.256	28763
815.397	28767
815.539	28831
815.68	28721
815.821	28618
815.962	28774
816.103	28683
816.244	28588
816.385	28481
816.526	28561
816.666	28287
816.807	28070
816.948	28367
817.089	28169
817.23	28234
817.371	28029
817.512	28139
817.653	28112
817.793	28078
817.934	28200
818.075	28063
818.216	28143
818.356	28109
818.497	28032
818.638	27899
818.778	27804
818.919	27831
819.06	27972
819.2	27960
819.341	28006
819.481	28006
819.622	28192
819.762	28303
819.903	28401
820.043	28303
820.184	28086
820.324	28059
820.465	28192
820.605	28063
820.746	28112
820.886	28036
821.026	28082
821.167	27903
821.307	28166
821.447	27949
821.588	27751
821.728	27819
821.868	27564
822.008	27507
822.149	27545
822.289	27534
822.429	27100
822.569	26990
822.709	27195
822.849	26952
822.99	26868
823.13	26819
823.27	26940
823.41	26720
823.55	26625
823.69	26769
823.83	26598
823.97	26705
824.11	26461
824.25	26465
824.389	26575
824.529	26537
824.669	26347
824.809	26503
824.949	26689
825.089	26533
825.228	26396
825.368	26412
825.508	26218
825.648	26278
825.787	26404
825.927	26298
826.067	26195
826.206	26328
826.346	26419
826.485	26408
826.625	26290
826.765	26298
826.904	26305
827.044	26058
827.183	26016
827.323	25883
827.462	26001
827.601	26024
827.741	25902
827.88	25909
828.02	25837
828.159	25932
828.298	25909
828.437	26035
828.577	25871
828.716	26153
828.855	25807
828.994	25719
829.134	25624
829.273	25594
829.412	25685
829.551	25537
829.69	25723
829.829	25597
829.968	25734
830.107	25635
830.246	25674
830.385	25449
830.524	25510
830.663	25362
830.802	25221
830.941	25198
831.08	25236
831.219	25293
831.357	25255
831.496	25324
831.635	24973
831.774	24890
831.913	25038
832.051	24951
832.19	24871
832.329	24935
832.467	24954
832.606	24753
832.744	24806
832.883	24745
833.022	24764
833.16	24837
833.299	24711
833.437	24817
833.576	24745
833.714	24745
833.852	24856
833.991	24783
834.129	24935
834.267	24848
834.406	24741
834.544	24852
834.682	24795
834.821	24574
834.959	24958
835.097	24627
835.235	24696
835.373	24703
835.511	24726
835.65	24646
835.788	24536
835.926	24433
836.064	24350
836.202	24296
836.34	24559
836.478	24601
836.615	24547
836.753	24547
836.891	24563
837.029	24692
837.167	24448
837.305	24380
837.443	24391
837.58	24258
837.718	24429
837.856	24475
837.993	24418
838.131	24384
838.269	24365
838.406	24311
838.544	24243
838.681	23946
838.819	23855
838.956	23703
839.094	23893
839.231	23764
839.369	24003
839.506	24277
839.643	24083
839.781	23847
839.918	23737
840.055	23714
840.193	23764
840.33	23615
840.467	23627
840.604	23729
840.742	23992
840.879	23429
841.016	23668
841.153	23493
841.29	23794
841.427	23779
841.564	23627
841.701	23687
841.838	23589
841.975	23520
842.112	23623
842.249	23512
842.385	23448
842.522	23486
842.659	23261
842.796	23353
842.933	23452
843.069	23223
843.206	23429
843.343	23410
843.479	23220
843.616	23212
843.752	23109
843.889	23143
844.025	23239
844.162	22991
844.298	23170
844.435	23151
844.571	22942
844.708	23067
844.844	23109
844.98	23212
845.117	23132
845.253	22999
845.389	23044
845.525	23052
845.661	22889
845.798	22740
845.934	22831
846.07	22744
846.206	22885
846.342	22831
846.478	22645
846.614	22523
846.75	22493
846.886	22531
847.022	22660
847.158	22447
847.294	22668
847.429	22538
847.565	22424
847.701	22740
847.837	22265
847.972	22295
848.108	22360
848.244	22280
848.379	22226
848.515	21949
848.65	22029
848.786	22036
848.921	22139
849.057	22063
849.192	22162
849.328	22090
849.463	21949
849.598	22010
849.734	21998
849.869	21926
850.004	21785
850.14	21869
850.275	21819
850.41	21682
850.545	21846
850.68	21641
850.815	21736
850.95	21747
851.085	22029
851.22	21808
851.355	21755
851.49	21781
851.625	21804
851.76	21614
851.895	21648
852.03	21698
852.165	21739
852.299	21660
852.434	21819
852.569	21724
852.703	21736
852.838	21808
852.973	21876
853.107	21797
853.242	21690
853.376	21709
853.511	21492
853.645	21606
853.78	21660
853.914	21469
854.048	21469
854.183	21466
854.317	21603
854.451	21736
854.585	21553
854.72	21511
854.854	21542
854.988	21557
855.122	21462
855.256	21340
855.39	21431
855.524	21564
855.658	21519
855.792	21606
855.926	21523
856.06	21648
856.194	21675
856.327	21477
856.461	21530
856.595	21431
856.729	21443
856.862	21583
856.996	21454
857.13	21637
857.263	21595
857.397	21675
857.53	21408
857.664	21526
857.797	21462
857.931	21637
858.064	21595
858.197	21572
858.331	21473
858.464	21279
858.597	21329
858.731	21496
858.864	21393
858.997	21416
859.13	21367
859.263	21557
859.396	21576
859.529	21329
859.662	21306
859.795	21382
859.928	21443
860.061	21564
860.194	21652
860.327	21538
860.46	21481
860.592	21591
860.725	21610
860.858	21500
860.99	21450
861.123	21370
861.256	21378
861.388	21466
861.521	22017
861.653	21363
861.786	21241
861.918	21382
862.05	21374
862.183	21431
862.315	21481
862.447	21622
862.58	21538
862.712	21199
862.844	21176
862.976	21294
863.108	21268
863.24	21504
863.372	20937
863.504	21176
863.636	21119
863.768	21089
863.9	21070
864.032	21043
864.164	21058
864.296	21047
864.428	21226
864.559	21161
864.691	21180
864.823	21154
864.954	21157
865.086	21062
865.217	21154
865.349	21017
865.48	21024
865.612	21058
865.743	21135
865.875	21074
866.006	20986
866.137	21036
866.269	20902
866.4	21020
866.531	20864
866.662	20933
866.793	20986
866.924	20937
867.055	20941
867.186	21039
867.317	20982
867.448	20876
867.579	20982
867.71	20842
867.841	21039
867.972	20914
868.103	20819
868.233	21100
868.364	20933
868.495	21096
868.625	21112
868.756	21188
868.886	20986
869.017	21085
869.147	21203
869.278	21332
869.408	21222
869.539	21032
869.669	21317
869.799	21302
869.929	21294
870.06	21332
870.19	21485
870.32	21485
870.45	21504
870.58	21591
870.71	21701
870.84	21667
870.97	21545
871.1	21557
871.23	21751
871.36	21743
871.489	21561
871.619	21671
871.749	21652
871.879	21956
872.008	21804
872.138	21717
872.267	21789
872.397	21580
872.526	21644
872.656	21595
872.785	21747
872.915	21770
873.044	21793
873.173	21747
873.303	21869
873.432	21873
873.561	22078
873.69	21781
873.819	21770
873.948	21979
874.077	21732
874.206	21694
874.335	21743
874.464	22059
874.593	22059
874.722	21892
874.851	22025
874.979	22059
875.108	22082
875.237	22067
875.365	21941
875.494	21983
875.623	22090
875.751	21949
875.88	22067
876.008	22188
876.136	22154
876.265	22375
876.393	22523
876.521	22466
876.65	22440
876.778	22428
876.906	22280
877.034	22318
877.162	22398
877.29	22333
877.418	22360
877.546	22379
877.674	22497
877.802	22398
877.93	22306
878.058	22360
878.185	22287
878.313	22367
878.441	22478
878.568	22173
878.696	22314
878.824	22348
878.951	22421
879.079	22554
879.206	22782
879.333	22637
879.461	22485
879.588	22535
879.715	22428
879.842	22660
879.97	22421
880.097	22261
880.224	22112
880.351	22150
880.478	22223
880.605	22162
880.732	22246
880.859	22390
880.986	22246
881.112	22196
881.239	22013
881.366	21895
881.493	21907
881.619	21827
881.746	21743
881.872	21857
881.999	21648
882.125	21774
882.252	21789
882.378	21797
882.505	21903
882.631	21553
882.757	21515
882.883	21564
883.01	21603
883.136	21416
883.262	21348
883.388	21450
883.514	21504
883.64	21545
883.766	21553
883.892	21237
884.018	21230
884.143	21481
884.269	21462
884.395	21260
884.52	21226
884.646	21096
884.772	21066
884.897	21131
885.023	21085
885.148	21306
885.274	21264
885.399	21165
885.524	20998
885.65	21100
885.775	21116
885.9	21051
886.025	21310
886.15	21199
886.275	21005
886.4	21005
886.525	21165
886.65	20994
886.775	20941
886.9	21260
887.025	21306
887.149	20941
887.274	21017
887.399	20902
887.523	20823
887.648	20712
887.773	20838
887.897	20971
888.021	20872
888.146	20758
888.27	21001
888.395	20979
888.519	20998
888.643	20826
888.767	20948
888.891	20750
889.015	20689
889.139	20788
889.263	20693
889.387	20902
889.511	20838
889.635	20899
889.759	20613
889.883	20533
890.006	20701
890.13	20663
890.254	20499
890.377	20537
890.501	20492
890.624	20389
890.748	20423
890.871	20195
890.995	20275
891.118	20168
891.241	20221
891.364	20309
891.488	20332
891.611	20328
891.734	20046
891.857	20298
891.98	20149
892.103	20240
892.226	20191
892.349	20176
892.471	19974
892.594	20153
892.717	20130
892.839	20096
892.962	20142
893.085	20145
893.207	20172
893.33	20008
893.452	20016
893.575	20043
893.697	20176
893.819	20324
893.941	20282
894.064	20278
894.186	19997
894.308	20069
894.43	20172
894.552	20301
894.674	20332
894.796	20073
894.918	20244
895.04	20168
895.161	20256
895.283	20122
895.405	20107
895.526	20058
895.648	20134
895.769	20161
895.891	20195
896.012	20267
896.134	20145
896.255	20100
896.376	20119
896.498	20187
896.619	20294
896.74	20278
896.861	20336
896.982	20511
897.103	20708
897.224	20495
897.345	20408
897.466	20434
897.587	20389
897.708	20522
897.828	20442
897.949	20366
898.07	20259
898.19	20244
898.311	20442
898.431	20294
898.552	20298
898.672	20389
898.792	20381
898.913	20278
899.033	20199
899.153	20027
899.273	19967
899.393	20039
899.513	20142
899.633	20077
899.753	20065
899.873	19970
899.993	20103
900.113	19963
900.232	20024
900.352	20012
900.472	19856
900.591	19822
900.711	19860
900.83	19742
900.95	19997
901.069	19871
901.189	19799
901.308	19491
901.427	19411
901.546	19491
901.665	19400
901.784	19491
901.904	19278
902.023	19198
902.141	19114
902.26	18840
902.379	19034
902.498	18951
902.617	18905
902.735	18829
902.854	18989
902.973	18749
903.091	18639
903.21	18604
903.328	18627
903.446	18486
903.565	18311
903.683	18399
903.801	18232
903.919	18380
904.038	18384
904.156	18174
904.274	18228
904.392	18060
904.51	18095
904.627	18121
904.745	18079
904.863	18262
904.981	17950
905.098	17771
905.216	17775
905.334	17756
905.451	17790
905.569	17775
905.686	17855
905.803	17824
905.921	17741
906.038	17703
906.155	17501
906.272	17543
906.389	17410
906.506	17368
906.623	17288
906.74	17254
906.857	17170
906.974	17181
907.091	17360
907.208	17467
907.324	17307
907.441	17162
907.557	16957
907.674	16980
907.79	16999
907.907	16942
908.023	17052
908.139	16919
908.256	16831
908.372	16858
908.488	16824
908.604	16744
908.72	16702
908.836	16774
908.952	16615
909.068	16683
909.184	16706
909.3	16538
909.415	16752
909.531	16675
909.647	16371
909.762	16443
909.878	16371
909.993	16325
910.108	16333
910.224	16295
910.339	16287
910.454	16166
910.57	16173
910.685	16105
910.8	16299
910.915	16280
911.03	16185
911.145	15983
911.259	16006
911.374	15892
911.489	15941
911.604	15808
911.718	15679
911.833	15709
911.947	15633
912.062	15606
912.176	15751
912.291	15690
912.405	15762
912.519	15934
912.633	15895
912.748	15743
912.862	15561
912.976	15500
913.09	15363
913.204	15511
913.318	15504
913.431	15568
913.545	15572
913.659	15553
913.772	15393
913.886	15367
914	15393
914.113	15386
914.226	15378
914.34	15325
914.453	15268
914.566	15348
914.68	15074
914.793	15154
914.906	15036
915.019	14960
915.132	14891
915.245	14777
915.358	14929
915.47	14937
915.583	14830
915.696	14830
915.809	15001
915.921	15032
916.034	14872
916.146	14849
916.259	14826
916.371	14845
916.483	14804
916.595	14746
916.708	14731
916.82	14743
916.932	14693
917.044	14617
917.156	14651
917.268	14533
917.38	14545
917.491	14648
917.603	14560
917.715	14697
917.826	14606
917.938	14454
918.049	14438
918.161	14583
918.272	14602
918.384	14655
918.495	14549
918.606	14358
918.717	14263
918.828	14305
918.939	14313
919.05	14206
919.161	14358
919.272	13993
919.383	14210
919.494	14252
919.604	14473
919.715	14259
919.826	14157
919.936	14237
920.047	14313
920.157	14267
920.267	14396
920.378	14237
920.488	14149
920.598	14377
920.708	14454
920.818	14431
920.928	14317
921.038	14465
921.148	14514
921.258	14206
921.368	13967
921.477	14031
921.587	13921
921.697	13917
921.806	14024
921.916	13814
922.025	13639
922.134	13700
922.244	13578
922.353	13677
922.462	13510
922.571	13441
922.68	13278
922.789	13255
922.898	13339
923.007	13152
923.116	13175
923.224	13149
923.333	13228
923.442	13164
923.55	13072
923.659	13088
923.767	13179
923.876	13046
923.984	13080
924.092	12973
924.201	12966
924.309	12943
924.417	13023
924.525	12977
924.633	12886
924.741	13708
924.849	12696
924.956	12844
925.064	12677
925.172	12604
925.279	12582
925.387	12753
925.494	12654
925.602	12764
925.709	12829
925.816	12620
925.924	12662
926.031	12779
926.138	12601
926.245	12730
926.352	12547
926.459	12707
926.566	12753
926.673	12555
926.779	12407
926.886	12437
926.993	12289
927.099	12262
927.206	12262
927.312	12209
927.419	12296
927.525	12243
927.631	12205
927.737	12083
927.843	12114
927.95	12015
928.056	12057
928.162	12098
928.267	12117
928.373	12730
928.479	12197
928.585	11863
928.69	12011
928.796	12019
928.901	11977
929.007	11710
929.112	11908
929.218	11878
929.323	11847
929.428	11726
929.533	11977
929.638	11638
929.743	11748
929.848	11840
929.953	11756
930.058	11630
930.163	11452
930.267	11520
930.372	11562
930.477	11383
930.581	11649
930.685	11535
930.79	11296
930.894	11467
930.998	11398
931.103	11429
931.207	11105
931.311	11029
931.415	10889
931.519	10675
931.623	10645
