Data from test_V78500241_3155.txt Node
Date: Fri Mar 25 16:03:39 CST 2022
User: usil
Spectrometer: V785-0024
Trigger mode: 0
Integration Time (sec): 4.000000E-1
Scans to average: 1
Nonlinearity correction enabled: false
Boxcar width: 0
Storing dark spectrum: false
XAxis mode: Wavelengths
Number of Pixels in Spectrum: 1024
>>>>>Begin Spectral Data<<<<<
801.071	28493
801.214	28588
801.356	28207
801.499	28253
801.641	28291
801.783	28051
801.926	28295
802.068	28234
802.211	28147
802.353	28097
802.496	27812
802.638	27861
802.78	27793
802.923	27804
803.065	27717
803.208	27827
803.35	27899
803.492	27987
803.635	27972
803.777	28025
803.919	28234
804.061	28447
804.204	28112
804.346	28105
804.488	28074
804.63	28029
804.773	28051
804.915	27960
805.057	28352
805.199	28093
805.341	28147
805.483	28090
805.626	28166
805.768	28067
805.91	28329
806.052	28284
806.194	28177
806.336	28447
806.478	28200
806.62	28169
806.762	28527
806.904	28588
807.046	28752
807.188	28679
807.33	28577
807.472	28649
807.614	28599
807.756	28626
807.898	28626
808.04	28417
808.182	28341
808.324	28474
808.465	28584
808.607	28687
808.749	28896
808.891	28984
809.033	29189
809.174	28995
809.316	28896
809.458	28942
809.6	28957
809.741	28953
809.883	29071
810.025	29200
810.166	29094
810.308	29170
810.45	29090
810.591	29121
810.733	28976
810.875	28892
811.016	28858
811.158	28858
811.299	29132
811.441	29052
811.582	29079
811.724	28972
811.865	28862
812.007	28995
812.148	28991
812.29	28900
812.431	29105
812.573	29185
812.714	29288
812.855	29516
812.997	29501
813.138	29657
813.279	29592
813.421	29395
813.562	29512
813.703	29258
813.845	29124
813.986	28881
814.127	28759
814.268	28748
814.41	28645
814.551	28691
814.692	28740
814.833	28485
814.974	28478
815.115	28630
815.256	28584
815.397	28580
815.539	28542
815.68	28462
815.821	28337
815.962	28500
816.103	28470
816.244	28299
816.385	28284
816.526	28352
816.666	27983
816.807	27914
816.948	28025
817.089	28128
817.23	27960
817.371	27972
817.512	27857
817.653	27960
817.793	27785
817.934	27941
818.075	27861
818.216	28036
818.356	27922
818.497	27785
818.638	27675
818.778	27743
818.919	27671
819.06	27873
819.2	27930
819.341	27914
819.481	27960
819.622	28090
819.762	28299
819.903	28223
820.043	28181
820.184	28055
820.324	27960
820.465	28135
820.605	27979
820.746	27880
820.886	27846
821.026	27892
821.167	28139
821.307	28010
821.447	27941
821.588	27842
821.728	27766
821.868	27542
822.008	27500
822.149	27416
822.289	27408
822.429	27207
822.569	27100
822.709	27081
822.849	27017
822.99	27043
823.13	26876
823.27	26960
823.41	26849
823.55	26651
823.69	26674
823.83	26857
823.97	26769
824.11	26537
824.25	26480
824.389	26613
824.529	26693
824.669	26590
824.809	26727
824.949	26674
825.089	26762
825.228	26625
825.368	26476
825.508	26267
825.648	26408
825.787	26313
825.927	26568
826.067	26301
826.206	26469
826.346	26537
826.485	26511
826.625	26465
826.765	26636
826.904	26526
827.044	26183
827.183	26130
827.323	26164
827.462	26214
827.601	26305
827.741	26161
827.88	26103
828.02	26088
828.159	26172
828.298	26164
828.437	26119
828.577	26115
828.716	26275
828.855	26073
828.994	25868
829.134	25871
829.273	25841
829.412	25932
829.551	25799
829.69	25833
829.829	25807
829.968	25818
830.107	25894
830.246	25868
830.385	25811
830.524	25658
830.663	25559
830.802	25689
830.941	25453
831.08	25544
831.219	25632
831.357	25502
831.496	25548
831.635	25548
831.774	25441
831.913	25278
832.051	25346
832.19	25320
832.329	25183
832.467	25110
832.606	25164
832.744	25270
832.883	25209
833.022	25012
833.16	25107
833.299	25141
833.437	25175
833.576	25179
833.714	25141
833.852	25320
833.991	25171
834.129	25316
834.267	25202
834.406	25129
834.544	25198
834.682	25255
834.821	25194
834.959	25369
835.097	25171
835.235	25088
835.373	25194
835.511	25244
835.65	24913
835.788	25133
835.926	24954
836.064	24928
836.202	24882
836.34	25069
836.478	25164
836.615	24981
836.753	25091
836.891	25107
837.029	24992
837.167	24909
837.305	24951
837.443	24875
837.58	24798
837.718	24943
837.856	24844
837.993	24795
838.131	24852
838.269	24783
838.406	24711
838.544	24544
838.681	24570
838.819	24585
838.956	24194
839.094	24342
839.231	24384
839.369	24456
839.506	24677
839.643	24517
839.781	24289
839.918	24205
840.055	24448
840.193	24247
840.33	24262
840.467	24247
840.604	24342
840.742	24365
840.879	24076
841.016	24159
841.153	24232
841.29	24369
841.427	24129
841.564	24311
841.701	24365
841.838	24308
841.975	24060
842.112	24114
842.249	23961
842.385	23916
842.522	24125
842.659	24095
842.796	23908
842.933	24015
843.069	23893
843.206	23958
843.343	24053
843.479	23904
843.616	23897
843.752	23741
843.889	23863
844.025	23882
844.162	23737
844.298	23904
844.435	23661
844.571	23726
844.708	23745
844.844	23904
844.98	23771
845.117	23874
845.253	23714
845.389	23539
845.525	23672
845.661	23630
845.798	23524
845.934	23459
846.07	23528
846.206	23592
846.342	23710
846.478	23531
846.614	23258
846.75	23166
846.886	23147
847.022	23296
847.158	23273
847.294	23166
847.429	23193
847.565	23197
847.701	23364
847.837	22930
847.972	22793
848.108	23075
848.244	23003
848.379	22862
848.515	22683
848.65	22763
848.786	22835
848.921	22896
849.057	22995
849.192	22976
849.328	22816
849.463	22771
849.598	22831
849.734	22763
849.869	22538
850.004	22721
850.14	22542
850.275	22554
850.41	22538
850.545	22508
850.68	22512
850.815	22656
850.95	22504
851.085	22713
851.22	22607
851.355	22577
851.49	22504
851.625	22538
851.76	22561
851.895	22394
852.03	22523
852.165	22771
852.299	22523
852.434	22740
852.569	22698
852.703	22508
852.838	22546
852.973	22664
853.107	22630
853.242	22508
853.376	22371
853.511	22409
853.645	22375
853.78	22512
853.914	22394
854.048	22265
854.183	22371
854.317	22447
854.451	22702
854.585	22424
854.72	22455
854.854	22413
854.988	22402
855.122	22379
855.256	22341
855.39	22421
855.524	22451
855.658	22531
855.792	22402
855.926	22371
856.06	22352
856.194	22504
856.327	22417
856.461	22242
856.595	22363
856.729	22314
856.862	22489
856.996	22413
857.13	22386
857.263	22542
857.397	22432
857.53	22314
857.664	22466
857.797	22413
857.931	22421
858.064	22542
858.197	22565
858.331	22451
858.464	22314
858.597	22226
858.731	22341
858.864	22333
858.997	22246
859.13	22257
859.263	22455
859.396	22451
859.529	22432
859.662	22421
859.795	22314
859.928	22390
860.061	22478
860.194	22630
860.327	22440
860.46	22348
860.592	22470
860.725	22436
860.858	22363
860.99	22485
861.123	22322
861.256	22402
861.388	22337
861.521	23018
861.653	22230
861.786	22261
861.918	22211
862.05	22169
862.183	22356
862.315	22436
862.447	22390
862.58	22329
862.712	22086
862.844	22067
862.976	22120
863.108	22200
863.24	22386
863.372	22116
863.504	22097
863.636	22048
863.768	22143
863.9	22063
864.032	22105
864.164	22188
864.296	22135
864.428	22109
864.559	22124
864.691	22059
864.823	22150
864.954	22059
865.086	22116
865.217	22120
865.349	21903
865.48	21937
865.612	21926
865.743	21991
865.875	22029
866.006	21945
866.137	22013
866.269	21987
866.4	21956
866.531	21998
866.662	21888
866.793	21884
866.924	21873
867.055	21892
867.186	22013
867.317	21899
867.448	21884
867.579	21915
867.71	21816
867.841	21778
867.972	21956
868.103	21972
868.233	21884
868.364	21998
868.495	22017
868.625	22105
868.756	22150
868.886	22101
869.017	22143
869.147	22204
869.278	22306
869.408	22109
869.539	22147
869.669	22200
869.799	22211
869.929	22246
870.06	22234
870.19	22599
870.32	22443
870.45	22451
870.58	22645
870.71	22618
870.84	22615
870.97	22618
871.1	22519
871.23	22710
871.36	22683
871.489	22672
871.619	22683
871.749	22793
871.879	22858
872.008	22759
872.138	22706
872.267	22683
872.397	22691
872.526	22516
872.656	22485
872.785	22580
872.915	22759
873.044	22862
873.173	22782
873.303	22847
873.432	22858
873.561	22850
873.69	22896
873.819	22854
873.948	22869
874.077	22702
874.206	22611
874.335	22733
874.464	22885
874.593	23003
874.722	23060
874.851	23102
874.979	22927
875.108	23151
875.237	22961
875.365	22938
875.494	22968
875.623	23010
875.751	23003
875.88	22930
876.008	23037
876.136	23079
876.265	23231
876.393	23501
876.521	23402
876.65	23478
876.778	23421
876.906	23364
877.034	23235
877.162	23326
877.29	23178
877.418	23345
877.546	23345
877.674	23349
877.802	23288
877.93	23284
878.058	23231
878.185	23124
878.313	23383
878.441	23337
878.568	23071
878.696	23189
878.824	23288
878.951	23417
879.079	23615
879.206	23642
879.333	23566
879.461	23474
879.588	23383
879.715	23528
879.842	23543
879.97	23398
880.097	23056
880.224	23140
880.351	23109
880.478	23265
880.605	23140
880.732	23140
880.859	23467
880.986	23147
881.112	23239
881.239	23064
881.366	22862
881.493	22748
881.619	22717
881.746	22744
881.872	22577
881.999	22626
882.125	22615
882.252	22744
882.378	22569
882.505	22744
882.631	22596
882.757	22516
882.883	22519
883.01	22409
883.136	22394
883.262	22246
883.388	22253
883.514	22238
883.64	22443
883.766	22265
883.892	22188
884.018	22173
884.143	22478
884.269	22348
884.395	22120
884.52	21987
884.646	22078
884.772	21956
884.897	21983
885.023	22044
885.148	22032
885.274	22223
885.399	22032
885.524	22105
885.65	22093
885.775	21930
885.9	21994
886.025	22109
886.15	22074
886.275	21975
886.4	21934
886.525	21975
886.65	21895
886.775	21968
886.9	22074
887.025	22219
887.149	21983
887.274	21827
887.399	21770
887.523	21660
887.648	21694
887.773	21644
887.897	21751
888.021	21755
888.146	21679
888.27	21755
888.395	21918
888.519	21808
888.643	21854
888.767	21907
888.891	21720
889.015	21629
889.139	21549
889.263	21583
889.387	21622
889.511	21899
889.635	21641
889.759	21507
889.883	21549
890.006	21648
890.13	21629
890.254	21485
890.377	21469
890.501	21374
890.624	21241
890.748	21226
890.871	21161
890.995	21176
891.118	21077
891.241	21131
891.364	21096
891.488	21199
891.611	21036
891.734	20967
891.857	21154
891.98	21013
892.103	21127
892.226	21184
892.349	21074
892.471	20857
892.594	21104
892.717	21020
892.839	20883
892.962	21020
893.085	21154
893.207	21028
893.33	21005
893.452	20815
893.575	20891
893.697	21039
893.819	21176
893.941	21119
894.064	21176
894.186	20941
894.308	20899
894.43	21028
894.552	21157
894.674	20948
894.796	20880
894.918	20948
895.04	20952
895.161	21165
895.283	20994
895.405	20876
895.526	21051
895.648	20967
895.769	20937
895.891	21039
896.012	21066
896.134	21066
896.255	20914
896.376	20914
896.498	20925
896.619	21009
896.74	21047
896.861	21077
896.982	21199
897.103	21504
897.224	21264
897.345	21150
897.466	21100
897.587	21218
897.708	21321
897.828	21203
897.949	21123
898.07	21070
898.19	21043
898.311	21306
898.431	21195
898.552	21154
898.672	21268
898.792	21275
898.913	21245
899.033	21123
899.153	20979
899.273	20845
899.393	21062
899.513	20952
899.633	21036
899.753	20868
899.873	20804
899.993	20895
900.113	20834
900.232	20830
900.352	20914
900.472	20777
900.591	20682
900.711	20667
900.83	20636
900.95	20800
901.069	20678
901.189	20530
901.308	20438
901.427	20324
901.546	20278
901.665	20225
901.784	20324
901.904	20130
902.023	20031
902.141	19963
902.26	19780
902.379	19856
902.498	19830
902.617	19685
902.735	19868
902.854	19681
902.973	19674
903.091	19316
903.21	19502
903.328	19411
903.446	19285
903.565	19285
903.683	19232
903.801	19160
903.919	19160
904.038	19069
904.156	19008
904.274	19023
904.392	18966
904.51	18970
904.627	19019
904.745	19023
904.863	19042
904.981	18772
905.098	18604
905.216	18646
905.334	18620
905.451	18612
905.569	18585
905.686	18684
905.803	18646
905.921	18433
906.038	18498
906.155	18422
906.272	18380
906.389	18445
906.506	18171
906.623	18228
906.74	18178
906.857	18026
906.974	18083
907.091	18277
907.208	18304
907.324	18136
907.441	18030
907.557	17851
907.674	17828
907.79	17889
907.907	17874
908.023	17866
908.139	17828
908.256	17878
908.372	17745
908.488	17760
908.604	17551
908.72	17516
908.836	17611
908.952	17665
909.068	17551
909.184	17634
909.3	17539
909.415	17532
909.531	17528
909.647	17383
909.762	17368
909.878	17311
909.993	17200
910.108	17337
910.224	17208
910.339	17242
910.454	17261
910.57	17056
910.685	16953
910.8	17250
910.915	17128
911.03	17098
911.145	17014
911.259	16793
911.374	16919
911.489	16752
911.604	16752
911.718	16550
911.833	16538
911.947	16550
912.062	16424
912.176	16497
912.291	16538
912.405	16497
912.519	16790
912.633	16759
912.748	16615
912.862	16474
912.976	16405
913.09	16249
913.204	16451
913.318	16413
913.431	16470
913.545	16497
913.659	16542
913.772	16356
913.886	16314
914	16204
914.113	16211
914.226	16310
914.34	16234
914.453	16078
914.566	16162
914.68	15975
914.793	16048
914.906	15888
915.019	15766
915.132	15690
915.245	15857
915.358	15762
915.47	15755
915.583	15694
915.696	15835
915.809	15926
915.921	15941
916.034	15667
916.146	15595
916.259	15698
916.371	15816
916.483	15679
916.595	15717
916.708	15641
916.82	15572
916.932	15584
917.044	15584
917.156	15454
917.268	15504
917.38	15401
917.491	15389
917.603	15344
917.715	15507
917.826	15458
917.938	15359
918.049	15230
918.161	15382
918.272	15576
918.384	15481
918.495	15336
918.606	15233
918.717	15123
918.828	15161
918.939	15226
919.05	15093
919.161	15123
919.272	14902
919.383	15047
919.494	15150
919.604	15260
919.715	15154
919.826	15024
919.936	15100
920.047	15017
920.157	15089
920.267	15272
920.378	15165
920.488	15081
920.598	15272
920.708	15428
920.818	15332
920.928	15146
921.038	15439
921.148	15351
921.258	15070
921.368	14918
921.477	14906
921.587	14777
921.697	14667
921.806	14880
921.916	14785
922.025	14590
922.134	14575
922.244	14423
922.353	14469
922.462	14427
922.571	14309
922.68	14142
922.789	14172
922.898	14126
923.007	14027
923.116	14187
923.224	14157
923.333	14027
923.442	13959
923.55	13947
923.659	13955
923.767	13967
923.876	13879
923.984	13986
924.092	13784
924.201	13830
924.309	13822
924.417	13822
924.525	13708
924.633	13738
924.741	14613
924.849	13571
924.956	13719
925.064	13556
925.172	13506
925.279	13476
925.387	13601
925.494	13495
925.602	13575
925.709	13567
925.816	13297
925.924	13426
926.031	13518
926.138	13472
926.245	13495
926.352	13335
926.459	13460
926.566	13445
926.673	13362
926.779	13202
926.886	13255
926.993	13110
927.099	13095
927.206	13031
927.312	12939
927.419	13061
927.525	13038
927.631	13042
927.737	13027
927.843	12856
927.95	12810
928.056	12757
928.162	12837
928.267	12856
928.373	13502
928.479	12932
928.585	12635
928.69	12802
928.796	12856
928.901	12654
929.007	12525
929.112	12726
929.218	12623
929.323	12608
929.428	12612
929.533	12650
929.638	12494
929.743	12525
929.848	12471
929.953	12502
930.058	12399
930.163	12270
930.267	12239
930.372	12418
930.477	12102
930.581	12399
930.685	12262
930.79	12091
930.894	12205
930.998	12144
931.103	12201
931.207	11786
931.311	11767
931.415	11714
931.519	11486
931.623	11474
