Data from test_V78500241_2485.txt Node
Date: Fri Mar 25 15:59:00 CST 2022
User: usil
Spectrometer: V785-0024
Trigger mode: 0
Integration Time (sec): 4.000000E-1
Scans to average: 1
Nonlinearity correction enabled: false
Boxcar width: 0
Storing dark spectrum: false
XAxis mode: Wavelengths
Number of Pixels in Spectrum: 1024
>>>>>Begin Spectral Data<<<<<
801.071	28341
801.214	28318
801.356	27994
801.499	27994
801.641	27880
801.783	27998
801.926	27884
802.068	27705
802.211	27838
802.353	27629
802.496	27545
802.638	27481
802.78	27549
802.923	27454
803.065	27530
803.208	27519
803.35	27496
803.492	27648
803.635	27606
803.777	27622
803.919	27793
804.061	28036
804.204	27675
804.346	27705
804.488	27663
804.63	27793
804.773	27698
804.915	27728
805.057	27922
805.199	27671
805.341	27759
805.483	28006
805.626	27778
805.768	27648
805.91	27949
806.052	27956
806.194	27846
806.336	28120
806.478	27922
806.62	27785
806.762	27979
806.904	28017
807.046	28474
807.188	28367
807.33	28295
807.472	28459
807.614	28166
807.756	28268
807.898	28135
808.04	28063
808.182	28048
808.324	28032
808.465	28223
808.607	28318
808.749	28500
808.891	28634
809.033	28778
809.174	28668
809.316	28493
809.458	28596
809.6	28409
809.741	28786
809.883	28649
810.025	28797
810.166	28793
810.308	28797
810.45	28771
810.591	28660
810.733	28508
810.875	28432
811.016	28363
811.158	28653
811.299	28630
811.441	28782
811.582	28725
811.724	28481
811.865	28504
812.007	28508
812.148	28603
812.29	28634
812.431	28725
812.573	28923
812.714	28999
812.855	28957
812.997	29128
813.138	29311
813.279	29109
813.421	29102
813.562	29056
813.703	28820
813.845	28748
813.986	28504
814.127	28333
814.268	28154
814.41	28226
814.551	28177
814.692	28303
814.833	28086
814.974	28097
815.115	28211
815.256	28169
815.397	28147
815.539	28090
815.68	28006
815.821	27994
815.962	28013
816.103	28002
816.244	27884
816.385	27835
816.526	27755
816.666	27610
816.807	27534
816.948	27660
817.089	27625
817.23	27618
817.371	27595
817.512	27606
817.653	27370
817.793	27412
817.934	27564
818.075	27698
818.216	27618
818.356	27431
818.497	27515
818.638	27298
818.778	27291
818.919	27218
819.06	27401
819.2	27447
819.341	27583
819.481	27511
819.622	27622
819.762	27819
819.903	27732
820.043	27641
820.184	27698
820.324	27679
820.465	27717
820.605	27553
820.746	27667
820.886	27378
821.026	27667
821.167	27625
821.307	27736
821.447	27622
821.588	27393
821.728	27367
821.868	27169
822.008	26937
822.149	26921
822.289	26895
822.429	26739
822.569	26754
822.709	26606
822.849	26571
822.99	26457
823.13	26336
823.27	26495
823.41	26275
823.55	26324
823.69	26290
823.83	26248
823.97	26168
824.11	26092
824.25	26081
824.389	26206
824.529	26172
824.669	26145
824.809	26320
824.949	26218
825.089	26278
825.228	26199
825.368	25913
825.508	25966
825.648	25902
825.787	26031
825.927	26100
826.067	25974
826.206	25947
826.346	26016
826.485	26046
826.625	26031
826.765	25997
826.904	26111
827.044	25685
827.183	25776
827.323	25769
827.462	25761
827.601	25769
827.741	25712
827.88	25753
828.02	25597
828.159	25811
828.298	25601
828.437	25811
828.577	25715
828.716	25818
828.855	25681
828.994	25441
829.134	25411
829.273	25419
829.412	25441
829.551	25400
829.69	25403
829.829	25491
829.968	25506
830.107	25449
830.246	25381
830.385	25445
830.524	25358
830.663	25217
830.802	25118
830.941	24932
831.08	24935
831.219	24932
831.357	25141
831.496	25381
831.635	24989
831.774	24856
831.913	24973
832.051	24760
832.19	24901
832.329	24795
832.467	24749
832.606	24772
832.744	24623
832.883	24700
833.022	24715
833.16	24711
833.299	24612
833.437	24715
833.576	24700
833.714	24719
833.852	24722
833.991	24829
834.129	24749
834.267	24715
834.406	24741
834.544	24806
834.682	24730
834.821	24817
834.959	24905
835.097	24627
835.235	24840
835.373	24715
835.511	24669
835.65	24486
835.788	24532
835.926	24418
836.064	24445
836.202	24342
836.34	24627
836.478	24711
836.615	24540
836.753	24513
836.891	24563
837.029	24623
837.167	24467
837.305	24665
837.443	24410
837.58	24399
837.718	24403
837.856	24350
837.993	24361
838.131	24380
838.269	24334
838.406	24262
838.544	24277
838.681	24057
838.819	23977
838.956	23889
839.094	23942
839.231	23961
839.369	24098
839.506	24235
839.643	24114
839.781	23999
839.918	23805
840.055	23977
840.193	23737
840.33	23885
840.467	23779
840.604	23821
840.742	24072
840.879	23733
841.016	23684
841.153	23775
841.29	23870
841.427	23733
841.564	23771
841.701	23809
841.838	23703
841.975	23809
842.112	23714
842.249	23570
842.385	23611
842.522	23779
842.659	23551
842.796	23433
842.933	23592
843.069	23467
843.206	23417
843.343	23455
843.479	23543
843.616	23638
843.752	23231
843.889	23368
844.025	23497
844.162	23315
844.298	23372
844.435	23280
844.571	23337
844.708	23299
844.844	23554
844.98	23520
845.117	23398
845.253	23216
845.389	23239
845.525	23208
845.661	23231
845.798	23124
845.934	23071
846.07	22961
846.206	23212
846.342	23193
846.478	23060
846.614	22835
846.75	22755
846.886	22915
847.022	22873
847.158	22706
847.294	22850
847.429	22675
847.565	22729
847.701	22972
847.837	22592
847.972	22417
848.108	22569
848.244	22626
848.379	22474
848.515	22379
848.65	22360
848.786	22421
848.921	22287
849.057	22436
849.192	22402
849.328	22440
849.463	22421
849.598	22421
849.734	22367
849.869	22204
850.004	22002
850.14	22036
850.275	22249
850.41	22021
850.545	22074
850.68	22074
850.815	22131
850.95	22139
851.085	22436
851.22	22276
851.355	22261
851.49	22154
851.625	22086
851.76	22036
851.895	22120
852.03	22090
852.165	22169
852.299	22139
852.434	22188
852.569	22109
852.703	22086
852.838	22154
852.973	22265
853.107	22306
853.242	22036
853.376	21899
853.511	21835
853.645	21880
853.78	22139
853.914	22017
854.048	21972
854.183	21979
854.317	22017
854.451	22097
854.585	21785
854.72	21926
854.854	22048
854.988	21816
855.122	21892
855.256	21861
855.39	21884
855.524	22021
855.658	22025
855.792	21781
855.926	22070
856.06	22021
856.194	22044
856.327	21907
856.461	21903
856.595	21960
856.729	21975
856.862	21972
856.996	21907
857.13	21975
857.263	22032
857.397	21998
857.53	21956
857.664	21907
857.797	21987
857.931	21979
858.064	21937
858.197	22013
858.331	21838
858.464	21903
858.597	21831
858.731	22059
858.864	21884
858.997	21907
859.13	21937
859.263	22044
859.396	22112
859.529	21911
859.662	21918
859.795	21884
859.928	22010
860.061	22074
860.194	22105
860.327	21998
860.46	22002
860.592	22086
860.725	22070
860.858	22025
860.99	22006
861.123	21880
861.256	21880
861.388	21968
861.521	22637
861.653	21736
861.786	21797
861.918	21804
862.05	21755
862.183	21899
862.315	21857
862.447	21888
862.58	21842
862.712	21671
862.844	21656
862.976	21622
863.108	21743
863.24	22059
863.372	21557
863.504	21732
863.636	21652
863.768	21778
863.9	21690
864.032	21530
864.164	21641
864.296	21633
864.428	21770
864.559	21800
864.691	21895
864.823	21618
864.954	21614
865.086	21644
865.217	21656
865.349	21481
865.48	21595
865.612	21572
865.743	21633
865.875	21534
866.006	21606
866.137	21477
866.269	21568
866.4	21625
866.531	21466
866.662	21469
866.793	21488
866.924	21466
867.055	21504
867.186	21443
867.317	21389
867.448	21294
867.579	21564
867.71	21439
867.841	21370
867.972	21431
868.103	21534
868.233	21492
868.364	21408
868.495	21523
868.625	21739
868.756	21785
868.886	21622
869.017	21663
869.147	21637
869.278	21831
869.408	21774
869.539	21648
869.669	21781
869.799	21690
869.929	21766
870.06	21861
870.19	22116
870.32	22101
870.45	22120
870.58	22200
870.71	22265
870.84	22192
870.97	22063
871.1	22059
871.23	22272
871.36	22249
871.489	22188
871.619	22348
871.749	22238
871.879	22474
872.008	22394
872.138	22284
872.267	22329
872.397	22173
872.526	22230
872.656	22204
872.785	22162
872.915	22363
873.044	22382
873.173	22394
873.303	22413
873.432	22527
873.561	22428
873.69	22268
873.819	22344
873.948	22455
874.077	22265
874.206	22375
874.335	22413
874.464	22306
874.593	22489
874.722	22565
874.851	22561
874.979	22687
875.108	22729
875.237	22489
875.365	22519
875.494	22462
875.623	22653
875.751	22557
875.88	22596
876.008	22763
876.136	22721
876.265	22877
876.393	23094
876.521	23010
876.65	23029
876.778	22999
876.906	22850
877.034	22927
877.162	22999
877.29	22782
877.418	22889
877.546	22892
877.674	22915
877.802	22835
877.93	22930
878.058	22892
878.185	22771
878.313	22957
878.441	22866
878.568	22759
878.696	22729
878.824	22927
878.951	22987
879.079	23079
879.206	23258
879.333	23098
879.461	22858
879.588	23003
879.715	23006
879.842	23345
879.97	22911
880.097	22782
880.224	22683
880.351	22748
880.478	22752
880.605	22713
880.732	22763
880.859	22900
880.986	22873
881.112	22694
881.239	22694
881.366	22455
881.493	22424
881.619	22371
881.746	22375
881.872	22318
881.999	22402
882.125	22238
882.252	22303
882.378	22265
882.505	22352
882.631	22166
882.757	22070
882.883	22002
883.01	21934
883.136	21926
883.262	21922
883.388	21876
883.514	21915
883.64	22051
883.766	21873
883.892	21762
884.018	21732
884.143	21888
884.269	21926
884.395	21709
884.52	21542
884.646	21652
884.772	21603
884.897	21553
885.023	21701
885.148	21603
885.274	21690
885.399	21732
885.524	21698
885.65	21656
885.775	21545
885.9	21610
886.025	21717
886.15	21599
886.275	21622
886.4	21564
886.525	21663
886.65	21504
886.775	21496
886.9	21656
887.025	21694
887.149	21564
887.274	21370
887.399	21344
887.523	21401
887.648	21443
887.773	21176
887.897	21431
888.021	21367
888.146	21298
888.27	21382
888.395	21382
888.519	21405
888.643	21363
888.767	21549
888.891	21344
889.015	21093
889.139	21317
889.263	21157
889.387	21184
889.511	21420
889.635	21275
889.759	21146
889.883	21207
890.006	21180
890.13	21184
890.254	21089
890.377	21047
890.501	20887
890.624	20887
890.748	21001
890.871	20914
890.995	20800
891.118	20648
891.241	20743
891.364	20739
891.488	20876
891.611	20739
891.734	20720
891.857	20845
891.98	20750
892.103	20762
892.226	20716
892.349	20785
892.471	20545
892.594	20670
892.717	20568
892.839	20686
892.962	20678
893.085	20727
893.207	20640
893.33	20514
893.452	20511
893.575	20849
893.697	20632
893.819	20754
893.941	20804
894.064	20826
894.186	20613
894.308	20495
894.43	20663
894.552	20842
894.674	20674
894.796	20541
894.918	20560
895.04	20552
895.161	20682
895.283	20712
895.405	20651
895.526	20636
895.648	20693
895.769	20651
895.891	20682
896.012	20689
896.134	20682
896.255	20583
896.376	20530
896.498	20693
896.619	20667
896.74	20587
896.861	20636
896.982	20910
897.103	20918
897.224	20948
897.345	20788
897.466	20754
897.587	20807
897.708	20982
897.828	20918
897.949	20800
898.07	20823
898.19	20724
898.311	20941
898.431	20648
898.552	20773
898.672	20933
898.792	20918
898.913	20944
899.033	20674
899.153	20530
899.273	20492
899.393	20590
899.513	20689
899.633	20602
899.753	20526
899.873	20568
899.993	20583
900.113	20454
900.232	20659
900.352	20511
900.472	20427
900.591	20374
900.711	20374
900.83	20320
900.95	20427
901.069	20431
901.189	20225
901.308	20024
901.427	19769
901.546	19925
901.665	19959
901.784	19902
901.904	19837
902.023	19830
902.141	19491
902.26	19388
902.379	19499
902.498	19350
902.617	19411
902.735	19502
902.854	19373
902.973	19362
903.091	19213
903.21	19107
903.328	19133
903.446	19080
903.565	18837
903.683	18981
903.801	18776
903.919	18848
904.038	18745
904.156	18684
904.274	18787
904.392	18665
904.51	18642
904.627	18658
904.745	18745
904.863	18593
904.981	18486
905.098	18308
905.216	18311
905.334	18365
905.451	18258
905.569	18262
905.686	18372
905.803	18323
905.921	18129
906.038	18247
906.155	18220
906.272	18102
906.389	18034
906.506	18007
906.623	17851
906.74	17821
906.857	17661
906.974	17707
907.091	17916
907.208	17942
907.324	17920
907.441	17775
907.557	17596
907.674	17604
907.79	17467
907.907	17535
908.023	17558
908.139	17615
908.256	17596
908.372	17490
908.488	17429
908.604	17383
908.72	17273
908.836	17239
908.952	17220
909.068	17364
909.184	17402
909.3	17284
909.415	17334
909.531	17280
909.647	17010
909.762	17025
909.878	16999
909.993	17048
910.108	16896
910.224	17037
910.339	16934
910.454	16744
910.57	16797
910.685	16691
910.8	16953
910.915	16942
911.03	16752
911.145	16546
911.259	16565
911.374	16569
911.489	16519
911.604	16341
911.718	16367
911.833	16314
911.947	16226
912.062	16131
912.176	16284
912.291	16375
912.405	16265
912.519	16470
912.633	16432
912.748	16310
912.862	16257
912.976	16158
913.09	15972
913.204	16055
913.318	16090
913.431	16200
913.545	16211
913.659	16234
913.772	16109
913.886	15922
914	15945
914.113	16036
914.226	15960
914.34	15949
914.453	15789
914.566	15842
914.68	15770
914.793	15766
914.906	15603
915.019	15507
915.132	15462
915.245	15492
915.358	15538
915.47	15507
915.583	15504
915.696	15462
915.809	15690
915.921	15564
916.034	15454
916.146	15492
916.259	15370
916.371	15378
916.483	15420
916.595	15336
916.708	15329
916.82	15317
916.932	15207
917.044	15252
917.156	15161
917.268	15203
917.38	15169
917.491	14986
917.603	15230
917.715	15214
917.826	15176
917.938	15058
918.049	14982
918.161	15058
918.272	15192
918.384	15230
918.495	15116
918.606	14933
918.717	14754
918.828	14929
918.939	14880
919.05	14861
919.161	14815
919.272	14796
919.383	14735
919.494	14902
919.604	15176
919.715	14891
919.826	14781
919.936	14815
920.047	14880
920.157	14861
920.267	14971
920.378	14785
920.488	14861
920.598	15001
920.708	15135
920.818	14967
920.928	15036
921.038	15138
921.148	15100
921.258	14781
921.368	14689
921.477	14594
921.587	14651
921.697	14503
921.806	14526
921.916	14366
922.025	14366
922.134	14229
922.244	14195
922.353	14358
922.462	14100
922.571	13913
922.68	13909
922.789	13742
922.898	13845
923.007	13769
923.116	13932
923.224	13788
923.333	13765
923.442	13784
923.55	13674
923.659	13746
923.767	13696
923.876	13693
923.984	13723
924.092	13628
924.201	13594
924.309	13609
924.417	13575
924.525	13460
924.633	13586
924.741	14385
924.849	13308
924.956	13438
925.064	13335
925.172	13202
925.279	13270
925.387	13225
925.494	13289
925.602	13308
925.709	13278
925.816	13095
925.924	13183
926.031	13289
926.138	13145
926.245	13232
926.352	13072
926.459	13183
926.566	13339
926.673	13118
926.779	13000
926.886	12993
926.993	12814
927.099	12867
927.206	12776
927.312	12821
927.419	12837
927.525	12833
927.631	12894
927.737	12703
927.843	12627
927.95	12536
928.056	12612
928.162	12608
928.267	12719
928.373	13244
928.479	12711
928.585	12418
928.69	12597
928.796	12631
928.901	12521
929.007	12346
929.112	12536
929.218	12490
929.323	12418
929.428	12388
929.533	12433
929.638	12266
929.743	12330
929.848	12296
929.953	12220
930.058	12213
930.163	12053
930.267	12053
930.372	12213
930.477	12060
930.581	12254
930.685	12155
930.79	11946
930.894	11935
930.998	11965
931.103	12003
931.207	11661
931.311	11623
931.415	11524
931.519	11288
931.623	11269
