Data from test_V78500241_2416.txt Node
Date: Fri Mar 25 15:58:32 CST 2022
User: usil
Spectrometer: V785-0024
Trigger mode: 0
Integration Time (sec): 4.000000E-1
Scans to average: 1
Nonlinearity correction enabled: false
Boxcar width: 0
Storing dark spectrum: false
XAxis mode: Wavelengths
Number of Pixels in Spectrum: 1024
>>>>>Begin Spectral Data<<<<<
801.071	28767
801.214	28687
801.356	28451
801.499	28497
801.641	28242
801.783	28196
801.926	28455
802.068	28272
802.211	28147
802.353	28147
802.496	27979
802.638	27907
802.78	28048
802.923	27941
803.065	27888
803.208	27945
803.35	28067
803.492	28120
803.635	28169
803.777	28082
803.919	28112
804.061	28485
804.204	28158
804.346	28048
804.488	28211
804.63	28238
804.773	28154
804.915	28272
805.057	28348
805.199	28139
805.341	28257
805.483	28341
805.626	28169
805.768	28394
805.91	28379
806.052	28481
806.194	28314
806.336	28523
806.478	28322
806.62	28428
806.762	28443
806.904	28641
807.046	28896
807.188	28801
807.33	28850
807.472	28767
807.614	28831
807.756	28790
807.898	28622
808.04	28607
808.182	28561
808.324	28725
808.465	28850
808.607	28991
808.749	28965
808.891	29132
809.033	29079
809.174	29185
809.316	29029
809.458	29102
809.6	28930
809.741	29174
809.883	29181
810.025	29353
810.166	29440
810.308	29246
810.45	29094
810.591	29181
810.733	29128
810.875	29014
811.016	28995
811.158	29056
811.299	29117
811.441	29246
811.582	29155
811.724	29037
811.865	28942
812.007	29006
812.148	29124
812.29	29216
812.431	29216
812.573	29398
812.714	29642
812.855	29535
812.997	29627
813.138	29824
813.279	29783
813.421	29573
813.562	29478
813.703	29372
813.845	29307
813.986	28949
814.127	28721
814.268	28839
814.41	28980
814.551	28649
814.692	28793
814.833	28675
814.974	28782
815.115	28786
815.256	28531
815.397	28687
815.539	28656
815.68	28592
815.821	28489
815.962	28538
816.103	28592
816.244	28413
816.385	28337
816.526	28352
816.666	28173
816.807	28177
816.948	28109
817.089	28223
817.23	28139
817.371	28013
817.512	28147
817.653	28173
817.793	27987
817.934	28002
818.075	28204
818.216	28143
818.356	28112
818.497	27991
818.638	27850
818.778	27911
818.919	27857
819.06	27930
819.2	28036
819.341	28120
819.481	27991
819.622	28154
819.762	28367
819.903	28436
820.043	28272
820.184	28348
820.324	28276
820.465	28257
820.605	28306
820.746	28226
820.886	28101
821.026	28158
821.167	28215
821.307	28207
821.447	28048
821.588	28070
821.728	27903
821.868	27724
822.008	27500
822.149	27561
822.289	27576
822.429	27382
822.569	27329
822.709	27298
822.849	26925
822.99	27051
823.13	27066
823.27	27039
823.41	26838
823.55	26826
823.69	26872
823.83	26906
823.97	26788
824.11	26777
824.25	26674
824.389	26754
824.529	26815
824.669	26743
824.809	26701
824.949	26758
825.089	26838
825.228	26746
825.368	26727
825.508	26613
825.648	26469
825.787	26663
825.927	26678
826.067	26465
826.206	26621
826.346	26705
826.485	26651
826.625	26560
826.765	26648
826.904	26708
827.044	26446
827.183	26320
827.323	26339
827.462	26393
827.601	26313
827.741	26332
827.88	26347
828.02	26180
828.159	26298
828.298	26343
828.437	26328
828.577	26294
828.716	26347
828.855	26267
828.994	25974
829.134	26039
829.273	26001
829.412	25917
829.551	26054
829.69	25925
829.829	25940
829.968	26050
830.107	25974
830.246	25932
830.385	25883
830.524	25898
830.663	25807
830.802	25742
830.941	25533
831.08	25582
831.219	25803
831.357	25689
831.496	25849
831.635	25597
831.774	25620
831.913	25495
832.051	25476
832.19	25449
832.329	25369
832.467	25327
832.606	25168
832.744	25278
832.883	25289
833.022	25202
833.16	25362
833.299	25232
833.437	25206
833.576	25377
833.714	25358
833.852	25464
833.991	25247
834.129	25491
834.267	25441
834.406	25228
834.544	25445
834.682	25285
834.821	25255
834.959	25624
835.097	25343
835.235	25350
835.373	25373
835.511	25194
835.65	25110
835.788	25133
835.926	25069
836.064	24935
836.202	25088
836.34	25107
836.478	25160
836.615	25027
836.753	25008
836.891	25316
837.029	25175
837.167	25114
837.305	25088
837.443	25076
837.58	24939
837.718	25099
837.856	25004
837.993	24791
838.131	24977
838.269	24913
838.406	24966
838.544	24867
838.681	24570
838.819	24589
838.956	24509
839.094	24559
839.231	24540
839.369	24608
839.506	24764
839.643	24734
839.781	24494
839.918	24437
840.055	24532
840.193	24426
840.33	24300
840.467	24505
840.604	24437
840.742	24669
840.879	24277
841.016	24239
841.153	24125
841.29	24437
841.427	24133
841.564	24308
841.701	24224
841.838	24346
841.975	24155
842.112	24289
842.249	24209
842.385	24201
842.522	24407
842.659	24213
842.796	24239
842.933	24155
843.069	24015
843.206	24076
843.343	24254
843.479	24129
843.616	24110
843.752	23961
843.889	23931
844.025	23961
844.162	23904
844.298	23999
844.435	23912
844.571	23828
844.708	23923
844.844	23977
844.98	24038
845.117	23984
845.253	23901
845.389	23684
845.525	23775
845.661	23623
845.798	23748
845.934	23707
846.07	23512
846.206	23535
846.342	23668
846.478	23627
846.614	23353
846.75	23265
846.886	23311
847.022	23474
847.158	23406
847.294	23391
847.429	23421
847.565	23303
847.701	23642
847.837	23105
847.972	23060
848.108	23246
848.244	23121
848.379	23044
848.515	22915
848.65	22885
848.786	23044
848.921	22946
849.057	22934
849.192	23083
849.328	23044
849.463	22885
849.598	22908
849.734	22740
849.869	22706
850.004	22500
850.14	22843
850.275	22778
850.41	22653
850.545	22637
850.68	22706
850.815	22683
850.95	22767
851.085	22801
851.22	22866
851.355	22797
851.49	22687
851.625	22725
851.76	22634
851.895	22580
852.03	22592
852.165	22660
852.299	22729
852.434	22858
852.569	22725
852.703	22641
852.838	22778
852.973	22812
853.107	22820
853.242	22637
853.376	22596
853.511	22375
853.645	22421
853.78	22607
853.914	22535
854.048	22440
854.183	22485
854.317	22485
854.451	22793
854.585	22527
854.72	22451
854.854	22512
854.988	22436
855.122	22447
855.256	22390
855.39	22485
855.524	22561
855.658	22546
855.792	22470
855.926	22580
856.06	22561
856.194	22626
856.327	22462
856.461	22379
856.595	22428
856.729	22417
856.862	22577
856.996	22577
857.13	22531
857.263	22622
857.397	22611
857.53	22481
857.664	22634
857.797	22557
857.931	22694
858.064	22679
858.197	22660
858.331	22527
858.464	22470
858.597	22287
858.731	22565
858.864	22516
858.997	22516
859.13	22413
859.263	22409
859.396	22565
859.529	22607
859.662	22432
859.795	22504
859.928	22413
860.061	22542
860.194	22546
860.327	22546
860.46	22550
860.592	22679
860.725	22653
860.858	22687
860.99	22512
861.123	22451
861.256	22459
861.388	22542
861.521	23105
861.653	22478
861.786	22299
861.918	22352
862.05	22436
862.183	22527
862.315	22459
862.447	22478
862.58	22424
862.712	22188
862.844	22150
862.976	22261
863.108	22215
863.24	22523
863.372	22223
863.504	22177
863.636	22242
863.768	22219
863.9	22226
864.032	22188
864.164	22173
864.296	22284
864.428	22295
864.559	22234
864.691	22287
864.823	22234
864.954	22238
865.086	22249
865.217	22109
865.349	22048
865.48	22017
865.612	22154
865.743	22333
865.875	22078
866.006	22078
866.137	22181
866.269	22101
866.4	22093
866.531	21930
866.662	22082
866.793	22025
866.924	22029
867.055	22059
867.186	22036
867.317	22051
867.448	21895
867.579	21991
867.71	21895
867.841	22025
867.972	21979
868.103	21968
868.233	21930
868.364	21835
868.495	22112
868.625	22238
868.756	22352
868.886	22238
869.017	22207
869.147	22253
869.278	22348
869.408	22284
869.539	22173
869.669	22318
869.799	22284
869.929	22348
870.06	22382
870.19	22531
870.32	22637
870.45	22573
870.58	22565
870.71	22858
870.84	22717
870.97	22710
871.1	22649
871.23	22877
871.36	22801
871.489	22828
871.619	22854
871.749	22740
871.879	22850
872.008	22927
872.138	22858
872.267	22816
872.397	22835
872.526	22687
872.656	22752
872.785	22668
872.915	22843
873.044	22904
873.173	22866
873.303	22953
873.432	22961
873.561	23044
873.69	22999
873.819	23079
873.948	22953
874.077	23029
874.206	22816
874.335	22824
874.464	22991
874.593	23216
874.722	23067
874.851	23052
874.979	23124
875.108	23128
875.237	23041
875.365	23003
875.494	23083
875.623	23159
875.751	23075
875.88	23079
876.008	23307
876.136	23383
876.265	23444
876.393	23646
876.521	23505
876.65	23493
876.778	23436
876.906	23421
877.034	23425
877.162	23395
877.29	23455
877.418	23562
877.546	23379
877.674	23452
877.802	23376
877.93	23573
878.058	23273
878.185	23349
878.313	23372
878.441	23421
878.568	23166
878.696	23398
878.824	23429
878.951	23539
879.079	23539
879.206	23726
879.333	23573
879.461	23414
879.588	23539
879.715	23592
879.842	23756
879.97	23486
880.097	23311
880.224	23299
880.351	23376
880.478	23284
880.605	23231
880.732	23242
880.859	23539
880.986	23193
881.112	23303
881.239	23041
881.366	23006
881.493	23025
881.619	22858
881.746	22927
881.872	22748
881.999	22847
882.125	22660
882.252	22942
882.378	22790
882.505	22786
882.631	22668
882.757	22546
882.883	22596
883.01	22565
883.136	22424
883.262	22314
883.388	22299
883.514	22512
883.64	22512
883.766	22265
883.892	22303
884.018	22375
884.143	22519
884.269	22565
884.395	22253
884.52	22192
884.646	22112
884.772	22021
884.897	21994
885.023	22055
885.148	22166
885.274	22204
885.399	22249
885.524	22181
885.65	22143
885.775	22105
885.9	22109
886.025	22162
886.15	22234
886.275	22029
886.4	21994
886.525	22124
886.65	22162
886.775	22021
886.9	22196
887.025	22295
887.149	22074
887.274	21903
887.399	21930
887.523	21968
887.648	21842
887.773	21800
887.897	21979
888.021	21926
888.146	21873
888.27	22029
888.395	21972
888.519	21930
888.643	21816
888.767	21968
888.891	21831
889.015	21644
889.139	21781
889.263	21622
889.387	21770
889.511	21850
889.635	21667
889.759	21618
889.883	21591
890.006	21736
890.13	21781
890.254	21526
890.377	21614
890.501	21405
890.624	21367
890.748	21443
890.871	21302
890.995	21230
891.118	21211
891.241	21116
891.364	21302
891.488	21291
891.611	21241
891.734	21291
891.857	21268
891.98	21161
892.103	21237
892.226	21135
892.349	21043
892.471	21047
892.594	21138
892.717	21100
892.839	21184
892.962	21127
893.085	21161
893.207	21108
893.33	20979
893.452	21036
893.575	21047
893.697	21096
893.819	21226
893.941	21199
894.064	21329
894.186	21024
894.308	21104
894.43	21135
894.552	21279
894.674	21157
894.796	20979
894.918	21017
895.04	21047
895.161	21226
895.283	21131
895.405	20990
895.526	21077
895.648	21116
895.769	21089
895.891	21081
896.012	21112
896.134	21154
896.255	21211
896.376	21055
896.498	21009
896.619	21104
896.74	21020
896.861	21184
896.982	21370
897.103	21542
897.224	21310
897.345	21313
897.466	21176
897.587	21321
897.708	21507
897.828	21321
897.949	21310
898.07	21112
898.19	21211
898.311	21401
898.431	21272
898.552	21222
898.672	21294
898.792	21370
898.913	21279
899.033	21127
899.153	21150
899.273	21020
899.393	21070
899.513	21043
899.633	20899
899.753	21013
899.873	20872
899.993	21017
900.113	21005
900.232	20933
900.352	20857
900.472	20902
900.591	20861
900.711	20857
900.83	20750
900.95	20777
901.069	20796
901.189	20678
901.308	20389
901.427	20320
901.546	20450
901.665	20404
901.784	20393
901.904	20252
902.023	20054
902.141	19879
902.26	19826
902.379	19955
902.498	19822
902.617	19849
902.735	19986
902.854	19811
902.973	19795
903.091	19487
903.21	19483
903.328	19605
903.446	19434
903.565	19278
903.683	19259
903.801	19320
903.919	19289
904.038	19198
904.156	19065
904.274	19129
904.392	19190
904.51	19076
904.627	19000
904.745	19091
904.863	19129
904.981	18859
905.098	18798
905.216	18753
905.334	18806
905.451	18661
905.569	18719
905.686	18719
905.803	18646
905.921	18494
906.038	18566
906.155	18681
906.272	18410
906.389	18441
906.506	18296
906.623	18235
906.74	18239
906.857	18076
906.974	18148
907.091	18239
907.208	18391
907.324	18277
907.441	18083
907.557	18049
907.674	17980
907.79	17977
907.907	17946
908.023	17984
908.139	17999
908.256	18003
908.372	17923
908.488	17843
908.604	17737
908.72	17623
908.836	17710
908.952	17729
909.068	17676
909.184	17722
909.3	17592
909.415	17756
909.531	17604
909.647	17532
909.762	17349
909.878	17303
909.993	17436
910.108	17326
910.224	17326
910.339	17414
910.454	17204
910.57	17223
910.685	17124
910.8	17353
910.915	17235
911.03	17140
911.145	17029
911.259	16892
911.374	16862
911.489	16923
911.604	16767
911.718	16668
911.833	16759
911.947	16615
912.062	16588
912.176	16774
912.291	16672
912.405	16706
912.519	16847
912.633	16881
912.748	16744
912.862	16577
912.976	16527
913.09	16462
913.204	16451
913.318	16455
913.431	16573
913.545	16527
913.659	16588
913.772	16417
913.886	16303
914	16272
914.113	16443
914.226	16440
914.34	16386
914.453	16200
914.566	16356
914.68	16173
914.793	16093
914.906	16013
915.019	15918
915.132	15895
915.245	15785
915.358	15907
915.47	15835
915.583	15781
915.696	15876
915.809	15964
915.921	16067
916.034	15892
916.146	15884
916.259	15736
916.371	15861
916.483	15781
916.595	15751
916.708	15770
916.82	15785
916.932	15663
917.044	15641
917.156	15599
917.268	15587
917.38	15534
917.491	15386
917.603	15466
917.715	15648
917.826	15504
917.938	15458
918.049	15317
918.161	15428
918.272	15576
918.384	15595
918.495	15450
918.606	15336
918.717	15195
918.828	15077
918.939	15214
919.05	15131
919.161	15237
919.272	15005
919.383	15009
919.494	15230
919.604	15359
919.715	15176
919.826	15195
919.936	15157
920.047	15260
920.157	15176
920.267	15378
920.378	15195
920.488	15123
920.598	15355
920.708	15450
920.818	15230
920.928	15374
921.038	15492
921.148	15481
921.258	15150
921.368	15062
921.477	14952
921.587	14986
921.697	14792
921.806	14887
921.916	14777
922.025	14617
922.134	14522
922.244	14461
922.353	14583
922.462	14556
922.571	14332
922.68	14153
922.789	14183
922.898	14096
923.007	14088
923.116	14176
923.224	14187
923.333	14130
923.442	14172
923.55	13944
923.659	13932
923.767	14027
923.876	13944
923.984	14005
924.092	13883
924.201	13967
924.309	13936
924.417	13849
924.525	13833
924.633	13879
924.741	14541
924.849	13662
924.956	13689
925.064	13590
925.172	13445
925.279	13533
925.387	13548
925.494	13529
925.602	13658
925.709	13594
925.816	13343
925.924	13476
926.031	13643
926.138	13468
926.245	13533
926.352	13396
926.459	13609
926.566	13609
926.673	13422
926.779	13362
926.886	13301
926.993	13179
927.099	13015
927.206	12981
927.312	13061
927.419	13141
927.525	13179
927.631	13202
927.737	12958
927.843	13027
927.95	12859
928.056	12935
928.162	12897
928.267	12939
928.373	13632
928.479	13008
928.585	12734
928.69	12795
928.796	12913
928.901	12817
929.007	12662
929.112	12665
929.218	12738
929.323	12662
929.428	12665
929.533	12734
929.638	12593
929.743	12528
929.848	12642
929.953	12578
930.058	12330
930.163	12330
930.267	12330
930.372	12384
930.477	12308
930.581	12551
930.685	12342
930.79	12110
930.894	12235
930.998	12129
931.103	12330
931.207	11912
931.311	11821
931.415	11760
931.519	11547
931.623	11532
