Data from test_V78500241_144.txt Node
Date: Fri Mar 25 15:42:47 CST 2022
User: usil
Spectrometer: V785-0024
Trigger mode: 0
Integration Time (sec): 4.000000E-1
Scans to average: 1
Nonlinearity correction enabled: false
Boxcar width: 0
Storing dark spectrum: false
XAxis mode: Wavelengths
Number of Pixels in Spectrum: 1024
>>>>>Begin Spectral Data<<<<<
801.071	29817
801.214	29828
801.356	29459
801.499	29661
801.641	29509
801.783	29429
801.926	29391
802.068	29372
802.211	29315
802.353	29216
802.496	28965
802.638	29067
802.78	29052
802.923	28927
803.065	29025
803.208	29014
803.35	29048
803.492	29044
803.635	29269
803.777	29056
803.919	29178
804.061	29452
804.204	29231
804.346	29064
804.488	29064
804.63	29140
804.773	28968
804.915	29178
805.057	29261
805.199	29204
805.341	29124
805.483	29223
805.626	29147
805.768	28995
805.91	29227
806.052	29212
806.194	29208
806.336	29493
806.478	29273
806.62	29242
806.762	29322
806.904	29493
807.046	29608
807.188	29707
807.33	29547
807.472	29551
807.614	29558
807.756	29452
807.898	29311
808.04	29326
808.182	29356
808.324	29345
808.465	29474
808.607	29630
808.749	29581
808.891	29862
809.033	29961
809.174	29821
809.316	29790
809.458	29840
809.6	29805
809.741	29783
809.883	29817
810.025	29958
810.166	29927
810.308	30076
810.45	29843
810.591	29862
810.733	29862
810.875	29748
811.016	29680
811.158	29623
811.299	29897
811.441	29908
811.582	29942
811.724	29638
811.865	29661
812.007	29634
812.148	29596
812.29	29752
812.431	29741
812.573	29882
812.714	29977
812.855	30243
812.997	30186
813.138	30273
813.279	30228
813.421	30277
813.562	30072
813.703	29862
813.845	29916
813.986	29604
814.127	29273
814.268	29345
814.41	29353
814.551	29349
814.692	29280
814.833	29318
814.974	29341
815.115	29353
815.256	29147
815.397	29109
815.539	29094
815.68	29022
815.821	28908
815.962	29086
816.103	29029
816.244	28946
816.385	28866
816.526	28729
816.666	28599
816.807	28466
816.948	28615
817.089	28489
817.23	28462
817.371	28386
817.512	28440
817.653	28367
817.793	28455
817.934	28554
818.075	28485
818.216	28531
818.356	28421
818.497	28443
818.638	28120
818.778	28226
818.919	28158
819.06	28181
819.2	28211
819.341	28299
819.481	28367
819.622	28580
819.762	28653
819.903	28535
820.043	28641
820.184	28401
820.324	28318
820.465	28596
820.605	28561
820.746	28436
820.886	28337
821.026	28394
821.167	28390
821.307	28512
821.447	28337
821.588	28128
821.728	28067
821.868	27884
822.008	27800
822.149	27663
822.289	27800
822.429	27618
822.569	27553
822.709	27393
822.849	27249
822.99	27230
823.13	27176
823.27	27207
823.41	26986
823.55	26971
823.69	26921
823.83	26948
823.97	26921
824.11	26727
824.25	26842
824.389	26724
824.529	26891
824.669	26815
824.809	26948
824.949	26975
825.089	26834
825.228	26769
825.368	26480
825.508	26670
825.648	26663
825.787	26712
825.927	26564
826.067	26636
826.206	26625
826.346	26689
826.485	26724
826.625	26629
826.765	26754
826.904	26533
827.044	26317
827.183	26408
827.323	26244
827.462	26256
827.601	26393
827.741	26248
827.88	26237
828.02	26180
828.159	26088
828.298	26290
828.437	26377
828.577	26103
828.716	26298
828.855	26092
828.994	25966
829.134	26027
829.273	26054
829.412	25833
829.551	26012
829.69	25837
829.829	25951
829.968	26100
830.107	26069
830.246	25974
830.385	25799
830.524	25818
830.663	25590
830.802	25609
830.941	25624
831.08	25263
831.219	25552
831.357	25369
831.496	25723
831.635	25476
831.774	25384
831.913	25285
832.051	25232
832.19	25270
832.329	25179
832.467	25133
832.606	25099
832.744	25091
832.883	25061
833.022	25148
833.16	25050
833.299	25213
833.437	24977
833.576	25133
833.714	25133
833.852	25110
833.991	25160
834.129	25236
834.267	25133
834.406	25088
834.544	25217
834.682	25038
834.821	25008
834.959	25259
835.097	24996
835.235	25122
835.373	25103
835.511	24977
835.65	24875
835.788	25046
835.926	24764
836.064	24635
836.202	24711
836.34	24875
836.478	24848
836.615	24939
836.753	24848
836.891	24958
837.029	24924
837.167	24802
837.305	24867
837.443	24837
837.58	24601
837.718	24681
837.856	24722
837.993	24654
838.131	24650
838.269	24627
838.406	24578
838.544	24308
838.681	24330
838.819	24243
838.956	24083
839.094	24018
839.231	24121
839.369	24308
839.506	24642
839.643	24323
839.781	24049
839.918	24045
840.055	24026
840.193	23996
840.33	23946
840.467	24083
840.604	24026
840.742	24209
840.879	23904
841.016	23969
841.153	23939
841.29	24106
841.427	23984
841.564	24114
841.701	23931
841.838	23752
841.975	23775
842.112	23733
842.249	23737
842.385	23775
842.522	23942
842.659	23756
842.796	23661
842.933	23745
843.069	23531
843.206	23543
843.343	23718
843.479	23661
843.616	23570
843.752	23429
843.889	23581
844.025	23585
844.162	23376
844.298	23642
844.435	23326
844.571	23277
844.708	23463
844.844	23509
844.98	23551
845.117	23520
845.253	23345
845.389	23303
845.525	23296
845.661	23341
845.798	23143
845.934	23102
846.07	23067
846.206	23029
846.342	23265
846.478	22984
846.614	22854
846.75	22801
846.886	22774
847.022	22892
847.158	22805
847.294	22824
847.429	22790
847.565	22843
847.701	23018
847.837	22493
847.972	22497
848.108	22569
848.244	22565
848.379	22516
848.515	22398
848.65	22303
848.786	22360
848.921	22447
849.057	22474
849.192	22421
849.328	22580
849.463	22276
849.598	22257
849.734	22226
849.869	22181
850.004	22040
850.14	22070
850.275	22150
850.41	22048
850.545	21964
850.68	22082
850.815	22006
850.95	21960
851.085	22306
851.22	22169
851.355	22002
851.49	22112
851.625	22006
851.76	22040
851.895	21983
852.03	22021
852.165	22128
852.299	22090
852.434	22192
852.569	22059
852.703	21960
852.838	22074
852.973	22105
853.107	22162
853.242	21930
853.376	21797
853.511	21808
853.645	21873
853.78	21945
853.914	21876
854.048	21865
854.183	21751
854.317	22040
854.451	21937
854.585	21774
854.72	21785
854.854	21827
854.988	21800
855.122	21800
855.256	21842
855.39	21869
855.524	21850
855.658	21869
855.792	21861
855.926	21838
856.06	21972
856.194	21949
856.327	21915
856.461	21800
856.595	21812
856.729	21789
856.862	21907
856.996	21953
857.13	21911
857.263	21922
857.397	21895
857.53	21724
857.664	21922
857.797	21846
857.931	21857
858.064	21835
858.197	21930
858.331	21789
858.464	21728
858.597	21652
858.731	21759
858.864	21728
858.997	21857
859.13	21800
859.263	21785
859.396	21869
859.529	21690
859.662	21682
859.795	21720
859.928	21819
860.061	21945
860.194	22010
860.327	21698
860.46	21747
860.592	21819
860.725	21892
860.858	21720
860.99	21755
861.123	21644
861.256	21652
861.388	21888
861.521	22234
861.653	21618
861.786	21603
861.918	21652
862.05	21709
862.183	21873
862.315	21838
862.447	21808
862.58	21637
862.712	21511
862.844	21511
862.976	21530
863.108	21507
863.24	21785
863.372	21370
863.504	21386
863.636	21511
863.768	21469
863.9	21275
864.032	21378
864.164	21378
864.296	21435
864.428	21542
864.559	21622
864.691	21526
864.823	21298
864.954	21367
865.086	21439
865.217	21370
865.349	21226
865.48	21336
865.612	21363
865.743	21439
865.875	21336
866.006	21351
866.137	21317
866.269	21397
866.4	21355
866.531	21336
866.662	21260
866.793	21306
866.924	21241
867.055	21226
867.186	21351
867.317	21237
867.448	21127
867.579	21195
867.71	21214
867.841	21199
867.972	21256
868.103	21138
868.233	21207
868.364	21165
868.495	21287
868.625	21340
868.756	21492
868.886	21367
869.017	21526
869.147	21587
869.278	21644
869.408	21591
869.539	21515
869.669	21603
869.799	21431
869.929	21458
870.06	21473
870.19	21663
870.32	21838
870.45	21728
870.58	21865
870.71	21865
870.84	22002
870.97	21956
871.1	21789
871.23	22078
871.36	22029
871.489	21956
871.619	22013
871.749	21998
871.879	22261
872.008	22196
872.138	22162
872.267	22010
872.397	22010
872.526	21979
872.656	21949
872.785	21960
872.915	22063
873.044	22261
873.173	22101
873.303	22147
873.432	22188
873.561	22306
873.69	22040
873.819	22017
873.948	22215
874.077	22143
874.206	21998
874.335	22059
874.464	22291
874.593	22341
874.722	22268
874.851	22409
874.979	22306
875.108	22371
875.237	22394
875.365	22188
875.494	22356
875.623	22481
875.751	22287
875.88	22322
876.008	22561
876.136	22394
876.265	22786
876.393	22919
876.521	22919
876.65	22786
876.778	22717
876.906	22767
877.034	22672
877.162	22729
877.29	22626
877.418	22698
877.546	22679
877.674	22744
877.802	22774
877.93	22679
878.058	22672
878.185	22637
878.313	22523
878.441	22740
878.568	22500
878.696	22641
878.824	22858
878.951	22729
879.079	22892
879.206	22999
879.333	22771
879.461	22744
879.588	22729
879.715	22877
879.842	22976
879.97	22759
880.097	22455
880.224	22508
880.351	22615
880.478	22535
880.605	22485
880.732	22489
880.859	22831
880.986	22569
881.112	22550
881.239	22348
881.366	22238
881.493	22238
881.619	22120
881.746	22067
881.872	21915
881.999	21983
882.125	22135
882.252	21991
882.378	22162
882.505	22158
882.631	21998
882.757	21816
882.883	21766
883.01	21709
883.136	21766
883.262	21660
883.388	21690
883.514	21732
883.64	21800
883.766	21656
883.892	21507
884.018	21625
884.143	21667
884.269	21884
884.395	21576
884.52	21420
884.646	21401
884.772	21401
884.897	21348
885.023	21534
885.148	21355
885.274	21583
885.399	21583
885.524	21477
885.65	21443
885.775	21355
885.9	21382
886.025	21431
886.15	21564
886.275	21230
886.4	21306
886.525	21401
886.65	21268
886.775	21389
886.9	21526
887.025	21580
887.149	21325
887.274	21222
887.399	21058
887.523	21188
887.648	21062
887.773	21005
887.897	21154
888.021	21268
888.146	21024
888.27	21218
888.395	21066
888.519	21192
888.643	21188
888.767	21211
888.891	21146
889.015	21043
889.139	20982
889.263	20872
889.387	21096
889.511	21165
889.635	21100
889.759	20971
889.883	20925
890.006	21013
890.13	21093
890.254	20800
890.377	20796
890.501	20689
890.624	20632
890.748	20708
890.871	20530
890.995	20446
891.118	20404
891.241	20545
891.364	20469
891.488	20594
891.611	20518
891.734	20434
891.857	20461
891.98	20434
892.103	20594
892.226	20431
892.349	20511
892.471	20408
892.594	20499
892.717	20423
892.839	20309
892.962	20347
893.085	20446
893.207	20366
893.33	20218
893.452	20317
893.575	20427
893.697	20408
893.819	20454
893.941	20545
894.064	20545
894.186	20423
894.308	20339
894.43	20450
894.552	20522
894.674	20427
894.796	20202
894.918	20381
895.04	20404
895.161	20511
895.283	20396
895.405	20419
895.526	20339
895.648	20461
895.769	20415
895.891	20438
896.012	20374
896.134	20530
896.255	20457
896.376	20461
896.498	20267
896.619	20522
896.74	20522
896.861	20484
896.982	20682
897.103	20963
897.224	20697
897.345	20712
897.466	20594
897.587	20651
897.708	20712
897.828	20629
897.949	20556
898.07	20465
898.19	20465
898.311	20705
898.431	20465
898.552	20606
898.672	20724
898.792	20659
898.913	20697
899.033	20396
899.153	20438
899.273	20210
899.393	20332
899.513	20377
899.633	20263
899.753	20199
899.873	20267
899.993	20328
900.113	20176
900.232	20317
900.352	20229
900.472	20195
900.591	20027
900.711	20046
900.83	20031
900.95	20180
901.069	20202
901.189	20035
901.308	19803
901.427	19704
901.546	19727
901.665	19693
901.784	19620
901.904	19548
902.023	19460
902.141	19228
902.26	19206
902.379	19225
902.498	19228
902.617	19160
902.735	19129
902.854	19137
902.973	19072
903.091	18848
903.21	18817
903.328	18783
903.446	18730
903.565	18642
903.683	18627
903.801	18521
903.919	18665
904.038	18646
904.156	18407
904.274	18532
904.392	18410
904.51	18486
904.627	18414
904.745	18426
904.863	18395
904.981	18098
905.098	17935
905.216	17939
905.334	18064
905.451	18140
905.569	17950
905.686	18068
905.803	18095
905.921	17855
906.038	17920
906.155	17836
906.272	17710
906.389	17695
906.506	17501
906.623	17642
906.74	17604
906.857	17444
906.974	17493
907.091	17562
907.208	17623
907.324	17554
907.441	17444
907.557	17239
907.674	17261
907.79	17086
907.907	17200
908.023	17155
908.139	17231
908.256	17124
908.372	17071
908.488	17102
908.604	16889
908.72	16885
908.836	16923
908.952	16873
909.068	16889
909.184	17067
909.3	16881
909.415	16961
909.531	16847
909.647	16706
909.762	16546
909.878	16626
909.993	16489
910.108	16516
910.224	16447
910.339	16599
910.454	16512
910.57	16375
910.685	16348
910.8	16630
910.915	16519
911.03	16379
911.145	16253
911.259	16143
911.374	16181
911.489	16257
911.604	16059
911.718	15892
911.833	15983
911.947	15797
912.062	15838
912.176	16040
912.291	15915
912.405	15876
912.519	16139
912.633	16120
912.748	15888
912.862	15876
912.976	15793
913.09	15561
913.204	15660
913.318	15667
913.431	15709
913.545	15827
913.659	15804
913.772	15629
913.886	15542
914	15557
914.113	15568
914.226	15641
914.34	15610
914.453	15424
914.566	15564
914.68	15401
914.793	15393
914.906	15214
915.019	15184
915.132	14933
915.245	15081
915.358	15165
915.47	15119
915.583	15142
915.696	15169
915.809	15199
915.921	15264
916.034	15154
916.146	15001
916.259	14937
916.371	15123
916.483	15062
916.595	14849
916.708	14948
916.82	14887
916.932	14872
917.044	14883
917.156	14872
917.268	14762
917.38	14697
917.491	14834
917.603	14807
917.715	14815
917.826	14910
917.938	14674
918.049	14629
918.161	14648
918.272	14880
918.384	14785
918.495	14606
918.606	14587
918.717	14556
918.828	14480
918.939	14552
919.05	14473
919.161	14492
919.272	14294
919.383	14332
919.494	14564
919.604	14686
919.715	14385
919.826	14305
919.936	14431
920.047	14461
920.157	14454
920.267	14514
920.378	14457
920.488	14366
920.598	14625
920.708	14701
920.818	14404
920.928	14552
921.038	14705
921.148	14659
921.258	14343
921.368	14244
921.477	14237
921.587	14218
921.697	14043
921.806	14123
921.916	14069
922.025	13830
922.134	13841
922.244	13753
922.353	13814
922.462	13753
922.571	13643
922.68	13449
922.789	13419
922.898	13460
923.007	13369
923.116	13400
923.224	13293
923.333	13343
923.442	13293
923.55	13270
923.659	13225
923.767	13312
923.876	13171
923.984	13274
924.092	13110
924.201	13247
924.309	13209
924.417	13263
924.525	13122
924.633	13080
924.741	13879
924.849	12882
924.956	13057
925.064	12863
925.172	12844
925.279	12757
925.387	12886
925.494	12920
925.602	12973
925.709	12909
925.816	12722
925.924	12821
926.031	12882
926.138	12848
926.245	12924
926.352	12673
926.459	12821
926.566	12867
926.673	12772
926.779	12589
926.886	12623
926.993	12513
927.099	12445
927.206	12418
927.312	12407
927.419	12498
927.525	12445
927.631	12452
927.737	12334
927.843	12300
927.95	12117
928.056	12334
928.162	12353
928.267	12239
928.373	12935
928.479	12346
928.585	12121
928.69	12201
928.796	12254
928.901	12216
929.007	11923
929.112	12167
929.218	12049
929.323	11992
929.428	11923
929.533	12216
929.638	12007
929.743	11999
929.848	11954
929.953	11980
930.058	11847
930.163	11722
930.267	11726
930.372	11874
930.477	11619
930.581	11916
930.685	11611
930.79	11520
930.894	11562
930.998	11528
931.103	11714
931.207	11341
931.311	11204
931.415	11071
931.519	11022
931.623	10942
