Data from test_V78500241_109.txt Node
Date: Fri Mar 25 15:42:33 CST 2022
User: usil
Spectrometer: V785-0024
Trigger mode: 0
Integration Time (sec): 4.000000E-1
Scans to average: 1
Nonlinearity correction enabled: false
Boxcar width: 0
Storing dark spectrum: false
XAxis mode: Wavelengths
Number of Pixels in Spectrum: 1024
>>>>>Begin Spectral Data<<<<<
801.071	29573
801.214	29608
801.356	29482
801.499	29353
801.641	29121
801.783	29212
801.926	29273
802.068	29044
802.211	29143
802.353	28942
802.496	28908
802.638	28675
802.78	28797
802.923	28668
803.065	28729
803.208	28687
803.35	28748
803.492	28900
803.635	28984
803.777	28965
803.919	28866
804.061	29246
804.204	28888
804.346	28820
804.488	28854
804.63	28885
804.773	28885
804.915	28805
805.057	28972
805.199	28854
805.341	28911
805.483	28957
805.626	28942
805.768	28778
805.91	28847
806.052	29121
806.194	28904
806.336	29185
806.478	28953
806.62	28919
806.762	29006
806.904	29151
807.046	29474
807.188	29391
807.33	29383
807.472	29497
807.614	29421
807.756	29349
807.898	29185
808.04	29166
808.182	29261
808.324	29090
808.465	29151
808.607	29311
808.749	29417
808.891	29596
809.033	29691
809.174	29501
809.316	29474
809.458	29558
809.6	29463
809.741	29467
809.883	29543
810.025	29741
810.166	29722
810.308	29745
810.45	29866
810.591	29634
810.733	29531
810.875	29566
811.016	29398
811.158	29299
811.299	29596
811.441	29737
811.582	29642
811.724	29337
811.865	29452
812.007	29539
812.148	29501
812.29	29375
812.431	29604
812.573	29691
812.714	29901
812.855	29958
812.997	29882
813.138	30266
813.279	29992
813.421	30007
813.562	30072
813.703	29726
813.845	29596
813.986	29265
814.127	29212
814.268	29098
814.41	29250
814.551	29170
814.692	29189
814.833	28938
814.974	29067
815.115	29060
815.256	28927
815.397	28866
815.539	28847
815.68	28740
815.821	28824
815.962	28850
816.103	28786
816.244	28668
816.385	28504
816.526	28580
816.666	28291
816.807	28276
816.948	28284
817.089	28314
817.23	28200
817.371	28192
817.512	28242
817.653	28090
817.793	28097
817.934	28112
818.075	28082
818.216	28139
818.356	28090
818.497	28109
818.638	27907
818.778	27842
818.919	27819
819.06	27941
819.2	28029
819.341	28211
819.481	28051
819.622	28329
819.762	28341
819.903	28204
820.043	28226
820.184	28219
820.324	28204
820.465	28219
820.605	28120
820.746	28162
820.886	28017
821.026	28112
821.167	28010
821.307	28128
821.447	28055
821.588	28013
821.728	27747
821.868	27595
822.008	27427
822.149	27534
822.289	27515
822.429	27226
822.569	27131
822.709	27211
822.849	27081
822.99	26994
823.13	26906
823.27	26940
823.41	26895
823.55	26602
823.69	26838
823.83	26823
823.97	26674
824.11	26651
824.25	26473
824.389	26644
824.529	26617
824.669	26450
824.809	26746
824.949	26609
825.089	26670
825.228	26533
825.368	26355
825.508	26453
825.648	26332
825.787	26450
825.927	26469
826.067	26256
826.206	26427
826.346	26480
826.485	26412
826.625	26313
826.765	26511
826.904	26438
827.044	26111
827.183	26073
827.323	26096
827.462	26020
827.601	26058
827.741	26081
827.88	26214
828.02	25921
828.159	25963
828.298	25944
828.437	26115
828.577	26012
828.716	26050
828.855	25959
828.994	25601
829.134	25715
829.273	25753
829.412	25704
829.551	25521
829.69	25643
829.829	25582
829.968	25799
830.107	25693
830.246	25655
830.385	25609
830.524	25521
830.663	25552
830.802	25339
830.941	25137
831.08	25133
831.219	25403
831.357	25316
831.496	25479
831.635	25141
831.774	25057
831.913	25072
832.051	24943
832.19	24871
832.329	24916
832.467	24935
832.606	24924
832.744	24696
832.883	24837
833.022	24817
833.16	24920
833.299	24772
833.437	24772
833.576	24829
833.714	24943
833.852	24837
833.991	24882
834.129	24859
834.267	24886
834.406	24798
834.544	24825
834.682	24817
834.821	24985
834.959	24992
835.097	24661
835.235	24802
835.373	24924
835.511	24734
835.65	24764
835.788	24555
835.926	24521
836.064	24429
836.202	24357
836.34	24684
836.478	24719
836.615	24627
836.753	24631
836.891	24608
837.029	24635
837.167	24563
837.305	24532
837.443	24486
837.58	24346
837.718	24479
837.856	24486
837.993	24330
838.131	24460
838.269	24304
838.406	24315
838.544	24251
838.681	24041
838.819	24015
838.956	23935
839.094	23790
839.231	23916
839.369	24041
839.506	24110
839.643	24076
839.781	23771
839.918	23824
840.055	23707
840.193	23809
840.33	23707
840.467	23748
840.604	23802
840.742	24079
840.879	23661
841.016	23710
841.153	23573
841.29	23813
841.427	23642
841.564	23752
841.701	23760
841.838	23615
841.975	23482
842.112	23531
842.249	23520
842.385	23425
842.522	23604
842.659	23486
842.796	23440
842.933	23486
843.069	23239
843.206	23410
843.343	23471
843.479	23379
843.616	23372
843.752	23105
843.889	23204
844.025	23322
844.162	23060
844.298	23083
844.435	23067
844.571	23048
844.708	23147
844.844	23341
844.98	23212
845.117	23242
845.253	23033
845.389	23048
845.525	23067
845.661	22854
845.798	22820
845.934	22904
846.07	22778
846.206	22858
846.342	22942
846.478	22911
846.614	22691
846.75	22577
846.886	22523
847.022	22573
847.158	22557
847.294	22500
847.429	22565
847.565	22421
847.701	22839
847.837	22276
847.972	22192
848.108	22318
848.244	22337
848.379	22116
848.515	22078
848.65	22188
848.786	22070
848.921	22116
849.057	22158
849.192	22287
849.328	22143
849.463	21956
849.598	22036
849.734	21987
849.869	21949
850.004	21762
850.14	21865
850.275	21827
850.41	21793
850.545	21770
850.68	21709
850.815	21880
850.95	21793
851.085	21895
851.22	21987
851.355	21850
851.49	21720
851.625	21778
851.76	21823
851.895	21762
852.03	21705
852.165	21789
852.299	21926
852.434	22010
852.569	21880
852.703	21675
852.838	21915
852.973	21873
853.107	21846
853.242	21580
853.376	21618
853.511	21477
853.645	21477
853.78	21568
853.914	21675
854.048	21488
854.183	21572
854.317	21576
854.451	21743
854.585	21572
854.72	21534
854.854	21580
854.988	21618
855.122	21564
855.256	21367
855.39	21477
855.524	21534
855.658	21720
855.792	21538
855.926	21614
856.06	21538
856.194	21610
856.327	21625
856.461	21458
856.595	21458
856.729	21606
856.862	21591
856.996	21557
857.13	21614
857.263	21747
857.397	21610
857.53	21599
857.664	21545
857.797	21698
857.931	21671
858.064	21428
858.197	21504
858.331	21454
858.464	21473
858.597	21424
858.731	21549
858.864	21443
858.997	21485
859.13	21587
859.263	21507
859.396	21606
859.529	21443
859.662	21534
859.795	21515
859.928	21576
860.061	21599
860.194	21587
860.327	21545
860.46	21401
860.592	21435
860.725	21583
860.858	21599
860.99	21492
861.123	21511
861.256	21351
861.388	21401
861.521	22040
861.653	21485
861.786	21218
861.918	21344
862.05	21408
862.183	21587
862.315	21572
862.447	21656
862.58	21507
862.712	21329
862.844	21252
862.976	21283
863.108	21298
863.24	21622
863.372	21226
863.504	21146
863.636	21268
863.768	21203
863.9	21028
864.032	21150
864.164	21085
864.296	21245
864.428	21268
864.559	21279
864.691	21268
864.823	21252
864.954	21116
865.086	21264
865.217	21093
865.349	21066
865.48	21066
865.612	21123
865.743	21135
865.875	21104
866.006	20952
866.137	21173
866.269	21104
866.4	21104
866.531	21116
866.662	20960
866.793	20929
866.924	20906
867.055	21066
867.186	21070
867.317	20967
867.448	20956
867.579	20933
867.71	20880
867.841	20819
867.972	20990
868.103	21051
868.233	20960
868.364	21043
868.495	21131
868.625	21264
868.756	21382
868.886	21096
869.017	21108
869.147	21340
869.278	21279
869.408	21294
869.539	21051
869.669	21260
869.799	21348
869.929	21252
870.06	21256
870.19	21576
870.32	21545
870.45	21504
870.58	21526
870.71	21686
870.84	21705
870.97	21587
871.1	21572
871.23	21842
871.36	21808
871.489	21797
871.619	21800
871.749	21842
871.879	21831
872.008	21949
872.138	21873
872.267	21808
872.397	21717
872.526	21705
872.656	21564
872.785	21667
872.915	21846
873.044	21968
873.173	21747
873.303	21880
873.432	21861
873.561	21941
873.69	21865
873.819	21816
873.948	21991
874.077	21800
874.206	21762
874.335	21880
874.464	21983
874.593	22074
874.722	21960
874.851	22128
874.979	22139
875.108	22135
875.237	22055
875.365	22017
875.494	22032
875.623	22131
875.751	22025
875.88	22055
876.008	22162
876.136	22200
876.265	22481
876.393	22626
876.521	22538
876.65	22622
876.778	22493
876.906	22299
877.034	22394
877.162	22405
877.29	22310
877.418	22341
877.546	22519
877.674	22428
877.802	22390
877.93	22386
878.058	22375
878.185	22322
878.313	22386
878.441	22478
878.568	22223
878.696	22352
878.824	22409
878.951	22577
879.079	22580
879.206	22653
879.333	22637
879.461	22455
879.588	22622
879.715	22618
879.842	22573
879.97	22569
880.097	22280
880.224	22325
880.351	22265
880.478	22306
880.605	22116
880.732	22093
880.859	22447
880.986	22276
881.112	22188
881.239	22135
881.366	21979
881.493	21838
881.619	21774
881.746	21800
881.872	21816
881.999	21854
882.125	21743
882.252	21903
882.378	21854
882.505	21930
882.631	21663
882.757	21561
882.883	21701
883.01	21614
883.136	21568
883.262	21325
883.388	21435
883.514	21576
883.64	21781
883.766	21523
883.892	21332
884.018	21393
884.143	21450
884.269	21466
884.395	21287
884.52	21157
884.646	21302
884.772	21157
884.897	21112
885.023	21214
885.148	21291
885.274	21389
885.399	21302
885.524	21203
885.65	21165
885.775	21096
885.9	21203
886.025	21260
886.15	21180
886.275	21074
886.4	21211
886.525	21176
886.65	21119
886.775	21017
886.9	21233
887.025	21317
887.149	21184
887.274	20880
887.399	20933
887.523	20960
887.648	20804
887.773	20849
887.897	21009
888.021	21009
888.146	20880
888.27	20956
888.395	20975
888.519	21028
888.643	20982
888.767	20990
888.891	20811
889.015	20712
889.139	20754
889.263	20743
889.387	20765
889.511	20830
889.635	20830
889.759	20617
889.883	20602
890.006	20701
890.13	20739
890.254	20667
890.377	20587
890.501	20381
890.624	20431
890.748	20400
890.871	20263
890.995	20336
891.118	20233
891.241	20282
891.364	20191
891.488	20366
891.611	20275
891.734	20317
891.857	20256
891.98	20427
892.103	20332
892.226	20267
892.349	20278
892.471	20016
892.594	20134
892.717	20271
892.839	20138
892.962	20282
893.085	20180
893.207	20202
893.33	20081
893.452	19917
893.575	20256
893.697	20092
893.819	20332
893.941	20237
894.064	20317
894.186	20142
894.308	20077
894.43	20248
894.552	20275
894.674	20282
894.796	20134
894.918	20290
895.04	20115
895.161	20191
895.283	20301
895.405	20172
895.526	20172
895.648	20164
895.769	20191
895.891	20267
896.012	20263
896.134	20294
896.255	20172
896.376	20153
896.498	20130
896.619	20294
896.74	20248
896.861	20229
896.982	20537
897.103	20743
897.224	20419
897.345	20484
897.466	20313
897.587	20442
897.708	20632
897.828	20396
897.949	20286
898.07	20259
898.19	20324
898.311	20400
898.431	20366
898.552	20347
898.672	20469
898.792	20389
898.913	20450
899.033	20172
899.153	20172
899.273	20043
899.393	20119
899.513	20115
899.633	20164
899.753	20100
899.873	20005
899.993	20161
900.113	19974
900.232	20005
900.352	19947
900.472	19902
900.591	19890
900.711	19856
900.83	19849
900.95	20001
901.069	19925
901.189	19746
901.308	19506
901.427	19510
901.546	19548
901.665	19434
901.784	19407
901.904	19346
902.023	19339
902.141	19042
902.26	18920
902.379	19065
902.498	18905
902.617	18886
902.735	19042
902.854	18924
902.973	18886
903.091	18681
903.21	18559
903.328	18464
903.446	18509
903.565	18479
903.683	18418
903.801	18254
903.919	18338
904.038	18296
904.156	18228
904.274	18380
904.392	18106
904.51	18133
904.627	18220
904.745	18262
904.863	18197
904.981	17832
905.098	17885
905.216	17786
905.334	17885
905.451	17786
905.569	17855
905.686	17889
905.803	17783
905.921	17627
906.038	17691
906.155	17661
906.272	17505
906.389	17520
906.506	17349
906.623	17356
906.74	17436
906.857	17269
906.974	17189
907.091	17433
907.208	17486
907.324	17414
907.441	17239
907.557	17090
907.674	17075
907.79	16953
907.907	17029
908.023	17083
908.139	16984
908.256	17060
908.372	16911
908.488	16930
908.604	16733
908.72	16752
908.836	16763
908.952	16687
909.068	16835
909.184	16850
909.3	16706
909.415	16687
909.531	16717
909.647	16497
909.762	16360
909.878	16436
909.993	16341
910.108	16436
910.224	16341
910.339	16356
910.454	16280
910.57	16166
910.685	16086
910.8	16382
910.915	16390
911.03	16124
911.145	16109
911.259	16105
911.374	15949
911.489	15865
911.604	15960
911.718	15739
911.833	15816
911.947	15698
912.062	15526
912.176	15690
912.291	15770
912.405	15816
912.519	15907
912.633	15884
912.748	15816
912.862	15644
912.976	15511
913.09	15454
913.204	15504
913.318	15519
913.431	15606
913.545	15466
913.659	15572
913.772	15397
913.886	15382
914	15275
914.113	15310
914.226	15428
914.34	15340
914.453	15104
914.566	15393
914.68	15317
914.793	15275
914.906	15020
915.019	14876
915.132	14857
915.245	14925
915.358	14990
915.47	14975
915.583	14967
915.696	14925
915.809	15097
915.921	15058
916.034	14880
916.146	14857
916.259	14857
916.371	14914
916.483	14906
916.595	14693
916.708	14815
916.82	14864
916.932	14716
917.044	14750
917.156	14708
917.268	14625
917.38	14602
917.491	14526
917.603	14579
917.715	14678
917.826	14727
917.938	14480
918.049	14465
918.161	14552
918.272	14670
918.384	14621
918.495	14488
918.606	14324
918.717	14275
918.828	14434
918.939	14370
919.05	14157
919.161	14256
919.272	14096
919.383	14183
919.494	14309
919.604	14495
919.715	14301
919.826	14206
919.936	14176
920.047	14317
920.157	14396
920.267	14484
920.378	14229
920.488	14195
920.598	14412
920.708	14495
920.818	14343
920.928	14393
921.038	14530
921.148	14575
921.258	14275
921.368	14172
921.477	14130
921.587	14046
921.697	13913
921.806	13951
921.916	13799
922.025	13734
922.134	13655
922.244	13628
922.353	13700
922.462	13571
922.571	13449
922.68	13346
922.789	13285
922.898	13270
923.007	13240
923.116	13304
923.224	13202
923.333	13213
923.442	13107
923.55	12989
923.659	13126
923.767	13236
923.876	13076
923.984	13122
924.092	12943
924.201	12973
924.309	13027
924.417	13065
924.525	12939
924.633	13012
924.741	13651
924.849	12700
924.956	12837
925.064	12783
925.172	12627
925.279	12734
925.387	12757
925.494	12795
925.602	12890
925.709	12817
925.816	12654
925.924	12654
926.031	12757
926.138	12779
926.245	12696
926.352	12597
926.459	12711
926.566	12703
926.673	12536
926.779	12407
926.886	12441
926.993	12300
927.099	12254
927.206	12266
927.312	12220
927.419	12308
927.525	12251
927.631	12319
927.737	12201
927.843	12129
927.95	11980
928.056	12003
928.162	12072
928.267	12030
928.373	12802
928.479	12155
928.585	11916
928.69	12053
928.796	12106
928.901	11942
929.007	11809
929.112	11961
929.218	11904
929.323	11813
929.428	11802
929.533	11893
929.638	11737
929.743	11726
929.848	11802
929.953	11737
930.058	11657
930.163	11509
930.267	11566
930.372	11680
930.477	11433
930.581	11623
930.685	11455
930.79	11349
930.894	11459
930.998	11334
931.103	11448
931.207	11098
931.311	11060
931.415	10949
931.519	10744
931.623	10771
