Data from test_V78500241_2714.txt Node
Date: Fri Mar 25 16:00:36 CST 2022
User: usil
Spectrometer: V785-0024
Trigger mode: 0
Integration Time (sec): 4.000000E-1
Scans to average: 1
Nonlinearity correction enabled: false
Boxcar width: 0
Storing dark spectrum: false
XAxis mode: Wavelengths
Number of Pixels in Spectrum: 1024
>>>>>Begin Spectral Data<<<<<
801.071	28771
801.214	28679
801.356	28500
801.499	28443
801.641	28421
801.783	28413
801.926	28413
802.068	28147
802.211	28249
802.353	28200
802.496	28128
802.638	27949
802.78	28116
802.923	27914
803.065	27953
803.208	27873
803.35	27968
803.492	28268
803.635	28143
803.777	28143
803.919	28405
804.061	28557
804.204	28325
804.346	28310
804.488	28044
804.63	28067
804.773	28166
804.915	28219
805.057	28310
805.199	28268
805.341	28341
805.483	28535
805.626	28462
805.768	28344
805.91	28394
806.052	28516
806.194	28318
806.336	28596
806.478	28478
806.62	28485
806.762	28622
806.904	28721
807.046	29064
807.188	28843
807.33	28888
807.472	28858
807.614	28809
807.756	28748
807.898	28618
808.04	28710
808.182	28740
808.324	28854
808.465	28706
808.607	29006
808.749	29094
808.891	29181
809.033	29330
809.174	29151
809.316	29212
809.458	28980
809.6	29041
809.741	29083
809.883	29280
810.025	29311
810.166	29452
810.308	29486
810.45	29318
810.591	29391
810.733	29197
810.875	29052
811.016	29018
811.158	29143
811.299	29227
811.441	29231
811.582	29277
811.724	29105
811.865	28991
812.007	29071
812.148	29174
812.29	29109
812.431	29375
812.573	29463
812.714	29524
812.855	29672
812.997	29851
813.138	29843
813.279	29813
813.421	29680
813.562	29512
813.703	29471
813.845	29375
813.986	29121
814.127	28972
814.268	28927
814.41	28843
814.551	28904
814.692	28930
814.833	28858
814.974	28755
815.115	28790
815.256	28672
815.397	28744
815.539	28683
815.68	28717
815.821	28573
815.962	28577
816.103	28774
816.244	28557
816.385	28459
816.526	28440
816.666	28192
816.807	28055
816.948	28318
817.089	28303
817.23	28105
817.371	28105
817.512	28181
817.653	28169
817.793	28090
817.934	28074
818.075	28101
818.216	28135
818.356	28074
818.497	28055
818.638	27838
818.778	27823
818.919	27914
819.06	27953
819.2	28135
819.341	28200
819.481	28013
819.622	28223
819.762	28493
819.903	28379
820.043	28276
820.184	28314
820.324	28268
820.465	28356
820.605	28287
820.746	28253
820.886	28166
821.026	28234
821.167	28246
821.307	28310
821.447	28112
821.588	27994
821.728	27964
821.868	27793
822.008	27732
822.149	27545
822.289	27606
822.429	27374
822.569	27321
822.709	27249
822.849	27119
822.99	27192
823.13	27043
823.27	26975
823.41	26944
823.55	26929
823.69	26952
823.83	27047
823.97	26971
824.11	26876
824.25	26701
824.389	26811
824.529	26887
824.669	26861
824.809	26868
824.949	26815
825.089	26769
825.228	26872
825.368	26640
825.508	26613
825.648	26773
825.787	26648
825.927	26804
826.067	26617
826.206	26777
826.346	26826
826.485	26705
826.625	26636
826.765	26765
826.904	26682
827.044	26480
827.183	26473
827.323	26389
827.462	26374
827.601	26339
827.741	26366
827.88	26408
828.02	26419
828.159	26461
828.298	26400
828.437	26381
828.577	26423
828.716	26415
828.855	26298
828.994	26172
829.134	26142
829.273	26164
829.412	26115
829.551	26005
829.69	25989
829.829	26157
829.968	26065
830.107	26122
830.246	26043
830.385	26035
830.524	26024
830.663	25925
830.802	25811
830.941	25746
831.08	25594
831.219	25837
831.357	25738
831.496	25986
831.635	25700
831.774	25540
831.913	25445
832.051	25556
832.19	25468
832.329	25609
832.467	25331
832.606	25285
832.744	25278
832.883	25350
833.022	25354
833.16	25350
833.299	25540
833.437	25487
833.576	25434
833.714	25472
833.852	25605
833.991	25384
834.129	25628
834.267	25597
834.406	25403
834.544	25335
834.682	25434
834.821	25373
834.959	25597
835.097	25411
835.235	25510
835.373	25259
835.511	25460
835.65	25225
835.788	25381
835.926	25194
836.064	24992
836.202	25091
836.34	25183
836.478	25350
836.615	25129
836.753	25255
836.891	25377
837.029	25225
837.167	25099
837.305	25198
837.443	25122
837.58	25118
837.718	25050
837.856	24992
837.993	25034
838.131	25145
838.269	24894
838.406	24966
838.544	24821
838.681	24673
838.819	24719
838.956	24479
839.094	24505
839.231	24642
839.369	24692
839.506	24871
839.643	24802
839.781	24566
839.918	24498
840.055	24566
840.193	24464
840.33	24410
840.467	24513
840.604	24566
840.742	24734
840.879	24372
841.016	24350
841.153	24224
841.29	24578
841.427	24289
841.564	24433
841.701	24323
841.838	24391
841.975	24285
842.112	24304
842.249	24224
842.385	24232
842.522	24441
842.659	24205
842.796	24125
842.933	24163
843.069	24057
843.206	24155
843.343	24285
843.479	24194
843.616	24083
843.752	23866
843.889	24087
844.025	24083
844.162	23866
844.298	24038
844.435	23954
844.571	23980
844.708	24034
844.844	24038
844.98	24030
845.117	24102
845.253	23882
845.389	23790
845.525	23855
845.661	23889
845.798	23672
845.934	23851
846.07	23589
846.206	23847
846.342	23775
846.478	23760
846.614	23478
846.75	23303
846.886	23402
847.022	23482
847.158	23406
847.294	23478
847.429	23497
847.565	23474
847.701	23722
847.837	23212
847.972	23086
848.108	23159
848.244	23322
848.379	23083
848.515	23052
848.65	23048
848.786	22995
848.921	22976
849.057	23086
849.192	23090
849.328	23094
849.463	22957
849.598	22972
849.734	22946
849.869	22793
850.004	22744
850.14	22790
850.275	22835
850.41	22698
850.545	22653
850.68	22622
850.815	22831
850.95	22767
851.085	23003
851.22	23006
851.355	22793
851.49	22771
851.625	22752
851.76	22824
851.895	22736
852.03	22698
852.165	22748
852.299	22694
852.434	22847
852.569	22782
852.703	22710
852.838	22778
852.973	22835
853.107	22862
853.242	22713
853.376	22698
853.511	22462
853.645	22557
853.78	22626
853.914	22630
854.048	22618
854.183	22535
854.317	22675
854.451	22774
854.585	22554
854.72	22596
854.854	22573
854.988	22527
855.122	22538
855.256	22356
855.39	22535
855.524	22698
855.658	22588
855.792	22733
855.926	22618
856.06	22725
856.194	22531
856.327	22603
856.461	22573
856.595	22580
856.729	22573
856.862	22672
856.996	22500
857.13	22653
857.263	22622
857.397	22637
857.53	22615
857.664	22660
857.797	22653
857.931	22653
858.064	22630
858.197	22812
858.331	22607
858.464	22485
858.597	22500
858.731	22634
858.864	22519
858.997	22596
859.13	22596
859.263	22649
859.396	22618
859.529	22679
859.662	22634
859.795	22565
859.928	22565
860.061	22759
860.194	22835
860.327	22584
860.46	22573
860.592	22862
860.725	22733
860.858	22691
860.99	22763
861.123	22512
861.256	22508
861.388	22500
861.521	23239
861.653	22466
861.786	22379
861.918	22481
862.05	22421
862.183	22390
862.315	22634
862.447	22611
862.58	22523
862.712	22310
862.844	22242
862.976	22466
863.108	22424
863.24	22797
863.372	22215
863.504	22280
863.636	22249
863.768	22371
863.9	22188
864.032	22207
864.164	22295
864.296	22284
864.428	22371
864.559	22451
864.691	22185
864.823	22333
864.954	22223
865.086	22257
865.217	22101
865.349	22188
865.48	22139
865.612	22207
865.743	22253
865.875	22147
866.006	22173
866.137	21983
866.269	22223
866.4	22135
866.531	22150
866.662	22063
866.793	22070
866.924	22029
867.055	22143
867.186	22173
867.317	22097
867.448	21994
867.579	22006
867.71	22040
867.841	22063
867.972	22090
868.103	22097
868.233	22173
868.364	22112
868.495	22040
868.625	22485
868.756	22481
868.886	22246
869.017	22219
869.147	22424
869.278	22557
869.408	22371
869.539	22379
869.669	22356
869.799	22390
869.929	22447
870.06	22413
870.19	22774
870.32	22584
870.45	22637
870.58	22721
870.71	22752
870.84	22748
870.97	22824
871.1	22782
871.23	22930
871.36	22961
871.489	22858
871.619	22816
871.749	22927
871.879	22873
872.008	22927
872.138	23060
872.267	22949
872.397	22858
872.526	22816
872.656	22653
872.785	22828
872.915	22900
873.044	22984
873.173	23056
873.303	22873
873.432	22889
873.561	23121
873.69	23006
873.819	22911
873.948	23010
874.077	22949
874.206	22877
874.335	22946
874.464	22934
874.593	23326
874.722	23094
874.851	23235
874.979	23132
875.108	23181
875.237	23109
875.365	22999
875.494	23128
875.623	23200
875.751	23094
875.88	23197
876.008	23356
876.136	23372
876.265	23665
876.393	23802
876.521	23615
876.65	23573
876.778	23611
876.906	23589
877.034	23585
877.162	23452
877.29	23505
877.418	23448
877.546	23493
877.674	23509
877.802	23471
877.93	23528
878.058	23414
878.185	23421
878.313	23501
878.441	23482
878.568	23402
878.696	23608
878.824	23486
878.951	23505
879.079	23547
879.206	23687
879.333	23627
879.461	23531
879.588	23589
879.715	23638
879.842	23794
879.97	23566
880.097	23330
880.224	23452
880.351	23490
880.478	23288
880.605	23334
880.732	23318
880.859	23486
880.986	23330
881.112	23349
881.239	23250
881.366	23109
881.493	23041
881.619	22873
881.746	22961
881.872	22965
881.999	22824
882.125	22854
882.252	22923
882.378	22881
882.505	22877
882.631	22858
882.757	22584
882.883	22641
883.01	22618
883.136	22512
883.262	22394
883.388	22432
883.514	22637
883.64	22637
883.766	22443
883.892	22272
884.018	22386
884.143	22481
884.269	22622
884.395	22238
884.52	22101
884.646	22249
884.772	22101
884.897	22109
885.023	22173
885.148	22310
885.274	22257
885.399	22333
885.524	22067
885.65	22147
885.775	22211
885.9	22185
886.025	22234
886.15	22287
886.275	22204
886.4	22109
886.525	22162
886.65	22124
886.775	22040
886.9	22143
887.025	22299
887.149	22143
887.274	22017
887.399	22006
887.523	21888
887.648	21998
887.773	21835
887.897	22021
888.021	22036
888.146	22029
888.27	22070
888.395	21998
888.519	21899
888.643	21915
888.767	22002
888.891	21774
889.015	21660
889.139	21854
889.263	21755
889.387	21854
889.511	21979
889.635	21770
889.759	21694
889.883	21819
890.006	21804
890.13	21766
890.254	21587
890.377	21576
890.501	21538
890.624	21485
890.748	21526
890.871	21462
890.995	21313
891.118	21313
891.241	21241
891.364	21283
891.488	21481
891.611	21325
891.734	21336
891.857	21329
891.98	21249
892.103	21382
892.226	21325
892.349	21249
892.471	21104
892.594	21237
892.717	21317
892.839	21104
892.962	21268
893.085	21355
893.207	21211
893.33	21096
893.452	21089
893.575	21256
893.697	21169
893.819	21397
893.941	21477
894.064	21321
894.186	21154
894.308	21020
894.43	21237
894.552	21302
894.674	21313
894.796	21028
894.918	21138
895.04	21157
895.161	21279
895.283	21237
895.405	21051
895.526	21146
895.648	21100
895.769	21279
895.891	21249
896.012	21180
896.134	21180
896.255	21165
896.376	21047
896.498	21131
896.619	21066
896.74	21245
896.861	21241
896.982	21363
897.103	21557
897.224	21424
897.345	21313
897.466	21150
897.587	21424
897.708	21424
897.828	21355
897.949	21207
898.07	21245
898.19	21306
898.311	21416
898.431	21370
898.552	21340
898.672	21462
898.792	21340
898.913	21462
899.033	21123
899.153	21077
899.273	21013
899.393	21039
899.513	21146
899.633	21039
899.753	21043
899.873	21017
899.993	21154
900.113	20994
900.232	21089
900.352	21051
900.472	20845
900.591	20838
900.711	20948
900.83	20701
900.95	20853
901.069	20937
901.189	20777
901.308	20484
901.427	20408
901.546	20396
901.665	20488
901.784	20450
901.904	20358
902.023	20172
902.141	20031
902.26	19993
902.379	20008
902.498	19936
902.617	19917
902.735	19894
902.854	19811
902.973	19894
903.091	19628
903.21	19639
903.328	19613
903.446	19495
903.565	19384
903.683	19411
903.801	19274
903.919	19304
904.038	19362
904.156	19107
904.274	19255
904.392	19076
904.51	19080
904.627	19103
904.745	19015
904.863	19152
904.981	18970
905.098	18844
905.216	18821
905.334	18779
905.451	18764
905.569	18776
905.686	18806
905.803	18852
905.921	18696
906.038	18627
906.155	18700
906.272	18517
906.389	18521
906.506	18365
906.623	18391
906.74	18342
906.857	18197
906.974	18243
907.091	18365
907.208	18483
907.324	18471
907.441	18190
907.557	18095
907.674	18072
907.79	17946
907.907	17984
908.023	17973
908.139	17999
908.256	18019
908.372	17946
908.488	17855
908.604	17870
908.72	17714
908.836	17710
908.952	17722
909.068	17756
909.184	17923
909.3	17790
909.415	17870
909.531	17665
909.647	17497
909.762	17558
909.878	17387
909.993	17440
910.108	17444
910.224	17414
910.339	17322
910.454	17288
910.57	17254
910.685	17197
910.8	17398
910.915	17455
911.03	17258
911.145	17022
911.259	16900
911.374	17056
911.489	16881
911.604	16850
911.718	16763
911.833	16831
911.947	16637
912.062	16649
912.176	16675
912.291	16763
912.405	16740
912.519	17003
912.633	16904
912.748	16843
912.862	16740
912.976	16622
913.09	16443
913.204	16596
913.318	16584
913.431	16733
913.545	16698
913.659	16599
913.772	16622
913.886	16459
914	16337
914.113	16478
914.226	16451
914.34	16367
914.453	16295
914.566	16337
914.68	16310
914.793	16101
914.906	16006
915.019	16029
915.132	15819
915.245	15865
915.358	15903
915.47	15915
915.583	15831
915.696	15949
915.809	16025
915.921	16036
916.034	15854
916.146	15884
916.259	15831
916.371	15960
916.483	15903
916.595	15618
916.708	15625
916.82	15690
916.932	15759
917.044	15766
917.156	15652
917.268	15599
917.38	15656
917.491	15591
917.603	15610
917.715	15698
917.826	15637
917.938	15549
918.049	15382
918.161	15553
918.272	15701
918.384	15591
918.495	15412
918.606	15317
918.717	15272
918.828	15332
918.939	15298
919.05	15184
919.161	15313
919.272	15036
919.383	15154
919.494	15298
919.604	15526
919.715	15291
919.826	15142
919.936	15150
920.047	15378
920.157	15351
920.267	15485
920.378	15283
920.488	15214
920.598	15473
920.708	15545
920.818	15329
920.928	15325
921.038	15549
921.148	15523
921.258	15154
921.368	15085
921.477	14986
921.587	14921
921.697	14861
921.806	14971
921.916	14773
922.025	14731
922.134	14632
922.244	14594
922.353	14575
922.462	14552
922.571	14450
922.68	14301
922.789	14385
922.898	14347
923.007	14240
923.116	14305
923.224	14252
923.333	14134
923.442	14111
923.55	14142
923.659	14107
923.767	14161
923.876	14027
923.984	14199
924.092	14050
924.201	13997
924.309	14016
924.417	13967
924.525	13830
924.633	13890
924.741	14781
924.849	13757
924.956	13780
925.064	13742
925.172	13689
925.279	13689
925.387	13666
925.494	13708
925.602	13852
925.709	13696
925.816	13590
925.924	13624
926.031	13651
926.138	13609
926.245	13704
926.352	13548
926.459	13632
926.566	13704
926.673	13430
926.779	13354
926.886	13388
926.993	13312
927.099	13164
927.206	13187
927.312	13141
927.419	13255
927.525	13202
927.631	13141
927.737	13088
927.843	13000
927.95	12905
928.056	13061
928.162	13114
928.267	13012
928.373	13525
928.479	13053
928.585	12817
928.69	12897
928.796	13057
928.901	12764
929.007	12696
929.112	12875
929.218	12916
929.323	12608
929.428	12673
929.533	12852
929.638	12650
929.743	12764
929.848	12669
929.953	12589
930.058	12528
930.163	12361
930.267	12414
930.372	12525
930.477	12384
930.581	12528
930.685	12490
930.79	12235
930.894	12254
930.998	12220
931.103	12327
931.207	12045
931.311	11885
931.415	11916
931.519	11562
931.623	11551
