Data from test_V78500241_2604.txt Node
Date: Fri Mar 25 15:59:50 CST 2022
User: usil
Spectrometer: V785-0024
Trigger mode: 0
Integration Time (sec): 4.000000E-1
Scans to average: 1
Nonlinearity correction enabled: false
Boxcar width: 0
Storing dark spectrum: false
XAxis mode: Wavelengths
Number of Pixels in Spectrum: 1024
>>>>>Begin Spectral Data<<<<<
801.071	28824
801.214	28694
801.356	28363
801.499	28405
801.641	28409
801.783	28249
801.926	28394
802.068	28318
802.211	28238
802.353	28287
802.496	28112
802.638	27903
802.78	28090
802.923	27991
803.065	27945
803.208	27888
803.35	28032
803.492	28234
803.635	28207
803.777	28143
803.919	28253
804.061	28546
804.204	28360
804.346	28253
804.488	28200
804.63	28329
804.773	28238
804.915	28379
805.057	28375
805.199	28196
805.341	28329
805.483	28436
805.626	28291
805.768	28280
805.91	28379
806.052	28546
806.194	28394
806.336	28516
806.478	28405
806.62	28375
806.762	28698
806.904	28679
807.046	28866
807.188	28873
807.33	28759
807.472	28927
807.614	28888
807.756	29003
807.898	28721
808.04	28542
808.182	28672
808.324	28790
808.465	28767
808.607	29022
808.749	29140
808.891	29212
809.033	29288
809.174	29277
809.316	29079
809.458	29124
809.6	29124
809.741	29250
809.883	29261
810.025	29520
810.166	29429
810.308	29452
810.45	29444
810.591	29311
810.733	29265
810.875	29193
811.016	29071
811.158	29174
811.299	29242
811.441	29345
811.582	29216
811.724	29269
811.865	29140
812.007	29166
812.148	29151
812.29	29315
812.431	29482
812.573	29478
812.714	29539
812.855	29687
812.997	29851
813.138	29786
813.279	29771
813.421	29649
813.562	29649
813.703	29436
813.845	29334
813.986	29052
814.127	28873
814.268	28858
814.41	28881
814.551	28858
814.692	28915
814.833	28725
814.974	28881
815.115	28961
815.256	28824
815.397	28763
815.539	28786
815.68	28630
815.821	28759
815.962	28736
816.103	28691
816.244	28493
816.385	28382
816.526	28405
816.666	28367
816.807	28169
816.948	28257
817.089	28268
817.23	28166
817.371	28101
817.512	28223
817.653	28204
817.793	28021
817.934	28097
818.075	28147
818.216	28124
818.356	28128
818.497	28032
818.638	28021
818.778	27979
818.919	27766
819.06	28002
819.2	28120
819.341	28234
819.481	28177
819.622	28344
819.762	28424
819.903	28405
820.043	28478
820.184	28284
820.324	28268
820.465	28333
820.605	28367
820.746	28322
820.886	28124
821.026	28162
821.167	28177
821.307	28371
821.447	28173
821.588	28169
821.728	27987
821.868	27774
822.008	27694
822.149	27694
822.289	27698
822.429	27351
822.569	27340
822.709	27310
822.849	27214
822.99	27249
823.13	27028
823.27	27070
823.41	27001
823.55	26880
823.69	26982
823.83	27043
823.97	26788
824.11	26701
824.25	26796
824.389	26800
824.529	26918
824.669	26921
824.809	26967
824.949	26845
825.089	26914
825.228	26883
825.368	26724
825.508	26575
825.648	26606
825.787	26629
825.927	26686
826.067	26636
826.206	26720
826.346	26705
826.485	26857
826.625	26537
826.765	26762
826.904	26617
827.044	26488
827.183	26556
827.323	26366
827.462	26423
827.601	26434
827.741	26328
827.88	26453
828.02	26339
828.159	26389
828.298	26438
828.437	26415
828.577	26313
828.716	26427
828.855	26393
828.994	26210
829.134	26054
829.273	26256
829.412	26035
829.551	26035
829.69	26142
829.829	26077
829.968	26191
830.107	26195
830.246	26130
830.385	26020
830.524	26050
830.663	25974
830.802	25856
830.941	25795
831.08	25742
831.219	25731
831.357	25704
831.496	25864
831.635	25849
831.774	25635
831.913	25487
832.051	25529
832.19	25403
832.329	25438
832.467	25304
832.606	25327
832.744	25285
832.883	25373
833.022	25384
833.16	25373
833.299	25476
833.437	25514
833.576	25495
833.714	25537
833.852	25457
833.991	25567
834.129	25613
834.267	25495
834.406	25396
834.544	25362
834.682	25449
834.821	25381
834.959	25449
835.097	25411
835.235	25457
835.373	25327
835.511	25548
835.65	25289
835.788	25324
835.926	25103
836.064	25088
836.202	25110
836.34	25194
836.478	25324
836.615	25266
836.753	25240
836.891	25422
837.029	25335
837.167	25190
837.305	25107
837.443	25084
837.58	25027
837.718	25038
837.856	25114
837.993	25008
838.131	25129
838.269	24909
838.406	24985
838.544	24882
838.681	24627
838.819	24635
838.956	24464
839.094	24585
839.231	24498
839.369	24673
839.506	24996
839.643	24791
839.781	24551
839.918	24616
840.055	24479
840.193	24525
840.33	24528
840.467	24391
840.604	24483
840.742	24894
840.879	24327
841.016	24479
841.153	24391
841.29	24525
841.427	24395
841.564	24475
841.701	24483
841.838	24334
841.975	24243
842.112	24391
842.249	24391
842.385	24216
842.522	24475
842.659	24285
842.796	24163
842.933	24216
843.069	24064
843.206	24285
843.343	24083
843.479	24239
843.616	24228
843.752	23973
843.889	23897
844.025	24114
844.162	23961
844.298	23931
844.435	23992
844.571	23874
844.708	24030
844.844	24095
844.98	24026
845.117	24114
845.253	23973
845.389	23954
845.525	23836
845.661	23843
845.798	23718
845.934	23832
846.07	23699
846.206	23775
846.342	23695
846.478	23687
846.614	23467
846.75	23345
846.886	23497
847.022	23547
847.158	23417
847.294	23421
847.429	23356
847.565	23410
847.701	23718
847.837	23265
847.972	23250
848.108	23261
848.244	23197
848.379	23044
848.515	22949
848.65	22987
848.786	23132
848.921	23121
849.057	23083
849.192	23037
849.328	23010
849.463	23060
849.598	22995
849.734	22828
849.869	22869
850.004	22812
850.14	22961
850.275	22801
850.41	22637
850.545	22687
850.68	22767
850.815	22847
850.95	22835
851.085	22991
851.22	22850
851.355	22744
851.49	22854
851.625	22782
851.76	22733
851.895	22805
852.03	22694
852.165	22782
852.299	22869
852.434	22854
852.569	22828
852.703	22828
852.838	22767
852.973	22873
853.107	22953
853.242	22748
853.376	22565
853.511	22440
853.645	22569
853.78	22767
853.914	22588
854.048	22485
854.183	22577
854.317	22717
854.451	22793
854.585	22493
854.72	22538
854.854	22721
854.988	22622
855.122	22474
855.256	22535
855.39	22538
855.524	22675
855.658	22660
855.792	22634
855.926	22554
856.06	22607
856.194	22656
856.327	22653
856.461	22451
856.595	22615
856.729	22592
856.862	22755
856.996	22561
857.13	22584
857.263	22634
857.397	22641
857.53	22641
857.664	22618
857.797	22733
857.931	22698
858.064	22607
858.197	22767
858.331	22512
858.464	22481
858.597	22550
858.731	22538
858.864	22580
858.997	22752
859.13	22584
859.263	22672
859.396	22645
859.529	22508
859.662	22554
859.795	22588
859.928	22637
860.061	22649
860.194	22915
860.327	22664
860.46	22729
860.592	22736
860.725	22873
860.858	22713
860.99	22698
861.123	22580
861.256	22489
861.388	22634
861.521	23326
861.653	22318
861.786	22310
861.918	22542
862.05	22512
862.183	22432
862.315	22557
862.447	22634
862.58	22519
862.712	22287
862.844	22322
862.976	22421
863.108	22417
863.24	22866
863.372	22253
863.504	22318
863.636	22257
863.768	22287
863.9	22272
864.032	22367
864.164	22333
864.296	22329
864.428	22398
864.559	22409
864.691	22417
864.823	22261
864.954	22276
865.086	22242
865.217	22097
865.349	22090
865.48	22257
865.612	22265
865.743	22287
865.875	22143
866.006	22128
866.137	22093
866.269	22219
866.4	22200
866.531	22082
866.662	22048
866.793	22025
866.924	22158
867.055	22105
867.186	22101
867.317	22032
867.448	22128
867.579	22036
867.71	22097
867.841	22082
867.972	22082
868.103	21979
868.233	21983
868.364	22150
868.495	22173
868.625	22417
868.756	22363
868.886	22379
869.017	22352
869.147	22485
869.278	22462
869.408	22322
869.539	22386
869.669	22554
869.799	22481
869.929	22440
870.06	22470
870.19	22588
870.32	22611
870.45	22668
870.58	22660
870.71	22877
870.84	22885
870.97	22649
871.1	22763
871.23	22934
871.36	22908
871.489	22771
871.619	22862
871.749	23006
871.879	22877
872.008	23098
872.138	22923
872.267	23033
872.397	22881
872.526	22733
872.656	22778
872.785	22782
872.915	22889
873.044	22904
873.173	22896
873.303	23022
873.432	23064
873.561	23022
873.69	22957
873.819	22968
873.948	23079
874.077	23041
874.206	22938
874.335	23003
874.464	23079
874.593	23227
874.722	23288
874.851	23162
874.979	23246
875.108	23189
875.237	23086
875.365	23162
875.494	23109
875.623	23223
875.751	23086
875.88	23204
876.008	23208
876.136	23436
876.265	23463
876.393	23630
876.521	23581
876.65	23707
876.778	23486
876.906	23528
877.034	23554
877.162	23505
877.29	23429
877.418	23573
877.546	23566
877.674	23535
877.802	23406
877.93	23505
878.058	23486
878.185	23364
878.313	23570
878.441	23452
878.568	23315
878.696	23337
878.824	23539
878.951	23486
879.079	23665
879.206	23676
879.333	23661
879.461	23566
879.588	23676
879.715	23703
879.842	23665
879.97	23589
880.097	23372
880.224	23280
880.351	23440
880.478	23303
880.605	23178
880.732	23296
880.859	23493
880.986	23322
881.112	23360
881.239	23265
881.366	23060
881.493	22957
881.619	22995
881.746	22987
881.872	23056
881.999	22767
882.125	22835
882.252	22961
882.378	22805
882.505	22946
882.631	22763
882.757	22634
882.883	22694
883.01	22474
883.136	22485
883.262	22481
883.388	22329
883.514	22474
883.64	22603
883.766	22474
883.892	22246
884.018	22386
884.143	22508
884.269	22588
884.395	22348
884.52	22238
884.646	22181
884.772	22105
884.897	22105
885.023	22223
885.148	22265
885.274	22344
885.399	22268
885.524	22215
885.65	22303
885.775	22188
885.9	22101
886.025	22162
886.15	22166
886.275	22090
886.4	22051
886.525	22154
886.65	22112
886.775	22048
886.9	22242
887.025	22371
887.149	22154
887.274	21991
887.399	21964
887.523	21953
887.648	21873
887.773	21934
887.897	21922
888.021	22044
888.146	21831
888.27	22032
888.395	22078
888.519	21918
888.643	22036
888.767	21972
888.891	21812
889.015	21838
889.139	21926
889.263	21728
889.387	21804
889.511	21934
889.635	21823
889.759	21686
889.883	21705
890.006	21724
890.13	21831
890.254	21679
890.377	21671
890.501	21511
890.624	21359
890.748	21538
890.871	21332
890.995	21367
891.118	21294
891.241	21332
891.364	21313
891.488	21412
891.611	21184
891.734	21313
891.857	21249
891.98	21348
892.103	21317
892.226	21359
892.349	21199
892.471	21260
892.594	21256
892.717	21161
892.839	21211
892.962	21226
893.085	21237
893.207	21214
893.33	21001
893.452	21138
893.575	21062
893.697	21074
893.819	21340
893.941	21458
894.064	21431
894.186	21119
894.308	21146
894.43	21180
894.552	21298
894.674	21264
894.796	21009
894.918	21157
895.04	21047
895.161	21173
895.283	21169
895.405	21100
895.526	21108
895.648	21131
895.769	21127
895.891	21222
896.012	21203
896.134	21161
896.255	21169
896.376	21131
896.498	21165
896.619	21157
896.74	21169
896.861	21260
896.982	21374
897.103	21557
897.224	21473
897.345	21306
897.466	21329
897.587	21321
897.708	21553
897.828	21386
897.949	21329
898.07	21260
898.19	21264
898.311	21408
898.431	21310
898.552	21389
898.672	21420
898.792	21511
898.913	21435
899.033	21180
899.153	21180
899.273	21055
899.393	21127
899.513	21154
899.633	21104
899.753	21001
899.873	20986
899.993	20986
900.113	20838
900.232	21096
900.352	20956
900.472	20815
900.591	20861
900.711	20918
900.83	20800
900.95	21058
901.069	20853
901.189	20781
901.308	20450
901.427	20476
901.546	20374
901.665	20313
901.784	20427
901.904	20301
902.023	20183
902.141	19978
902.26	19898
902.379	19982
902.498	19849
902.617	19875
902.735	20001
902.854	19875
902.973	19738
903.091	19624
903.21	19537
903.328	19605
903.446	19567
903.565	19358
903.683	19270
903.801	19209
903.919	19293
904.038	19263
904.156	19168
904.274	19148
904.392	19168
904.51	19008
904.627	19080
904.745	19000
904.863	19114
904.981	18894
905.098	18798
905.216	18768
905.334	18848
905.451	18757
905.569	18757
905.686	18741
905.803	18745
905.921	18544
906.038	18608
906.155	18673
906.272	18445
906.389	18486
906.506	18323
906.623	18437
906.74	18273
906.857	18365
906.974	18136
907.091	18494
907.208	18426
907.324	18456
907.441	18239
907.557	18087
907.674	17939
907.79	17977
907.907	17992
908.023	18034
908.139	18076
908.256	17999
908.372	17942
908.488	17855
908.604	17729
908.72	17756
908.836	17676
908.952	17745
909.068	17665
909.184	17775
909.3	17741
909.415	17756
909.531	17699
909.647	17433
909.762	17433
909.878	17524
909.993	17459
910.108	17368
910.224	17334
910.339	17467
910.454	17326
910.57	17235
910.685	17079
910.8	17512
910.915	17364
911.03	17258
911.145	17067
911.259	17052
911.374	16984
911.489	16904
911.604	16889
911.718	16725
911.833	16809
911.947	16683
912.062	16660
912.176	16759
912.291	16656
912.405	16744
912.519	16976
912.633	16786
912.748	16790
912.862	16763
912.976	16580
913.09	16451
913.204	16527
913.318	16603
913.431	16622
913.545	16683
913.659	16698
913.772	16615
913.886	16424
914	16325
914.113	16409
914.226	16474
914.34	16428
914.453	16219
914.566	16284
914.68	16177
914.793	16143
914.906	16090
915.019	15960
915.132	15835
915.245	15918
915.358	15915
915.47	15899
915.583	15930
915.696	15945
915.809	15987
915.921	16124
916.034	15892
916.146	15812
916.259	15759
916.371	15892
916.483	15861
916.595	15732
916.708	15709
916.82	15720
916.932	15671
917.044	15713
917.156	15717
917.268	15549
917.38	15553
917.491	15519
917.603	15656
917.715	15603
917.826	15614
917.938	15481
918.049	15336
918.161	15511
918.272	15633
918.384	15595
918.495	15306
918.606	15249
918.717	15157
918.828	15317
918.939	15287
919.05	15211
919.161	15344
919.272	15085
919.383	15150
919.494	15378
919.604	15462
919.715	15256
919.826	15108
919.936	15256
920.047	15294
920.157	15226
920.267	15424
920.378	15241
920.488	15203
920.598	15462
920.708	15553
920.818	15310
920.928	15367
921.038	15523
921.148	15435
921.258	15180
921.368	15173
921.477	15051
921.587	15020
921.697	14868
921.806	15013
921.916	14811
922.025	14636
922.134	14594
922.244	14556
922.353	14617
922.462	14492
922.571	14393
922.68	14305
922.789	14214
922.898	14240
923.007	14199
923.116	14282
923.224	14164
923.333	14164
923.442	14050
923.55	14081
923.659	14039
923.767	14183
923.876	13921
923.984	14115
924.092	13890
924.201	13921
924.309	13993
924.417	13925
924.525	13906
924.633	13917
924.741	14678
924.849	13757
924.956	13765
925.064	13609
925.172	13483
925.279	13491
925.387	13636
925.494	13632
925.602	13715
925.709	13647
925.816	13506
925.924	13620
926.031	13567
926.138	13548
926.245	13639
926.352	13464
926.459	13620
926.566	13552
926.673	13422
926.779	13373
926.886	13320
926.993	13198
927.099	13080
927.206	13141
927.312	13183
927.419	13183
927.525	13194
927.631	13152
927.737	13072
927.843	13080
927.95	12840
928.056	12966
928.162	12947
928.267	12993
928.373	13438
928.479	13004
928.585	12783
928.69	12833
928.796	12844
928.901	12840
929.007	12665
929.112	12798
929.218	12791
929.323	12658
929.428	12582
929.533	12787
929.638	12627
929.743	12509
929.848	12631
929.953	12559
930.058	12528
930.163	12353
930.267	12407
930.372	12559
930.477	12292
930.581	12490
930.685	12330
930.79	12186
930.894	12277
930.998	12251
931.103	12273
931.207	11897
931.311	11874
931.415	11843
931.519	11596
931.623	11589
