Data from test_V78500241_2476.txt Node
Date: Fri Mar 25 15:58:57 CST 2022
User: usil
Spectrometer: V785-0024
Trigger mode: 0
Integration Time (sec): 4.000000E-1
Scans to average: 1
Nonlinearity correction enabled: false
Boxcar width: 0
Storing dark spectrum: false
XAxis mode: Wavelengths
Number of Pixels in Spectrum: 1024
>>>>>Begin Spectral Data<<<<<
801.071	28257
801.214	28242
801.356	28021
801.499	28032
801.641	27876
801.783	28070
801.926	27926
802.068	27926
802.211	27724
802.353	27918
802.496	27873
802.638	27698
802.78	27682
802.923	27572
803.065	27447
803.208	27481
803.35	27652
803.492	27835
803.635	27831
803.777	27774
803.919	27827
804.061	28234
804.204	27895
804.346	27789
804.488	27766
804.63	27819
804.773	27857
804.915	27888
805.057	28055
805.199	27755
805.341	27964
805.483	27918
805.626	27956
805.768	27835
805.91	27960
806.052	28040
806.194	27964
806.336	28287
806.478	27930
806.62	27937
806.762	28215
806.904	28284
807.046	28580
807.188	28421
807.33	28493
807.472	28428
807.614	28287
807.756	28382
807.898	28299
808.04	28268
808.182	28207
808.324	28329
808.465	28310
808.607	28565
808.749	28679
808.891	28778
809.033	28675
809.174	28660
809.316	28710
809.458	28656
809.6	28546
809.741	28816
809.883	28904
810.025	29048
810.166	28862
810.308	29060
810.45	28862
810.591	28961
810.733	28748
810.875	28588
811.016	28630
811.158	28451
811.299	28831
811.441	28904
811.582	28873
811.724	28656
811.865	28588
812.007	28611
812.148	28603
812.29	28672
812.431	28759
812.573	29022
812.714	29128
812.855	29200
812.997	29288
813.138	29353
813.279	29330
813.421	29220
813.562	29136
813.703	28980
813.845	29052
813.986	28710
814.127	28485
814.268	28352
814.41	28310
814.551	28386
814.692	28348
814.833	28299
814.974	28265
815.115	28367
815.256	28226
815.397	28200
815.539	28211
815.68	28223
815.821	28154
815.962	28139
816.103	28246
816.244	27991
816.385	27918
816.526	28029
816.666	27595
816.807	27576
816.948	27667
817.089	27842
817.23	27633
817.371	27652
817.512	27728
817.653	27698
817.793	27755
817.934	27701
818.075	27671
818.216	27694
818.356	27698
818.497	27564
818.638	27439
818.778	27408
818.919	27488
819.06	27504
819.2	27572
819.341	27690
819.481	27530
819.622	27865
819.762	27888
819.903	27869
820.043	27816
820.184	27720
820.324	27804
820.465	27861
820.605	27808
820.746	27816
820.886	27618
821.026	27793
821.167	27762
821.307	27682
821.447	27724
821.588	27675
821.728	27389
821.868	27389
822.008	27146
822.149	27161
822.289	27226
822.429	26944
822.569	26773
822.709	26754
822.849	26697
822.99	26765
823.13	26587
823.27	26518
823.41	26545
823.55	26362
823.69	26484
823.83	26408
823.97	26507
824.11	26275
824.25	26134
824.389	26370
824.529	26396
824.669	26244
824.809	26370
824.949	26366
825.089	26324
825.228	26259
825.368	26103
825.508	26149
825.648	26210
825.787	26149
825.927	26294
826.067	26096
826.206	26077
826.346	26092
826.485	26199
826.625	26164
826.765	26206
826.904	26343
827.044	26138
827.183	25917
827.323	25708
827.462	26100
827.601	25932
827.741	25875
827.88	25811
828.02	25731
828.159	25814
828.298	25906
828.437	25989
828.577	25731
828.716	26054
828.855	25909
828.994	25594
829.134	25495
829.273	25624
829.412	25426
829.551	25377
829.69	25605
829.829	25544
829.968	25734
830.107	25651
830.246	25651
830.385	25533
830.524	25495
830.663	25396
830.802	25384
830.941	25141
831.08	25046
831.219	25263
831.357	25145
831.496	25247
831.635	25327
831.774	24970
831.913	25080
832.051	24977
832.19	24928
832.329	24882
832.467	24783
832.606	24837
832.744	24730
832.883	24829
833.022	24783
833.16	24791
833.299	24848
833.437	24863
833.576	24913
833.714	24875
833.852	24954
833.991	25042
834.129	24935
834.267	24973
834.406	24875
834.544	24962
834.682	24951
834.821	24806
834.959	25164
835.097	24871
835.235	24951
835.373	24783
835.511	24890
835.65	24882
835.788	24776
835.926	24635
836.064	24589
836.202	24578
836.34	24833
836.478	24757
836.615	24642
836.753	24730
836.891	24776
837.029	24821
837.167	24635
837.305	24540
837.443	24627
837.58	24528
837.718	24646
837.856	24589
837.993	24631
838.131	24555
838.269	24426
838.406	24517
838.544	24350
838.681	24083
838.819	24121
838.956	23969
839.094	24041
839.231	24121
839.369	24239
839.506	24369
839.643	24194
839.781	24022
839.918	23996
840.055	24022
840.193	24106
840.33	23931
840.467	23882
840.604	23977
840.742	24201
840.879	23775
841.016	23851
841.153	23897
841.29	23958
841.427	23893
841.564	23908
841.701	23939
841.838	23733
841.975	23710
842.112	23893
842.249	23764
842.385	23752
842.522	23882
842.659	23828
842.796	23611
842.933	23649
843.069	23653
843.206	23592
843.343	23627
843.479	23741
843.616	23718
843.752	23436
843.889	23486
844.025	23566
844.162	23383
844.298	23516
844.435	23410
844.571	23417
844.708	23554
844.844	23554
844.98	23551
845.117	23528
845.253	23429
845.389	23318
845.525	23360
845.661	23204
845.798	23166
845.934	23277
846.07	23018
846.206	23178
846.342	23235
846.478	23170
846.614	22987
846.75	22835
846.886	22816
847.022	22991
847.158	22915
847.294	22896
847.429	22881
847.565	22892
847.701	23140
847.837	22584
847.972	22626
848.108	22679
848.244	22767
848.379	22557
848.515	22500
848.65	22481
848.786	22523
848.921	22580
849.057	22588
849.192	22565
849.328	22588
849.463	22538
849.598	22485
849.734	22542
849.869	22341
850.004	22246
850.14	22215
850.275	22363
850.41	22230
850.545	22181
850.68	22204
850.815	22253
850.95	22287
851.085	22459
851.22	22451
851.355	22276
851.49	22287
851.625	22280
851.76	22223
851.895	22200
852.03	22253
852.165	22242
852.299	22379
852.434	22344
852.569	22333
852.703	22276
852.838	22306
852.973	22405
853.107	22356
853.242	22188
853.376	22207
853.511	22086
853.645	22032
853.78	22215
853.914	22242
854.048	22074
854.183	22150
854.317	22002
854.451	22337
854.585	22074
854.72	22181
854.854	22093
854.988	22090
855.122	22181
855.256	22002
855.39	22032
855.524	22021
855.658	22128
855.792	22169
855.926	22105
856.06	22128
856.194	22215
856.327	22032
856.461	22090
856.595	22036
856.729	22059
856.862	22268
856.996	22086
857.13	22226
857.263	22169
857.397	22185
857.53	21983
857.664	22116
857.797	22215
857.931	22223
858.064	22154
858.197	22230
858.331	22059
858.464	22093
858.597	21903
858.731	22025
858.864	22128
858.997	22082
859.13	22067
859.263	22070
859.396	22150
859.529	22086
859.662	22082
859.795	22116
859.928	22135
860.061	22287
860.194	22299
860.327	22238
860.46	22143
860.592	22257
860.725	22230
860.858	22215
860.99	22112
861.123	22097
861.256	22055
861.388	22013
861.521	22843
861.653	22029
861.786	21869
861.918	21846
862.05	21987
862.183	21987
862.315	22036
862.447	22105
862.58	22063
862.712	21797
862.844	21846
862.976	21937
863.108	21778
863.24	22177
863.372	21762
863.504	21781
863.636	21698
863.768	21759
863.9	21926
864.032	21759
864.164	21728
864.296	21736
864.428	21937
864.559	21751
864.691	21804
864.823	21869
864.954	21724
865.086	21850
865.217	21694
865.349	21694
865.48	21705
865.612	21709
865.743	21903
865.875	21770
866.006	21599
866.137	21504
866.269	21698
866.4	21679
866.531	21553
866.662	21507
866.793	21576
866.924	21652
867.055	21641
867.186	21561
867.317	21576
867.448	21576
867.579	21709
867.71	21625
867.841	21500
867.972	21759
868.103	21511
868.233	21633
868.364	21690
868.495	21770
868.625	21835
868.756	21949
868.886	21800
869.017	21827
869.147	21873
869.278	22029
869.408	21934
869.539	21922
869.669	21998
869.799	21915
869.929	21945
870.06	21937
870.19	22055
870.32	22128
870.45	22120
870.58	22257
870.71	22424
870.84	22344
870.97	22177
871.1	22223
871.23	22379
871.36	22295
871.489	22485
871.619	22440
871.749	22474
871.879	22348
872.008	22618
872.138	22375
872.267	22402
872.397	22268
872.526	22188
872.656	22287
872.785	22215
872.915	22519
873.044	22474
873.173	22504
873.303	22398
873.432	22455
873.561	22618
873.69	22569
873.819	22390
873.948	22637
874.077	22512
874.206	22325
874.335	22451
874.464	22656
874.593	22622
874.722	22641
874.851	22759
874.979	22733
875.108	22755
875.237	22634
875.365	22561
875.494	22725
875.623	22748
875.751	22717
875.88	22599
876.008	22900
876.136	22862
876.265	23170
876.393	23193
876.521	23147
876.65	23197
876.778	23299
876.906	23086
877.034	23102
877.162	22946
877.29	22984
877.418	23060
877.546	23025
877.674	22927
877.802	23006
877.93	22991
878.058	23079
878.185	22904
878.313	23079
878.441	23052
878.568	22869
878.696	22953
878.824	22999
878.951	23094
879.079	23223
879.206	23379
879.333	23288
879.461	23109
879.588	23109
879.715	23216
879.842	23311
879.97	23090
880.097	22850
880.224	22698
880.351	23029
880.478	22858
880.605	22923
880.732	22900
880.859	23121
880.986	23071
881.112	22831
881.239	22790
881.366	22603
881.493	22462
881.619	22337
881.746	22421
881.872	22497
881.999	22451
882.125	22382
882.252	22440
882.378	22367
882.505	22478
882.631	22329
882.757	22276
882.883	22261
883.01	22082
883.136	22116
883.262	21945
883.388	21972
883.514	22158
883.64	22158
883.766	22105
883.892	21842
884.018	22021
884.143	21968
884.269	22116
884.395	21854
884.52	21705
884.646	21713
884.772	21633
884.897	21652
885.023	21766
885.148	21690
885.274	21808
885.399	21846
885.524	21762
885.65	21701
885.775	21842
885.9	21694
886.025	21774
886.15	21762
886.275	21698
886.4	21713
886.525	21663
886.65	21667
886.775	21591
886.9	21915
887.025	21945
887.149	21789
887.274	21568
887.399	21660
887.523	21435
887.648	21420
887.773	21408
887.897	21538
888.021	21504
888.146	21534
888.27	21572
888.395	21622
888.519	21500
888.643	21530
888.767	21496
888.891	21370
889.015	21367
889.139	21412
889.263	21264
889.387	21325
889.511	21504
889.635	21344
889.759	21336
889.883	21287
890.006	21310
890.13	21291
890.254	21207
890.377	21203
890.501	21032
890.624	20979
890.748	21039
890.871	20849
890.995	20815
891.118	20724
891.241	20849
891.364	20853
891.488	20902
891.611	20868
891.734	20887
891.857	20944
891.98	20861
892.103	20986
892.226	20880
892.349	20883
892.471	20667
892.594	20845
892.717	20762
892.839	20689
892.962	20705
893.085	20937
893.207	20743
893.33	20640
893.452	20670
893.575	20880
893.697	20781
893.819	20891
893.941	20906
894.064	20815
894.186	20667
894.308	20659
894.43	20819
894.552	20910
894.674	20921
894.796	20663
894.918	20762
895.04	20640
895.161	20777
895.283	20705
895.405	20583
895.526	20720
895.648	20754
895.769	20823
895.891	20716
896.012	20785
896.134	20785
896.255	20727
896.376	20644
896.498	20629
896.619	20667
896.74	20765
896.861	20773
896.982	21005
897.103	21230
897.224	20994
897.345	20960
897.466	20895
897.587	20925
897.708	21017
897.828	20902
897.949	20880
898.07	20830
898.19	20861
898.311	21096
898.431	20925
898.552	21009
898.672	21013
898.792	20998
898.913	21024
899.033	20845
899.153	20739
899.273	20663
899.393	20712
899.513	20796
899.633	20632
899.753	20735
899.873	20568
899.993	20731
900.113	20571
900.232	20579
900.352	20552
900.472	20526
900.591	20298
900.711	20473
900.83	20438
900.95	20674
901.069	20530
901.189	20275
901.308	20153
901.427	20035
901.546	20069
901.665	20142
901.784	19993
901.904	19902
902.023	19894
902.141	19616
902.26	19605
902.379	19715
902.498	19487
902.617	19422
902.735	19533
902.854	19529
902.973	19476
903.091	19168
903.21	19183
903.328	19228
903.446	19099
903.565	18973
903.683	18951
903.801	18897
903.919	18973
904.038	18913
904.156	18798
904.274	18871
904.392	18738
904.51	18840
904.627	18757
904.745	18970
904.863	18764
904.981	18517
905.098	18513
905.216	18418
905.334	18540
905.451	18509
905.569	18369
905.686	18486
905.803	18403
905.921	18136
906.038	18308
906.155	18323
906.272	18117
906.389	18152
906.506	18121
906.623	17946
906.74	17977
906.857	17821
906.974	17855
907.091	18053
907.208	18026
907.324	17999
907.441	17851
907.557	17824
907.674	17691
907.79	17585
907.907	17630
908.023	17726
908.139	17699
908.256	17672
908.372	17573
908.488	17528
908.604	17452
908.72	17410
908.836	17516
908.952	17417
909.068	17455
909.184	17520
909.3	17345
909.415	17414
909.531	17376
909.647	17151
909.762	17086
909.878	17124
909.993	17147
910.108	17105
910.224	17033
910.339	17102
910.454	16965
910.57	16927
910.685	16877
910.8	17242
910.915	17045
911.03	16877
911.145	16752
911.259	16717
911.374	16679
911.489	16588
911.604	16554
911.718	16333
911.833	16443
911.947	16379
912.062	16204
912.176	16398
912.291	16428
912.405	16485
912.519	16653
912.633	16679
912.748	16535
912.862	16371
912.976	16230
913.09	16169
913.204	16257
913.318	16310
913.431	16337
913.545	16242
913.659	16303
913.772	16215
913.886	16196
914	15979
914.113	16120
914.226	16291
914.34	16063
914.453	15934
914.566	16162
914.68	15911
914.793	15884
914.906	15698
915.019	15610
915.132	15561
915.245	15660
915.358	15728
915.47	15606
915.583	15580
915.696	15747
915.809	15759
915.921	15701
916.034	15504
916.146	15561
916.259	15610
916.371	15572
916.483	15553
916.595	15428
916.708	15412
916.82	15591
916.932	15386
917.044	15450
917.156	15340
917.268	15336
917.38	15321
917.491	15184
917.603	15207
917.715	15252
917.826	15317
917.938	15214
918.049	15089
918.161	15245
918.272	15386
918.384	15336
918.495	15226
918.606	15081
918.717	14925
918.828	15089
918.939	15047
919.05	14880
919.161	14982
919.272	14792
919.383	14788
919.494	15074
919.604	15283
919.715	15074
919.826	14948
919.936	14967
920.047	15028
920.157	15005
920.267	15142
920.378	14933
920.488	14948
920.598	15176
920.708	15332
920.818	15058
920.928	15093
921.038	15218
921.148	15207
921.258	14960
921.368	14769
921.477	14655
921.587	14659
921.697	14636
921.806	14720
921.916	14579
922.025	14396
922.134	14240
922.244	14355
922.353	14419
922.462	14221
922.571	14119
922.68	14027
922.789	13947
922.898	14027
923.007	13944
923.116	13986
923.224	13936
923.333	13951
923.442	13818
923.55	13814
923.659	13845
923.767	13860
923.876	13700
923.984	13833
924.092	13708
924.201	13795
924.309	13647
924.417	13624
924.525	13563
924.633	13613
924.741	14355
924.849	13438
924.956	13529
925.064	13438
925.172	13377
925.279	13304
925.387	13384
925.494	13327
925.602	13407
925.709	13407
925.816	13324
925.924	13285
926.031	13350
926.138	13225
926.245	13331
926.352	13247
926.459	13304
926.566	13282
926.673	13331
926.779	13228
926.886	13080
926.993	12958
927.099	13015
927.206	12833
927.312	12935
927.419	13027
927.525	12939
927.631	12920
927.737	12867
927.843	12791
927.95	12688
928.056	12772
928.162	12810
928.267	12779
928.373	13377
928.479	12768
928.585	12589
928.69	12764
928.796	12738
928.901	12612
929.007	12475
929.112	12544
929.218	12555
929.323	12544
929.428	12418
929.533	12582
929.638	12353
929.743	12384
929.848	12388
929.953	12372
930.058	12304
930.163	12175
930.267	12060
930.372	12251
930.477	12136
930.581	12292
930.685	12224
930.79	12098
930.894	11969
930.998	11969
931.103	12034
931.207	11775
931.311	11688
931.415	11646
931.519	11376
931.623	11383
