Data from test_V78500241_2625.txt Node
Date: Fri Mar 25 15:59:59 CST 2022
User: usil
Spectrometer: V785-0024
Trigger mode: 0
Integration Time (sec): 4.000000E-1
Scans to average: 1
Nonlinearity correction enabled: false
Boxcar width: 0
Storing dark spectrum: false
XAxis mode: Wavelengths
Number of Pixels in Spectrum: 1024
>>>>>Begin Spectral Data<<<<<
801.071	28908
801.214	29098
801.356	28710
801.499	28641
801.641	28500
801.783	28603
801.926	28653
802.068	28630
802.211	28546
802.353	28398
802.496	28276
802.638	28382
802.78	28207
802.923	28196
803.065	28150
803.208	28329
803.35	28299
803.492	28443
803.635	28489
803.777	28519
803.919	28550
804.061	28896
804.204	28584
804.346	28360
804.488	28432
804.63	28577
804.773	28527
804.915	28596
805.057	28634
805.199	28557
805.341	28474
805.483	28717
805.626	28683
805.768	28588
805.91	28607
806.052	28630
806.194	28637
806.336	28900
806.478	28683
806.62	28645
806.762	28862
806.904	29094
807.046	29231
807.188	29140
807.33	29098
807.472	29113
807.614	29208
807.756	29223
807.898	28847
808.04	28888
808.182	28812
808.324	29128
808.465	29014
808.607	29318
808.749	29330
808.891	29455
809.033	29585
809.174	29509
809.316	29410
809.458	29531
809.6	29364
809.741	29493
809.883	29623
810.025	29832
810.166	29764
810.308	29726
810.45	29554
810.591	29627
810.733	29623
810.875	29417
811.016	29406
811.158	29387
811.299	29375
811.441	29463
811.582	29551
811.724	29391
811.865	29364
812.007	29311
812.148	29372
812.29	29493
812.431	29573
812.573	29710
812.714	29840
812.855	30049
812.997	29977
813.138	30144
813.279	29988
813.421	30007
813.562	29870
813.703	29775
813.845	29733
813.986	29337
814.127	29174
814.268	29250
814.41	29098
814.551	29098
814.692	29094
814.833	29006
814.974	29212
815.115	29227
815.256	28885
815.397	29033
815.539	28915
815.68	28862
815.821	28805
815.962	28908
816.103	28961
816.244	28805
816.385	28759
816.526	28729
816.666	28523
816.807	28478
816.948	28508
817.089	28466
817.23	28394
817.371	28512
817.512	28554
817.653	28519
817.793	28390
817.934	28466
818.075	28405
818.216	28344
818.356	28356
818.497	28276
818.638	28314
818.778	28173
818.919	28242
819.06	28188
819.2	28360
819.341	28603
819.481	28386
819.622	28542
819.762	28816
819.903	28729
820.043	28729
820.184	28554
820.324	28679
820.465	28580
820.605	28569
820.746	28527
820.886	28329
821.026	28577
821.167	28474
821.307	28729
821.447	28508
821.588	28409
821.728	28169
821.868	28013
822.008	28048
822.149	27914
822.289	27964
822.429	27762
822.569	27667
822.709	27656
822.849	27450
822.99	27485
823.13	27564
823.27	27580
823.41	27355
823.55	27127
823.69	27340
823.83	27424
823.97	27302
824.11	27085
824.25	26975
824.389	27237
824.529	27096
824.669	27112
824.809	27336
824.949	27287
825.089	27222
825.228	27241
825.368	26937
825.508	27013
825.648	27013
825.787	27013
825.927	27199
826.067	26914
826.206	27047
826.346	27131
826.485	27009
826.625	27085
826.765	27150
826.904	27013
827.044	26826
827.183	26838
827.323	26727
827.462	26804
827.601	26842
827.741	26743
827.88	26735
828.02	26777
828.159	26724
828.298	26708
828.437	26895
828.577	26648
828.716	26777
828.855	26697
828.994	26465
829.134	26514
829.273	26366
829.412	26324
829.551	26393
829.69	26400
829.829	26488
829.968	26533
830.107	26575
830.246	26469
830.385	26408
830.524	26309
830.663	26385
830.802	26259
830.941	26145
831.08	25959
831.219	26149
831.357	26157
831.496	26290
831.635	26084
831.774	26043
831.913	26005
832.051	25841
832.19	25871
832.329	25750
832.467	25731
832.606	25693
832.744	25571
832.883	25803
833.022	25746
833.16	25746
833.299	25784
833.437	25791
833.576	25689
833.714	25738
833.852	25890
833.991	25803
834.129	25845
834.267	25845
834.406	25620
834.544	25871
834.682	25708
834.821	25871
834.959	25856
835.097	25651
835.235	25830
835.373	25803
835.511	25655
835.65	25643
835.788	25685
835.926	25426
836.064	25514
836.202	25491
836.34	25620
836.478	25677
836.615	25483
836.753	25723
836.891	25830
837.029	25487
837.167	25521
837.305	25502
837.443	25468
837.58	25312
837.718	25613
837.856	25521
837.993	25331
838.131	25377
838.269	25259
838.406	25392
838.544	25164
838.681	25080
838.819	25057
838.956	24764
839.094	24871
839.231	24840
839.369	25168
839.506	25282
839.643	25164
839.781	24943
839.918	24840
840.055	24844
840.193	24798
840.33	24806
840.467	24810
840.604	24741
840.742	25050
840.879	24677
841.016	24852
841.153	24623
841.29	24810
841.427	24738
841.564	24779
841.701	24490
841.838	24707
841.975	24711
842.112	24646
842.249	24528
842.385	24681
842.522	24688
842.659	24452
842.796	24566
842.933	24528
843.069	24433
843.206	24475
843.343	24528
843.479	24486
843.616	24502
843.752	24361
843.889	24243
844.025	24330
844.162	24334
844.298	24319
844.435	24372
844.571	24315
844.708	24266
844.844	24433
844.98	24490
845.117	24380
845.253	24273
845.389	24197
845.525	24140
845.661	24068
845.798	23961
845.934	24007
846.07	23859
846.206	24038
846.342	24144
846.478	23920
846.614	23840
846.75	23668
846.886	23726
847.022	23863
847.158	23893
847.294	23813
847.429	23790
847.565	23672
847.701	23878
847.837	23474
847.972	23455
848.108	23531
848.244	23627
848.379	23368
848.515	23273
848.65	23322
848.786	23349
848.921	23231
849.057	23478
849.192	23387
849.328	23364
849.463	23280
849.598	23303
849.734	23090
849.869	23151
850.004	23064
850.14	23250
850.275	23292
850.41	23094
850.545	22896
850.68	23102
850.815	23006
850.95	23136
851.085	23166
851.22	23159
851.355	23166
851.49	23064
851.625	22961
851.76	23075
851.895	22968
852.03	22972
852.165	23128
852.299	23246
852.434	23239
852.569	23174
852.703	23090
852.838	23105
852.973	23258
853.107	23174
853.242	22995
853.376	23006
853.511	22896
853.645	22869
853.78	22889
853.914	22896
854.048	22881
854.183	22965
854.317	22938
854.451	23056
854.585	22976
854.72	22862
854.854	22873
854.988	22892
855.122	22965
855.256	22820
855.39	22702
855.524	22896
855.658	22934
855.792	22843
855.926	22885
856.06	22908
856.194	22946
856.327	22976
856.461	22877
856.595	22938
856.729	22885
856.862	23018
856.996	22923
857.13	22889
857.263	23067
857.397	22885
857.53	22915
857.664	22999
857.797	22911
857.931	22961
858.064	22942
858.197	23048
858.331	22847
858.464	22786
858.597	22873
858.731	22889
858.864	22820
858.997	22801
859.13	22968
859.263	22862
859.396	22892
859.529	22942
859.662	22858
859.795	22915
859.928	22930
860.061	23033
860.194	23212
860.327	22999
860.46	22828
860.592	23216
860.725	23124
860.858	23037
860.99	22889
861.123	22717
861.256	22866
861.388	22949
861.521	23676
861.653	22820
861.786	22717
861.918	22607
862.05	22763
862.183	22759
862.315	22824
862.447	22991
862.58	22717
862.712	22721
862.844	22660
862.976	22729
863.108	22748
863.24	22953
863.372	22546
863.504	22721
863.636	22626
863.768	22778
863.9	22550
864.032	22611
864.164	22588
864.296	22603
864.428	22752
864.559	22679
864.691	22691
864.823	22641
864.954	22512
865.086	22645
865.217	22565
865.349	22405
865.48	22493
865.612	22440
865.743	22580
865.875	22466
866.006	22371
866.137	22512
866.269	22363
866.4	22584
866.531	22421
866.662	22344
866.793	22447
866.924	22398
867.055	22443
867.186	22459
867.317	22382
867.448	22405
867.579	22508
867.71	22280
867.841	22158
867.972	22481
868.103	22440
868.233	22443
868.364	22428
868.495	22421
868.625	22687
868.756	22729
868.886	22599
869.017	22679
869.147	22687
869.278	22694
869.408	22725
869.539	22683
869.669	22740
869.799	22710
869.929	22733
870.06	22653
870.19	23060
870.32	22987
870.45	23174
870.58	23071
870.71	23159
870.84	23086
870.97	23025
871.1	23014
871.23	23292
871.36	23132
871.489	23162
871.619	23231
871.749	23235
871.879	23261
872.008	23356
872.138	23159
872.267	23170
872.397	23189
872.526	23197
872.656	23200
872.785	23098
872.915	23235
873.044	23322
873.173	23239
873.303	23296
873.432	23433
873.561	23372
873.69	23330
873.819	23299
873.948	23322
874.077	23189
874.206	23330
874.335	23223
874.464	23383
874.593	23391
874.722	23455
874.851	23566
874.979	23516
875.108	23474
875.237	23425
875.365	23444
875.494	23429
875.623	23615
875.751	23372
875.88	23452
876.008	23665
876.136	23703
876.265	23942
876.393	23954
876.521	23920
876.65	23950
876.778	23874
876.906	23805
877.034	23805
877.162	23805
877.29	23703
877.418	23893
877.546	23764
877.674	23783
877.802	23828
877.93	23786
878.058	23813
878.185	23771
878.313	23699
878.441	23752
878.568	23760
878.696	23737
878.824	23950
878.951	23863
879.079	24011
879.206	24083
879.333	23893
879.461	23821
879.588	23912
879.715	24022
879.842	24144
879.97	23969
880.097	23524
880.224	23611
880.351	23699
880.478	23634
880.605	23505
880.732	23653
880.859	23767
880.986	23695
881.112	23657
881.239	23372
881.366	23406
881.493	23337
881.619	23258
881.746	23273
881.872	23174
881.999	23204
882.125	23109
882.252	23124
882.378	23136
882.505	23288
882.631	23075
882.757	22881
882.883	22972
883.01	22881
883.136	22771
883.262	22869
883.388	22710
883.514	22812
883.64	22892
883.766	22706
883.892	22561
884.018	22588
884.143	22873
884.269	22793
884.395	22554
884.52	22398
884.646	22527
884.772	22512
884.897	22371
885.023	22542
885.148	22637
885.274	22618
885.399	22466
885.524	22641
885.65	22451
885.775	22504
885.9	22489
886.025	22573
886.15	22428
886.275	22375
886.4	22424
886.525	22447
886.65	22322
886.775	22516
886.9	22588
887.025	22733
887.149	22447
887.274	22257
887.399	22177
887.523	22253
887.648	22215
887.773	22219
887.897	22329
888.021	22238
888.146	22162
888.27	22295
888.395	22177
888.519	22230
888.643	22253
888.767	22287
888.891	22116
889.015	22105
889.139	22090
889.263	22021
889.387	22078
889.511	22150
889.635	22181
889.759	21941
889.883	21842
890.006	21979
890.13	22082
890.254	21937
890.377	21968
890.501	21781
890.624	21652
890.748	21812
890.871	21675
890.995	21458
891.118	21572
891.241	21496
891.364	21549
891.488	21629
891.611	21580
891.734	21507
891.857	21644
891.98	21530
892.103	21591
892.226	21519
892.349	21561
892.471	21302
892.594	21526
892.717	21496
892.839	21397
892.962	21363
893.085	21507
893.207	21435
893.33	21363
893.452	21306
893.575	21431
893.697	21378
893.819	21572
893.941	21648
894.064	21481
894.186	21408
894.308	21458
894.43	21545
894.552	21564
894.674	21511
894.796	21363
894.918	21397
895.04	21370
895.161	21481
895.283	21466
895.405	21336
895.526	21439
895.648	21336
895.769	21424
895.891	21405
896.012	21462
896.134	21458
896.255	21447
896.376	21268
896.498	21424
896.619	21477
896.74	21450
896.861	21466
896.982	21705
897.103	21865
897.224	21610
897.345	21469
897.466	21682
897.587	21583
897.708	21857
897.828	21587
897.949	21530
898.07	21462
898.19	21439
898.311	21682
898.431	21595
898.552	21675
898.672	21705
898.792	21618
898.913	21625
899.033	21389
899.153	21466
899.273	21306
899.393	21363
899.513	21367
899.633	21408
899.753	21199
899.873	21218
899.993	21279
900.113	21283
900.232	21424
900.352	21150
900.472	21119
900.591	21070
900.711	21112
900.83	20982
900.95	21146
901.069	21249
901.189	21024
901.308	20720
901.427	20594
901.546	20648
901.665	20682
901.784	20727
901.904	20522
902.023	20488
902.141	20237
902.26	20111
902.379	20149
902.498	20153
902.617	20107
902.735	20046
902.854	20043
902.973	20096
903.091	19890
903.21	19757
903.328	19845
903.446	19742
903.565	19719
903.683	19708
903.801	19400
903.919	19510
904.038	19487
904.156	19350
904.274	19480
904.392	19335
904.51	19365
904.627	19377
904.745	19335
904.863	19297
904.981	19141
905.098	19042
905.216	19057
905.334	19012
905.451	19065
905.569	18985
905.686	19076
905.803	19069
905.921	18779
906.038	18878
906.155	18856
906.272	18741
906.389	18669
906.506	18555
906.623	18566
906.74	18582
906.857	18479
906.974	18490
907.091	18513
907.208	18601
907.324	18593
907.441	18350
907.557	18281
907.674	18327
907.79	18148
907.907	18281
908.023	18186
908.139	18277
908.256	18258
908.372	18114
908.488	18038
908.604	18049
908.72	17874
908.836	17965
908.952	18026
909.068	17977
909.184	18125
909.3	17946
909.415	17901
909.531	17927
909.647	17691
909.762	17847
909.878	17653
909.993	17551
910.108	17661
910.224	17604
910.339	17623
910.454	17509
910.57	17493
910.685	17417
910.8	17691
910.915	17676
911.03	17524
911.145	17315
911.259	17242
911.374	17246
911.489	17151
911.604	17140
911.718	16980
911.833	17022
911.947	16892
912.062	16843
912.176	16938
912.291	17014
912.405	16980
912.519	17094
912.633	17140
912.748	16946
912.862	16934
912.976	16786
913.09	16626
913.204	16778
913.318	16702
913.431	16786
913.545	16790
913.659	16911
913.772	16805
913.886	16558
914	16512
914.113	16653
914.226	16542
914.34	16580
914.453	16409
914.566	16637
914.68	16402
914.793	16405
914.906	16238
915.019	16124
915.132	16116
915.245	16124
915.358	16177
915.47	16116
915.583	16078
915.696	16128
915.809	16265
915.921	16257
916.034	16067
916.146	16029
916.259	16010
916.371	16032
916.483	16059
916.595	15937
916.708	15945
916.82	15987
916.932	15956
917.044	15915
917.156	15831
917.268	15774
917.38	15736
917.491	15591
917.603	15755
917.715	15797
917.826	15827
917.938	15633
918.049	15614
918.161	15633
918.272	15755
918.384	15789
918.495	15686
918.606	15534
918.717	15382
918.828	15603
918.939	15561
919.05	15416
919.161	15485
919.272	15382
919.383	15268
919.494	15542
919.604	15728
919.715	15431
919.826	15256
919.936	15408
920.047	15534
920.157	15435
920.267	15595
920.378	15359
920.488	15412
920.598	15610
920.708	15656
920.818	15576
920.928	15458
921.038	15682
921.148	15679
921.258	15458
921.368	15321
921.477	15245
921.587	15085
921.697	14960
921.806	15062
921.916	15043
922.025	14815
922.134	14849
922.244	14826
922.353	14765
922.462	14686
922.571	14461
922.68	14446
922.789	14396
922.898	14419
923.007	14404
923.116	14358
923.224	14419
923.333	14320
923.442	14298
923.55	14210
923.659	14180
923.767	14233
923.876	14153
923.984	14180
924.092	14088
924.201	14161
924.309	14084
924.417	14115
924.525	14073
924.633	14134
924.741	14963
924.849	13871
924.956	13898
925.064	13791
925.172	13803
925.279	13731
925.387	13795
925.494	13750
925.602	13909
925.709	13639
925.816	13689
925.924	13772
926.031	13776
926.138	13704
926.245	13753
926.352	13666
926.459	13788
926.566	13780
926.673	13651
926.779	13491
926.886	13419
926.993	13331
927.099	13365
927.206	13194
927.312	13316
927.419	13365
927.525	13331
927.631	13411
927.737	13171
927.843	13069
927.95	13023
928.056	13133
928.162	13103
928.267	13168
928.373	13696
928.479	13110
928.585	12882
928.69	13080
928.796	13160
928.901	12966
929.007	12749
929.112	12981
929.218	12954
929.323	12852
929.428	12871
929.533	12954
929.638	12715
929.743	12817
929.848	12821
929.953	12726
930.058	12741
930.163	12441
930.267	12521
930.372	12540
930.477	12490
930.581	12722
930.685	12460
930.79	12357
930.894	12414
930.998	12266
931.103	12467
931.207	12148
931.311	12083
931.415	12007
931.519	11802
931.623	11748
