Data from test_V78500241_2066.txt Node
Date: Fri Mar 25 15:56:06 CST 2022
User: usil
Spectrometer: V785-0024
Trigger mode: 0
Integration Time (sec): 4.000000E-1
Scans to average: 1
Nonlinearity correction enabled: false
Boxcar width: 0
Storing dark spectrum: false
XAxis mode: Wavelengths
Number of Pixels in Spectrum: 1024
>>>>>Begin Spectral Data<<<<<
801.071	28759
801.214	28782
801.356	28573
801.499	28554
801.641	28390
801.783	28329
801.926	28489
802.068	28375
802.211	28314
802.353	28234
802.496	28029
802.638	28070
802.78	28097
802.923	27903
803.065	27888
803.208	27876
803.35	28074
803.492	28185
803.635	28230
803.777	28242
803.919	28348
804.061	28649
804.204	28303
804.346	28185
804.488	28070
804.63	28371
804.773	28246
804.915	28226
805.057	28504
805.199	28234
805.341	28367
805.483	28504
805.626	28557
805.768	28356
805.91	28618
806.052	28535
806.194	28371
806.336	28592
806.478	28519
806.62	28375
806.762	28672
806.904	28675
807.046	29006
807.188	28854
807.33	28862
807.472	28934
807.614	28782
807.756	28915
807.898	28854
808.04	28664
808.182	28588
808.324	28717
808.465	28778
808.607	28942
808.749	29083
808.891	29246
809.033	29311
809.174	29220
809.316	29083
809.458	29200
809.6	29200
809.741	29174
809.883	29265
810.025	29482
810.166	29372
810.308	29360
810.45	29395
810.591	29421
810.733	29037
810.875	29197
811.016	29041
811.158	29071
811.299	29216
811.441	29288
811.582	29379
811.724	29143
811.865	29075
812.007	29193
812.148	29132
812.29	29242
812.431	29330
812.573	29520
812.714	29649
812.855	29592
812.997	29729
813.138	29862
813.279	29836
813.421	29710
813.562	29520
813.703	29417
813.845	29318
813.986	29105
814.127	28877
814.268	28965
814.41	28869
814.551	28755
814.692	29044
814.833	28847
814.974	28866
815.115	28957
815.256	28649
815.397	28687
815.539	28634
815.68	28630
815.821	28455
815.962	28538
816.103	28733
816.244	28565
816.385	28474
816.526	28527
816.666	28219
816.807	28211
816.948	28147
817.089	28226
817.23	28284
817.371	28086
817.512	28253
817.653	28105
817.793	28051
817.934	28242
818.075	28234
818.216	28287
818.356	28112
818.497	28238
818.638	27816
818.778	27831
818.919	28055
819.06	27918
819.2	28192
819.341	28177
819.481	28230
819.622	28303
819.762	28462
819.903	28474
820.043	28314
820.184	28360
820.324	28318
820.465	28516
820.605	28272
820.746	28325
820.886	28211
821.026	28295
821.167	28234
821.307	28371
821.447	28109
821.588	28112
821.728	28006
821.868	27835
822.008	27637
822.149	27686
822.289	27549
822.429	27416
822.569	27298
822.709	27393
822.849	27169
822.99	27123
823.13	27138
823.27	27036
823.41	26906
823.55	26986
823.69	27009
823.83	27074
823.97	26872
824.11	26788
824.25	26716
824.389	26830
824.529	26979
824.669	26785
824.809	26902
824.949	26895
825.089	26800
825.228	26849
825.368	26667
825.508	26727
825.648	26731
825.787	26670
825.927	26686
826.067	26670
826.206	26712
826.346	26708
826.485	26651
826.625	26739
826.765	26796
826.904	26708
827.044	26476
827.183	26590
827.323	26362
827.462	26446
827.601	26320
827.741	26377
827.88	26370
828.02	26393
828.159	26324
828.298	26530
828.437	26442
828.577	26469
828.716	26461
828.855	26370
828.994	26100
829.134	26062
829.273	26008
829.412	26134
829.551	26149
829.69	26088
829.829	26172
829.968	26058
830.107	26065
830.246	26199
830.385	26077
830.524	26058
830.663	25974
830.802	25712
830.941	25670
831.08	25655
831.219	25704
831.357	25791
831.496	25951
831.635	25662
831.774	25689
831.913	25571
832.051	25441
832.19	25518
832.329	25438
832.467	25422
832.606	25377
832.744	25365
832.883	25396
833.022	25373
833.16	25407
833.299	25430
833.437	25396
833.576	25613
833.714	25514
833.852	25586
833.991	25411
834.129	25544
834.267	25525
834.406	25411
834.544	25411
834.682	25457
834.821	25316
834.959	25651
835.097	25289
835.235	25422
835.373	25346
835.511	25506
835.65	25274
835.788	25278
835.926	25114
836.064	24954
836.202	25099
836.34	25213
836.478	25285
836.615	25122
836.753	25293
836.891	25403
837.029	25244
837.167	25240
837.305	25133
837.443	25042
837.58	25034
837.718	25164
837.856	25297
837.993	25050
838.131	24935
838.269	24939
838.406	25012
838.544	24905
838.681	24631
838.819	24589
838.956	24559
839.094	24566
839.231	24650
839.369	24776
839.506	24882
839.643	24711
839.781	24513
839.918	24452
840.055	24486
840.193	24578
840.33	24532
840.467	24429
840.604	24376
840.742	24681
840.879	24247
841.016	24410
841.153	24418
841.29	24388
841.427	24464
841.564	24475
841.701	24490
841.838	24422
841.975	24407
842.112	24376
842.249	24281
842.385	24254
842.522	24414
842.659	24228
842.796	24213
842.933	24098
843.069	24064
843.206	24213
843.343	24209
843.479	24235
843.616	24228
843.752	24041
843.889	24060
844.025	24144
844.162	24026
844.298	24121
844.435	23954
844.571	23920
844.708	23958
844.844	24076
844.98	24144
845.117	24057
845.253	23931
845.389	23843
845.525	23809
845.661	23809
845.798	23764
845.934	23840
846.07	23695
846.206	23600
846.342	23794
846.478	23623
846.614	23535
846.75	23368
846.886	23493
847.022	23425
847.158	23414
847.294	23425
847.429	23497
847.565	23505
847.701	23646
847.837	23166
847.972	23083
848.108	23242
848.244	23292
848.379	23102
848.515	22972
848.65	23075
848.786	22946
848.921	23018
849.057	23060
849.192	23204
849.328	23041
849.463	23003
849.598	22904
849.734	23014
849.869	22904
850.004	22801
850.14	22809
850.275	22672
850.41	22713
850.545	22721
850.68	22752
850.815	22839
850.95	22725
851.085	22995
851.22	22774
851.355	22797
851.49	22607
851.625	22691
851.76	22820
851.895	22717
852.03	22656
852.165	22797
852.299	22991
852.434	22847
852.569	22771
852.703	22790
852.838	22911
852.973	22927
853.107	22904
853.242	22577
853.376	22523
853.511	22596
853.645	22557
853.78	22622
853.914	22550
854.048	22573
854.183	22569
854.317	22809
854.451	22679
854.585	22645
854.72	22531
854.854	22611
854.988	22478
855.122	22542
855.256	22481
855.39	22618
855.524	22694
855.658	22626
855.792	22592
855.926	22649
856.06	22675
856.194	22645
856.327	22565
856.461	22611
856.595	22569
856.729	22516
856.862	22755
856.996	22679
857.13	22622
857.263	22706
857.397	22713
857.53	22485
857.664	22679
857.797	22580
857.931	22744
858.064	22618
858.197	22679
858.331	22694
858.464	22554
858.597	22577
858.731	22569
858.864	22500
858.997	22618
859.13	22634
859.263	22656
859.396	22679
859.529	22569
859.662	22550
859.795	22455
859.928	22645
860.061	22771
860.194	22771
860.327	22535
860.46	22679
860.592	22839
860.725	22755
860.858	22752
860.99	22672
861.123	22561
861.256	22588
861.388	22550
861.521	23273
861.653	22630
861.786	22440
861.918	22573
862.05	22512
862.183	22500
862.315	22519
862.447	22679
862.58	22447
862.712	22375
862.844	22234
862.976	22436
863.108	22333
863.24	22687
863.372	22310
863.504	22287
863.636	22230
863.768	22333
863.9	22348
864.032	22306
864.164	22234
864.296	22329
864.428	22363
864.559	22363
864.691	22295
864.823	22284
864.954	22310
865.086	22322
865.217	22223
865.349	22242
865.48	22211
865.612	22310
865.743	22246
865.875	22211
866.006	22200
866.137	22211
866.269	22162
866.4	22169
866.531	22105
866.662	22166
866.793	22063
866.924	22025
867.055	22234
867.186	22086
867.317	22112
867.448	22051
867.579	22032
867.71	21899
867.841	21972
867.972	22025
868.103	22097
868.233	22169
868.364	22070
868.495	22143
868.625	22280
868.756	22603
868.886	22185
869.017	22295
869.147	22451
869.278	22360
869.408	22417
869.539	22337
869.669	22485
869.799	22333
869.929	22394
870.06	22341
870.19	22702
870.32	22694
870.45	22672
870.58	22744
870.71	22824
870.84	22881
870.97	22786
871.1	22744
871.23	22892
871.36	22869
871.489	22908
871.619	22934
871.749	22961
871.879	22892
872.008	23064
872.138	22862
872.267	22854
872.397	22843
872.526	22713
872.656	22710
872.785	22839
872.915	22995
873.044	22980
873.173	22953
873.303	22995
873.432	23014
873.561	23033
873.69	22961
873.819	23029
873.948	23090
874.077	22995
874.206	22991
874.335	22942
874.464	22995
874.593	23067
874.722	23075
874.851	23170
874.979	23261
875.108	23147
875.237	23174
875.365	23052
875.494	23094
875.623	23265
875.751	23181
875.88	23337
876.008	23216
876.136	23200
876.265	23577
876.393	23733
876.521	23657
876.65	23638
876.778	23596
876.906	23459
877.034	23414
877.162	23478
877.29	23490
877.418	23417
877.546	23520
877.674	23474
877.802	23433
877.93	23471
878.058	23505
878.185	23299
878.313	23376
878.441	23436
878.568	23261
878.696	23364
878.824	23573
878.951	23676
879.079	23726
879.206	23760
879.333	23687
879.461	23512
879.588	23543
879.715	23809
879.842	23771
879.97	23520
880.097	23322
880.224	23246
880.351	23239
880.478	23387
880.605	23280
880.732	23280
880.859	23516
880.986	23425
881.112	23315
881.239	23155
881.366	23041
881.493	22999
881.619	22961
881.746	23086
881.872	22892
881.999	22786
882.125	22801
882.252	22873
882.378	22915
882.505	22866
882.631	22736
882.757	22634
882.883	22557
883.01	22417
883.136	22637
883.262	22470
883.388	22287
883.514	22550
883.64	22664
883.766	22443
883.892	22268
884.018	22363
884.143	22371
884.269	22573
884.395	22363
884.52	22109
884.646	22242
884.772	22124
884.897	21975
885.023	22253
885.148	22268
885.274	22379
885.399	22306
885.524	22169
885.65	22253
885.775	22128
885.9	22188
886.025	22375
886.15	22299
886.275	22116
886.4	22101
886.525	22150
886.65	22169
886.775	22162
886.9	22295
887.025	22398
887.149	22211
887.274	22063
887.399	21994
887.523	21941
887.648	21911
887.773	21975
887.897	22131
888.021	22032
888.146	21983
888.27	21964
888.395	22101
888.519	21880
888.643	21979
888.767	22021
888.891	21915
889.015	21808
889.139	21823
889.263	21766
889.387	21778
889.511	21911
889.635	21812
889.759	21804
889.883	21720
890.006	21755
890.13	21728
890.254	21709
890.377	21591
890.501	21466
890.624	21447
890.748	21492
890.871	21401
890.995	21233
891.118	21249
891.241	21359
891.364	21275
891.488	21420
891.611	21195
891.734	21199
891.857	21473
891.98	21294
892.103	21359
892.226	21279
892.349	21237
892.471	21051
892.594	21218
892.717	21268
892.839	21188
892.962	21089
893.085	21119
893.207	21096
893.33	21081
893.452	21100
893.575	21169
893.697	21112
893.819	21359
893.941	21329
894.064	21142
894.186	21176
894.308	21165
894.43	21302
894.552	21344
894.674	21203
894.796	21108
894.918	21245
895.04	21249
895.161	21226
895.283	21192
895.405	21005
895.526	21218
895.648	21058
895.769	21119
895.891	21119
896.012	21180
896.134	21157
896.255	21108
896.376	21135
896.498	21127
896.619	21104
896.74	21150
896.861	21150
896.982	21454
897.103	21492
897.224	21355
897.345	21412
897.466	21336
897.587	21321
897.708	21553
897.828	21435
897.949	21127
898.07	21195
898.19	21283
898.311	21348
898.431	21401
898.552	21332
898.672	21344
898.792	21272
898.913	21264
899.033	21138
899.153	21237
899.273	20998
899.393	21203
899.513	21161
899.633	21100
899.753	21093
899.873	21017
899.993	21077
900.113	20986
900.232	21036
900.352	20971
900.472	20906
900.591	20815
900.711	20746
900.83	20765
900.95	20998
901.069	20982
901.189	20739
901.308	20396
901.427	20469
901.546	20511
901.665	20465
901.784	20343
901.904	20305
902.023	20256
902.141	20043
902.26	19928
902.379	20058
902.498	19955
902.617	19879
902.735	19925
902.854	19788
902.973	19807
903.091	19609
903.21	19552
903.328	19586
903.446	19499
903.565	19324
903.683	19415
903.801	19285
903.919	19400
904.038	19236
904.156	19160
904.274	19278
904.392	19095
904.51	19160
904.627	19129
904.745	19069
904.863	19209
904.981	18996
905.098	18924
905.216	18738
905.334	18806
905.451	18772
905.569	18829
905.686	18890
905.803	18776
905.921	18627
906.038	18745
906.155	18639
906.272	18437
906.389	18426
906.506	18384
906.623	18216
906.74	18258
906.857	18224
906.974	18186
907.091	18315
907.208	18452
907.324	18399
907.441	18220
907.557	18190
907.674	18102
907.79	18011
907.907	17969
908.023	18003
908.139	17950
908.256	17965
908.372	17904
908.488	17870
908.604	17710
908.72	17699
908.836	17836
908.952	17741
909.068	17680
909.184	17847
909.3	17756
909.415	17767
909.531	17741
909.647	17421
909.762	17512
909.878	17463
909.993	17467
910.108	17383
910.224	17372
910.339	17433
910.454	17326
910.57	17231
910.685	17200
910.8	17440
910.915	17444
911.03	17197
911.145	16938
911.259	17060
911.374	16961
911.489	16885
911.604	16774
911.718	16702
911.833	16816
911.947	16645
912.062	16592
912.176	16736
912.291	16748
912.405	16725
912.519	17022
912.633	16938
912.748	16763
912.862	16752
912.976	16596
913.09	16409
913.204	16489
913.318	16466
913.431	16603
913.545	16721
913.659	16634
913.772	16462
913.886	16436
914	16348
914.113	16413
914.226	16375
914.34	16390
914.453	16249
914.566	16405
914.68	16219
914.793	16105
914.906	16025
915.019	15899
915.132	15899
915.245	15907
915.358	15922
915.47	16010
915.583	15861
915.696	15899
915.809	16150
915.921	16048
916.034	15838
916.146	15873
916.259	15823
916.371	15907
916.483	15778
916.595	15819
916.708	15701
916.82	15728
916.932	15641
917.044	15690
917.156	15663
917.268	15523
917.38	15454
917.491	15545
917.603	15500
917.715	15530
917.826	15648
917.938	15523
918.049	15408
918.161	15462
918.272	15599
918.384	15599
918.495	15557
918.606	15408
918.717	15207
918.828	15302
918.939	15233
919.05	15127
919.161	15233
919.272	15077
919.383	15070
919.494	15367
919.604	15515
919.715	15207
919.826	15165
919.936	15264
920.047	15378
920.157	15123
920.267	15348
920.378	15306
920.488	15062
920.598	15420
920.708	15534
920.818	15348
920.928	15370
921.038	15504
921.148	15435
921.258	15093
921.368	15039
921.477	15001
921.587	14906
921.697	14895
921.806	14910
921.916	14925
922.025	14705
922.134	14648
922.244	14461
922.353	14655
922.462	14492
922.571	14324
922.68	14259
922.789	14164
922.898	14225
923.007	14199
923.116	14157
923.224	14225
923.333	14199
923.442	14012
923.55	14043
923.659	14020
923.767	14206
923.876	14027
923.984	14111
924.092	13970
924.201	13974
924.309	13909
924.417	13906
924.525	13913
924.633	13784
924.741	14792
924.849	13704
924.956	13849
925.064	13662
925.172	13597
925.279	13594
925.387	13540
925.494	13662
925.602	13822
925.709	13586
925.816	13460
925.924	13540
926.031	13658
926.138	13499
926.245	13567
926.352	13476
926.459	13590
926.566	13514
926.673	13419
926.779	13304
926.886	13274
926.993	13141
927.099	13179
927.206	13251
927.312	13057
927.419	13187
927.525	13114
927.631	13107
927.737	13042
927.843	13008
927.95	12856
928.056	12973
928.162	12920
928.267	12970
928.373	13525
928.479	13091
928.585	12741
928.69	12871
928.796	12951
928.901	12833
929.007	12684
929.112	12791
929.218	12798
929.323	12726
929.428	12627
929.533	12715
929.638	12544
929.743	12631
929.848	12620
929.953	12551
930.058	12437
930.163	12338
930.267	12342
930.372	12448
930.477	12262
930.581	12517
930.685	12395
930.79	12281
930.894	12220
930.998	12243
931.103	12319
931.207	11942
931.311	11916
931.415	11866
931.519	11532
931.623	11611
