Data from test_V78500241_2090.txt Node
Date: Fri Mar 25 15:56:16 CST 2022
User: usil
Spectrometer: V785-0024
Trigger mode: 0
Integration Time (sec): 4.000000E-1
Scans to average: 1
Nonlinearity correction enabled: false
Boxcar width: 0
Storing dark spectrum: false
XAxis mode: Wavelengths
Number of Pixels in Spectrum: 1024
>>>>>Begin Spectral Data<<<<<
801.071	28341
801.214	28219
801.356	27968
801.499	28070
801.641	27739
801.783	27819
801.926	27804
802.068	27759
802.211	27781
802.353	27739
802.496	27462
802.638	27511
802.78	27561
802.923	27397
803.065	27283
803.208	27359
803.35	27374
803.492	27587
803.635	27679
803.777	27519
803.919	27549
804.061	28040
804.204	27667
804.346	27656
804.488	27553
804.63	27720
804.773	27610
804.915	27762
805.057	27835
805.199	27679
805.341	27819
805.483	27793
805.626	27956
805.768	27717
805.91	27888
806.052	27907
806.194	27960
806.336	28021
806.478	27728
806.62	27774
806.762	27956
806.904	28093
807.046	28276
807.188	28276
807.33	28226
807.472	28371
807.614	28280
807.756	28246
807.898	28017
808.04	28101
808.182	28101
808.324	28173
808.465	28169
808.607	28329
808.749	28519
808.891	28618
809.033	28607
809.174	28607
809.316	28531
809.458	28531
809.6	28440
809.741	28649
809.883	28672
810.025	28736
810.166	28824
810.308	28729
810.45	28630
810.591	28584
810.733	28451
810.875	28519
811.016	28348
811.158	28390
811.299	28561
811.441	28729
811.582	28774
811.724	28459
811.865	28497
812.007	28432
812.148	28519
812.29	28584
812.431	28664
812.573	28797
812.714	28965
812.855	28961
812.997	29056
813.138	29220
813.279	29083
813.421	29044
813.562	28957
813.703	28942
813.845	28618
813.986	28398
814.127	28173
814.268	28101
814.41	28246
814.551	28143
814.692	28257
814.833	28029
814.974	28272
815.115	28280
815.256	28063
815.397	28048
815.539	28143
815.68	27991
815.821	28025
815.962	28109
816.103	27964
816.244	27926
816.385	27739
816.526	27690
816.666	27557
816.807	27454
816.948	27500
817.089	27561
817.23	27481
817.371	27431
817.512	27469
817.653	27515
817.793	27344
817.934	27420
818.075	27523
818.216	27374
818.356	27325
818.497	27268
818.638	27085
818.778	27100
818.919	27233
819.06	27249
819.2	27416
819.341	27595
819.481	27572
819.622	27572
819.762	27831
819.903	27663
820.043	27606
820.184	27534
820.324	27492
820.465	27762
820.605	27519
820.746	27511
820.886	27466
821.026	27610
821.167	27572
821.307	27534
821.447	27488
821.588	27329
821.728	27294
821.868	27081
822.008	26967
822.149	26967
822.289	26899
822.429	26804
822.569	26606
822.709	26526
822.849	26495
822.99	26507
823.13	26355
823.27	26408
823.41	26237
823.55	26278
823.69	26324
823.83	26278
823.97	26183
824.11	26145
824.25	26054
824.389	26126
824.529	26244
824.669	26153
824.809	26161
824.949	26172
825.089	26195
825.228	26012
825.368	25966
825.508	25837
825.648	25860
825.787	26100
825.927	26142
826.067	26035
826.206	26005
826.346	25978
826.485	26115
826.625	25959
826.765	26024
826.904	25970
827.044	25734
827.183	25719
827.323	25727
827.462	25818
827.601	25647
827.741	25567
827.88	25818
828.02	25502
828.159	25575
828.298	25643
828.437	25712
828.577	25502
828.716	25776
828.855	25647
828.994	25499
829.134	25362
829.273	25479
829.412	25282
829.551	25365
829.69	25369
829.829	25441
829.968	25415
830.107	25339
830.246	25384
830.385	25396
830.524	25320
830.663	25103
830.802	25065
830.941	24939
831.08	24916
831.219	25042
831.357	25069
831.496	25156
831.635	24977
831.774	24909
831.913	24833
832.051	24875
832.19	24688
832.329	24837
832.467	24768
832.606	24665
832.744	24658
832.883	24692
833.022	24601
833.16	24525
833.299	24696
833.437	24715
833.576	24783
833.714	24738
833.852	24719
833.991	24707
834.129	24623
834.267	24859
834.406	24833
834.544	24806
834.682	24627
834.821	24745
834.959	24817
835.097	24692
835.235	24837
835.373	24642
835.511	24604
835.65	24544
835.788	24582
835.926	24448
836.064	24426
836.202	24319
836.34	24604
836.478	24635
836.615	24483
836.753	24525
836.891	24464
837.029	24604
837.167	24479
837.305	24353
837.443	24327
837.58	24372
837.718	24505
837.856	24369
837.993	24441
838.131	24319
838.269	24232
838.406	24330
838.544	24213
838.681	24053
838.819	23942
838.956	23878
839.094	23767
839.231	23908
839.369	24110
839.506	24098
839.643	24003
839.781	23859
839.918	23726
840.055	23828
840.193	23775
840.33	23817
840.467	23691
840.604	23828
840.742	24167
840.879	23615
841.016	23699
841.153	23604
841.29	23779
841.427	23695
841.564	23676
841.701	23794
841.838	23756
841.975	23634
842.112	23619
842.249	23592
842.385	23429
842.522	23707
842.659	23482
842.796	23410
842.933	23490
843.069	23493
843.206	23463
843.343	23459
843.479	23406
843.616	23421
843.752	23292
843.889	23330
844.025	23467
844.162	23143
844.298	23360
844.435	23261
844.571	23292
844.708	23311
844.844	23410
844.98	23364
845.117	23414
845.253	23143
845.389	23079
845.525	23235
845.661	23143
845.798	23003
845.934	23010
846.07	23003
846.206	22946
846.342	23193
846.478	22885
846.614	22805
846.75	22565
846.886	22797
847.022	22930
847.158	22820
847.294	22733
847.429	22831
847.565	22748
847.701	23018
847.837	22557
847.972	22379
848.108	22542
848.244	22519
848.379	22413
848.515	22375
848.65	22238
848.786	22276
848.921	22371
849.057	22310
849.192	22314
849.328	22299
849.463	22310
849.598	22223
849.734	22173
849.869	22162
850.004	22230
850.14	22090
850.275	22082
850.41	22029
850.545	22036
850.68	22002
850.815	22010
850.95	22086
851.085	22352
851.22	22147
851.355	22013
851.49	22097
851.625	22013
851.76	22219
851.895	22063
852.03	21953
852.165	22013
852.299	22131
852.434	22185
852.569	22116
852.703	22078
852.838	22196
852.973	22124
853.107	22348
853.242	21998
853.376	21918
853.511	21819
853.645	21880
853.78	22048
853.914	21880
854.048	21865
854.183	21899
854.317	21972
854.451	22078
854.585	21994
854.72	21941
854.854	21857
854.988	21762
855.122	21838
855.256	21842
855.39	21838
855.524	22078
855.658	22036
855.792	21964
855.926	21922
856.06	21979
856.194	21964
856.327	21854
856.461	21857
856.595	21895
856.729	21987
856.862	22006
856.996	21884
857.13	21991
857.263	21979
857.397	21972
857.53	22002
857.664	21854
857.797	21953
857.931	22010
858.064	21907
858.197	21991
858.331	21857
858.464	21842
858.597	21800
858.731	21819
858.864	21808
858.997	21968
859.13	21850
859.263	22006
859.396	21922
859.529	21835
859.662	21850
859.795	21812
859.928	21831
860.061	21953
860.194	22139
860.327	21930
860.46	22021
860.592	21987
860.725	22021
860.858	21945
860.99	21838
861.123	21850
861.256	21755
861.388	21888
861.521	22580
861.653	21720
861.786	21663
861.918	21618
862.05	21724
862.183	21915
862.315	21873
862.447	21888
862.58	21842
862.712	21568
862.844	21477
862.976	21614
863.108	21667
863.24	22078
863.372	21557
863.504	21648
863.636	21603
863.768	21553
863.9	21481
864.032	21625
864.164	21481
864.296	21717
864.428	21751
864.559	21682
864.691	21671
864.823	21595
864.954	21644
865.086	21637
865.217	21485
865.349	21488
865.48	21519
865.612	21523
865.743	21667
865.875	21469
866.006	21534
866.137	21496
866.269	21477
866.4	21431
866.531	21340
866.662	21450
866.793	21439
866.924	21428
867.055	21386
867.186	21386
867.317	21329
867.448	21211
867.579	21336
867.71	21363
867.841	21321
867.972	21469
868.103	21363
868.233	21302
868.364	21549
868.495	21549
868.625	21663
868.756	21732
868.886	21553
869.017	21663
869.147	21865
869.278	21770
869.408	21656
869.539	21667
869.669	21789
869.799	21690
869.929	21808
870.06	21846
870.19	21922
870.32	21949
870.45	21998
870.58	22082
870.71	22078
870.84	22185
870.97	22116
871.1	22105
871.23	22303
871.36	22177
871.489	22196
871.619	22242
871.749	22246
871.879	22299
872.008	22226
872.138	22181
872.267	22268
872.397	22120
872.526	22101
872.656	22120
872.785	22086
872.915	22428
873.044	22341
873.173	22379
873.303	22272
873.432	22348
873.561	22375
873.69	22402
873.819	22238
873.948	22276
874.077	22284
874.206	22196
874.335	22219
874.464	22379
874.593	22325
874.722	22497
874.851	22447
874.979	22573
875.108	22577
875.237	22550
875.365	22382
875.494	22466
875.623	22653
875.751	22436
875.88	22527
876.008	22668
876.136	22672
876.265	22805
876.393	23083
876.521	22942
876.65	22968
876.778	22900
876.906	22889
877.034	22755
877.162	22812
877.29	22771
877.418	22828
877.546	22949
877.674	22843
877.802	22896
877.93	22896
878.058	22816
878.185	22649
878.313	22847
878.441	22866
878.568	22744
878.696	22740
878.824	22911
878.951	23018
879.079	23029
879.206	23098
879.333	22984
879.461	22790
879.588	22953
879.715	23022
879.842	23109
879.97	22915
880.097	22744
880.224	22698
880.351	22584
880.478	22774
880.605	22634
880.732	22645
880.859	22858
880.986	22626
881.112	22740
881.239	22497
881.366	22352
881.493	22188
881.619	22303
881.746	22291
881.872	22147
881.999	22177
882.125	22261
882.252	22268
882.378	22280
882.505	22249
882.631	22124
882.757	22025
882.883	22070
883.01	21892
883.136	21857
883.262	21842
883.388	21739
883.514	21869
883.64	22017
883.766	21865
883.892	21759
884.018	21884
884.143	21880
884.269	21983
884.395	21629
884.52	21564
884.646	21694
884.772	21386
884.897	21492
885.023	21618
885.148	21781
885.274	21739
885.399	21785
885.524	21583
885.65	21469
885.775	21583
885.9	21595
886.025	21671
886.15	21701
886.275	21519
886.4	21667
886.525	21587
886.65	21428
886.775	21469
886.9	21580
887.025	21774
887.149	21511
887.274	21340
887.399	21378
887.523	21389
887.648	21222
887.773	21066
887.897	21439
888.021	21378
888.146	21233
888.27	21420
888.395	21393
888.519	21389
888.643	21348
888.767	21408
888.891	21203
889.015	21157
889.139	21195
889.263	21108
889.387	21317
889.511	21351
889.635	21272
889.759	21039
889.883	21028
890.006	21096
890.13	21233
890.254	21017
890.377	21081
890.501	20952
890.624	20834
890.748	20857
890.871	20842
890.995	20594
891.118	20621
891.241	20594
891.364	20800
891.488	20899
891.611	20750
891.734	20724
891.857	20773
891.98	20720
892.103	20792
892.226	20785
892.349	20731
892.471	20450
892.594	20545
892.717	20617
892.839	20541
892.962	20606
893.085	20552
893.207	20613
893.33	20495
893.452	20454
893.575	20629
893.697	20492
893.819	20712
893.941	20644
894.064	20632
894.186	20552
894.308	20522
894.43	20579
894.552	20765
894.674	20587
894.796	20457
894.918	20473
895.04	20583
895.161	20621
895.283	20625
895.405	20469
895.526	20415
895.648	20507
895.769	20621
895.891	20583
896.012	20689
896.134	20629
896.255	20549
896.376	20484
896.498	20560
896.619	20602
896.74	20602
896.861	20659
896.982	20857
897.103	21005
897.224	20735
897.345	20682
897.466	20754
897.587	20750
897.708	20998
897.828	20792
897.949	20689
898.07	20587
898.19	20670
898.311	20819
898.431	20686
898.552	20807
898.672	20754
898.792	20773
898.913	20880
899.033	20743
899.153	20613
899.273	20427
899.393	20476
899.513	20522
899.633	20526
899.753	20511
899.873	20461
899.993	20549
900.113	20476
900.232	20492
900.352	20393
900.472	20415
900.591	20313
900.711	20347
900.83	20305
900.95	20507
901.069	20393
901.189	20126
901.308	20027
901.427	19772
901.546	19837
901.665	19917
901.784	19837
901.904	19795
902.023	19632
902.141	19460
902.26	19263
902.379	19499
902.498	19419
902.617	19316
902.735	19464
902.854	19350
902.973	19285
903.091	19137
903.21	18977
903.328	19103
903.446	18928
903.565	18867
903.683	18848
903.801	18741
903.919	18673
904.038	18738
904.156	18623
904.274	18681
904.392	18521
904.51	18521
904.627	18555
904.745	18677
904.863	18650
904.981	18304
905.098	18361
905.216	18182
905.334	18361
905.451	18323
905.569	18254
905.686	18308
905.803	18251
905.921	17958
906.038	18083
906.155	18133
906.272	17973
906.389	17992
906.506	17878
906.623	17836
906.74	17859
906.857	17798
906.974	17775
907.091	17855
907.208	17920
907.324	17840
907.441	17657
907.557	17509
907.674	17516
907.79	17486
907.907	17509
908.023	17493
908.139	17615
908.256	17440
908.372	17372
908.488	17398
908.604	17341
908.72	17109
908.836	17235
908.952	17299
909.068	17337
909.184	17235
909.3	17265
909.415	17250
909.531	17212
909.647	16908
909.762	16927
909.878	16957
909.993	16824
910.108	17018
910.224	16938
910.339	16869
910.454	16850
910.57	16622
910.685	16721
910.8	16904
910.915	16900
911.03	16725
911.145	16512
911.259	16424
911.374	16546
911.489	16512
911.604	16436
911.718	16242
911.833	16417
911.947	16226
912.062	16169
912.176	16272
912.291	16246
912.405	16272
912.519	16413
912.633	16516
912.748	16257
912.862	16207
912.976	16090
913.09	16124
913.204	16002
913.318	16097
913.431	16086
913.545	16109
913.659	16166
913.772	16067
913.886	15911
914	15835
914.113	15911
914.226	16051
914.34	15983
914.453	15739
914.566	15857
914.68	15854
914.793	15743
914.906	15545
915.019	15500
915.132	15431
915.245	15397
915.358	15561
915.47	15447
915.583	15530
915.696	15469
915.809	15576
915.921	15675
916.034	15397
916.146	15401
916.259	15264
916.371	15447
916.483	15462
916.595	15306
916.708	15214
916.82	15310
916.932	15302
917.044	15275
917.156	15283
917.268	15108
917.38	15169
917.491	15154
917.603	15192
917.715	15104
917.826	15165
917.938	15085
918.049	15001
918.161	15077
918.272	15180
918.384	15123
918.495	15097
918.606	14880
918.717	14861
918.828	14899
918.939	14921
919.05	14796
919.161	14819
919.272	14720
919.383	14724
919.494	14777
919.604	15032
919.715	14777
919.826	14731
919.936	14849
920.047	14830
920.157	14792
920.267	15089
920.378	14876
920.488	14754
920.598	15085
920.708	15074
920.818	14937
920.928	14944
921.038	15062
921.148	15070
921.258	14807
921.368	14659
921.477	14492
921.587	14518
921.697	14385
921.806	14571
921.916	14362
922.025	14267
922.134	14195
922.244	14100
922.353	14294
922.462	14077
922.571	13959
922.68	13769
922.789	13784
922.898	13784
923.007	13845
923.116	13845
923.224	13902
923.333	13795
923.442	13658
923.55	13620
923.659	13685
923.767	13704
923.876	13643
923.984	13776
924.092	13575
924.201	13609
924.309	13655
924.417	13601
924.525	13544
924.633	13476
924.741	14404
924.849	13293
924.956	13499
925.064	13244
925.172	13209
925.279	13213
925.387	13331
925.494	13168
925.602	13362
925.709	13278
925.816	13088
925.924	13206
926.031	13259
926.138	13156
926.245	13118
926.352	13088
926.459	13171
926.566	13202
926.673	13137
926.779	13004
926.886	12966
926.993	12814
927.099	12821
927.206	12745
927.312	12738
927.419	12703
927.525	12795
927.631	12757
927.737	12696
927.843	12608
927.95	12452
928.056	12658
928.162	12536
928.267	12635
928.373	13251
928.479	12654
928.585	12414
928.69	12608
928.796	12620
928.901	12471
929.007	12338
929.112	12456
929.218	12475
929.323	12224
929.428	12369
929.533	12464
929.638	12273
929.743	12277
929.848	12292
929.953	12232
930.058	12186
930.163	11980
930.267	12034
930.372	12178
930.477	11923
930.581	12121
930.685	12064
930.79	11908
930.894	11855
930.998	11836
931.103	11946
931.207	11638
931.311	11463
931.415	11436
931.519	11220
931.623	11288
