Data from test_V78500241_2903.txt Node
Date: Fri Mar 25 16:01:54 CST 2022
User: usil
Spectrometer: V785-0024
Trigger mode: 0
Integration Time (sec): 4.000000E-1
Scans to average: 1
Nonlinearity correction enabled: false
Boxcar width: 0
Storing dark spectrum: false
XAxis mode: Wavelengths
Number of Pixels in Spectrum: 1024
>>>>>Begin Spectral Data<<<<<
801.071	28767
801.214	28854
801.356	28523
801.499	28577
801.641	28318
801.783	28352
801.926	28588
802.068	28344
802.211	28386
802.353	28337
802.496	28188
802.638	28097
802.78	28059
802.923	28090
803.065	27968
803.208	28097
803.35	28021
803.492	28207
803.635	28455
803.777	28318
803.919	28386
804.061	28702
804.204	28497
804.346	28371
804.488	28333
804.63	28443
804.773	28318
804.915	28497
805.057	28462
805.199	28325
805.341	28390
805.483	28481
805.626	28500
805.768	28500
805.91	28516
806.052	28577
806.194	28462
806.336	28611
806.478	28634
806.62	28592
806.762	28675
806.904	28911
807.046	29022
807.188	29014
807.33	28908
807.472	29056
807.614	28976
807.756	28938
807.898	28786
808.04	28702
808.182	28801
808.324	28946
808.465	28953
808.607	29075
808.749	29341
808.891	29299
809.033	29478
809.174	29220
809.316	29265
809.458	29284
809.6	29113
809.741	29296
809.883	29391
810.025	29558
810.166	29448
810.308	29642
810.45	29379
810.591	29554
810.733	29353
810.875	29231
811.016	29147
811.158	29231
811.299	29284
811.441	29486
811.582	29349
811.724	29277
811.865	29212
812.007	29261
812.148	29235
812.29	29341
812.431	29398
812.573	29649
812.714	29733
812.855	29672
812.997	29931
813.138	30018
813.279	29832
813.421	29847
813.562	29802
813.703	29570
813.845	29497
813.986	29334
814.127	29064
814.268	29075
814.41	28976
814.551	28866
814.692	29136
814.833	28908
814.974	28934
815.115	28927
815.256	28934
815.397	28744
815.539	28816
815.68	28759
815.821	28759
815.962	28736
816.103	28664
816.244	28748
816.385	28622
816.526	28592
816.666	28424
816.807	28295
816.948	28367
817.089	28421
817.23	28249
817.371	28284
817.512	28363
817.653	28329
817.793	28029
817.934	28200
818.075	28341
818.216	28219
818.356	28299
818.497	28223
818.638	28013
818.778	28116
818.919	28074
819.06	28124
819.2	28147
819.341	28367
819.481	28207
819.622	28523
819.762	28736
819.903	28672
820.043	28443
820.184	28291
820.324	28314
820.465	28459
820.605	28413
820.746	28367
820.886	28261
821.026	28504
821.167	28428
821.307	28561
821.447	28314
821.588	28337
821.728	28082
821.868	27865
822.008	27968
822.149	27800
822.289	27800
822.429	27553
822.569	27485
822.709	27435
822.849	27203
822.99	27363
823.13	27180
823.27	27336
823.41	27211
823.55	27058
823.69	27226
823.83	27062
823.97	27055
824.11	26998
824.25	26925
824.389	26967
824.529	26933
824.669	26952
824.809	27032
824.949	27005
825.089	27028
825.228	26937
825.368	26842
825.508	26811
825.648	26944
825.787	26876
825.927	26853
826.067	26724
826.206	26830
826.346	26777
826.485	27005
826.625	26788
826.765	26853
826.904	26982
827.044	26526
827.183	26606
827.323	26526
827.462	26670
827.601	26522
827.741	26526
827.88	26629
828.02	26541
828.159	26686
828.298	26708
828.437	26583
828.577	26541
828.716	26636
828.855	26423
828.994	26157
829.134	26282
829.273	26339
829.412	26252
829.551	26256
829.69	26278
829.829	26301
829.968	26206
830.107	26218
830.246	26248
830.385	26157
830.524	26214
830.663	26100
830.802	25940
830.941	25719
831.08	25845
831.219	25860
831.357	25871
831.496	26054
831.635	25944
831.774	25849
831.913	25731
832.051	25693
832.19	25601
832.329	25677
832.467	25449
832.606	25487
832.744	25426
832.883	25502
833.022	25521
833.16	25438
833.299	25742
833.437	25556
833.576	25601
833.714	25563
833.852	25578
833.991	25738
834.129	25769
834.267	25681
834.406	25601
834.544	25578
834.682	25510
834.821	25537
834.959	25757
835.097	25537
835.235	25620
835.373	25529
835.511	25499
835.65	25521
835.788	25495
835.926	25373
836.064	25282
836.202	25194
836.34	25430
836.478	25510
836.615	25438
836.753	25407
836.891	25479
837.029	25419
837.167	25373
837.305	25263
837.443	25327
837.58	25278
837.718	25339
837.856	25293
837.993	25282
838.131	25187
838.269	25061
838.406	25072
838.544	25213
838.681	24878
838.819	24837
838.956	24627
839.094	24620
839.231	24661
839.369	24772
839.506	25065
839.643	24924
839.781	24745
839.918	24783
840.055	24760
840.193	24616
840.33	24589
840.467	24566
840.604	24646
840.742	24894
840.879	24544
841.016	24513
841.153	24372
841.29	24681
841.427	24601
841.564	24578
841.701	24612
841.838	24544
841.975	24407
842.112	24456
842.249	24308
842.385	24311
842.522	24658
842.659	24376
842.796	24380
842.933	24220
843.069	24262
843.206	24365
843.343	24357
843.479	24407
843.616	24220
843.752	24148
843.889	24273
844.025	24277
844.162	24102
844.298	24300
844.435	24114
844.571	23999
844.708	24106
844.844	24292
844.98	24327
845.117	24148
845.253	23980
845.389	23916
845.525	24102
845.661	23973
845.798	23779
845.934	23965
846.07	23851
846.206	23855
846.342	23889
846.478	23851
846.614	23638
846.75	23444
846.886	23573
847.022	23524
847.158	23509
847.294	23566
847.429	23596
847.565	23657
847.701	23904
847.837	23330
847.972	23231
848.108	23353
848.244	23372
848.379	23132
848.515	23128
848.65	23117
848.786	23258
848.921	23128
849.057	23299
849.192	23239
849.328	23200
849.463	23151
849.598	23094
849.734	23098
849.869	23029
850.004	22946
850.14	23048
850.275	22881
850.41	22896
850.545	22911
850.68	22999
850.815	22980
850.95	22938
851.085	23124
851.22	23033
851.355	22976
851.49	22934
851.625	22892
851.76	23052
851.895	22957
852.03	22854
852.165	22942
852.299	22927
852.434	22987
852.569	23071
852.703	22934
852.838	23037
852.973	23067
853.107	22995
853.242	22908
853.376	22717
853.511	22702
853.645	22618
853.78	22835
853.914	22771
854.048	22786
854.183	22713
854.317	22767
854.451	22892
854.585	22675
854.72	22850
854.854	22850
854.988	22778
855.122	22820
855.256	22592
855.39	22622
855.524	22896
855.658	22774
855.792	22622
855.926	22656
856.06	22752
856.194	22854
856.327	22797
856.461	22691
856.595	22725
856.729	22713
856.862	22957
856.996	22759
857.13	22820
857.263	22927
857.397	22847
857.53	22717
857.664	22885
857.797	22713
857.931	22869
858.064	22793
858.197	22790
858.331	22660
858.464	22618
858.597	22634
858.731	22767
858.864	22725
858.997	22755
859.13	22717
859.263	22748
859.396	22885
859.529	22691
859.662	22569
859.795	22615
859.928	22611
860.061	22881
860.194	22831
860.327	22809
860.46	22797
860.592	22942
860.725	22938
860.858	22987
860.99	22816
861.123	22687
861.256	22717
861.388	22679
861.521	23452
861.653	22561
861.786	22626
861.918	22550
862.05	22717
862.183	22702
862.315	22611
862.447	22771
862.58	22702
862.712	22402
862.844	22352
862.976	22504
863.108	22611
863.24	22831
863.372	22440
863.504	22455
863.636	22363
863.768	22443
863.9	22382
864.032	22474
864.164	22417
864.296	22592
864.428	22554
864.559	22516
864.691	22611
864.823	22478
864.954	22428
865.086	22329
865.217	22379
865.349	22196
865.48	22440
865.612	22348
865.743	22519
865.875	22318
866.006	22348
866.137	22394
866.269	22234
866.4	22375
866.531	22329
866.662	22181
866.793	22318
866.924	22207
867.055	22303
867.186	22363
867.317	22169
867.448	22234
867.579	22379
867.71	22181
867.841	22234
867.972	22310
868.103	22207
868.233	22360
868.364	22150
868.495	22398
868.625	22417
868.756	22584
868.886	22451
869.017	22542
869.147	22538
869.278	22634
869.408	22443
869.539	22523
869.669	22538
869.799	22599
869.929	22713
870.06	22516
870.19	22782
870.32	22767
870.45	22866
870.58	22866
870.71	22995
870.84	22942
870.97	22885
871.1	22812
871.23	23037
871.36	22949
871.489	23083
871.619	23136
871.749	23079
871.879	23041
872.008	23204
872.138	23113
872.267	23006
872.397	22984
872.526	23037
872.656	22824
872.785	22942
872.915	23113
873.044	23200
873.173	23220
873.303	23193
873.432	23273
873.561	23181
873.69	23117
873.819	23098
873.948	23303
874.077	23113
874.206	23044
874.335	23010
874.464	23124
874.593	23326
874.722	23436
874.851	23379
874.979	23345
875.108	23353
875.237	23292
875.365	23204
875.494	23341
875.623	23395
875.751	23231
875.88	23372
876.008	23395
876.136	23440
876.265	23634
876.393	23767
876.521	23756
876.65	23889
876.778	23592
876.906	23630
877.034	23634
877.162	23566
877.29	23661
877.418	23695
877.546	23608
877.674	23756
877.802	23524
877.93	23581
878.058	23604
878.185	23440
878.313	23589
878.441	23604
878.568	23562
878.696	23691
878.824	23794
878.951	23707
879.079	23798
879.206	23954
879.333	23798
879.461	23722
879.588	23668
879.715	23821
879.842	24022
879.97	23878
880.097	23410
880.224	23471
880.351	23410
880.478	23528
880.605	23547
880.732	23604
880.859	23695
880.986	23478
881.112	23551
881.239	23280
881.366	23105
881.493	23143
881.619	23083
881.746	22957
881.872	23140
881.999	23037
882.125	22908
882.252	23109
882.378	22961
882.505	23113
882.631	22873
882.757	22767
882.883	22820
883.01	22778
883.136	22675
883.262	22645
883.388	22489
883.514	22596
883.64	22850
883.766	22615
883.892	22500
884.018	22546
884.143	22580
884.269	22535
884.395	22440
884.52	22280
884.646	22341
884.772	22253
884.897	22238
885.023	22417
885.148	22367
885.274	22584
885.399	22436
885.524	22402
885.65	22337
885.775	22363
885.9	22398
886.025	22428
886.15	22417
886.275	22325
886.4	22303
886.525	22287
886.65	22325
886.775	22185
886.9	22493
887.025	22637
887.149	22215
887.274	22116
887.399	21998
887.523	22082
887.648	22078
887.773	22002
887.897	22177
888.021	22173
888.146	22044
888.27	22188
888.395	22177
888.519	22078
888.643	22090
888.767	22090
888.891	21964
889.015	21953
889.139	21998
889.263	21941
889.387	22036
889.511	22166
889.635	22048
889.759	21831
889.883	21861
890.006	21968
890.13	22006
890.254	21720
890.377	21918
890.501	21622
890.624	21660
890.748	21778
890.871	21610
890.995	21519
891.118	21443
891.241	21424
891.364	21450
891.488	21534
891.611	21500
891.734	21462
891.857	21507
891.98	21477
892.103	21450
892.226	21344
892.349	21447
892.471	21211
892.594	21351
892.717	21291
892.839	21245
892.962	21363
893.085	21241
893.207	21283
893.33	21157
893.452	21268
893.575	21272
893.697	21306
893.819	21424
893.941	21564
894.064	21397
894.186	21233
894.308	21165
894.43	21412
894.552	21477
894.674	21412
894.796	21146
894.918	21325
895.04	21294
895.161	21374
895.283	21374
895.405	21203
895.526	21252
895.648	21275
895.769	21329
895.891	21260
896.012	21348
896.134	21317
896.255	21245
896.376	21211
896.498	21157
896.619	21310
896.74	21367
896.861	21310
896.982	21515
897.103	21766
897.224	21515
897.345	21462
897.466	21313
897.587	21416
897.708	21625
897.828	21564
897.949	21408
898.07	21431
898.19	21401
898.311	21549
898.431	21359
898.552	21504
898.672	21534
898.792	21652
898.913	21359
899.033	21363
899.153	21317
899.273	21211
899.393	21089
899.513	21287
899.633	21157
899.753	21260
899.873	21119
899.993	21230
900.113	21154
900.232	21237
900.352	21142
900.472	21055
900.591	20941
900.711	20982
900.83	20994
900.95	20975
901.069	20967
901.189	20902
901.308	20648
901.427	20530
901.546	20587
901.665	20533
901.784	20530
901.904	20415
902.023	20381
902.141	20237
902.26	20073
902.379	20187
902.498	20024
902.617	20065
902.735	20111
902.854	20043
902.973	19887
903.091	19746
903.21	19609
903.328	19674
903.446	19563
903.565	19552
903.683	19594
903.801	19362
903.919	19388
904.038	19384
904.156	19251
904.274	19304
904.392	19221
904.51	19266
904.627	19198
904.745	19217
904.863	19365
904.981	18996
905.098	18897
905.216	18905
905.334	18890
905.451	18840
905.569	18833
905.686	18977
905.803	18859
905.921	18738
906.038	18890
906.155	18688
906.272	18669
906.389	18559
906.506	18513
906.623	18494
906.74	18357
906.857	18384
906.974	18289
907.091	18555
907.208	18418
907.324	18509
907.441	18353
907.557	18129
907.674	18178
907.79	18174
907.907	18102
908.023	18194
908.139	18148
908.256	18079
908.372	18022
908.488	18019
908.604	17897
908.72	17893
908.836	17878
908.952	17870
909.068	17885
909.184	17961
909.3	17882
909.415	17893
909.531	17866
909.647	17627
909.762	17516
909.878	17509
909.993	17615
910.108	17543
910.224	17505
910.339	17509
910.454	17387
910.57	17391
910.685	17258
910.8	17665
910.915	17585
911.03	17425
911.145	17128
911.259	17159
911.374	17197
911.489	16980
911.604	17014
911.718	16927
911.833	16908
911.947	16702
912.062	16721
912.176	16752
912.291	16862
912.405	16801
912.519	17170
912.633	17052
912.748	16923
912.862	16839
912.976	16637
913.09	16599
913.204	16698
913.318	16755
913.431	16706
913.545	16763
913.659	16683
913.772	16607
913.886	16459
914	16459
914.113	16523
914.226	16561
914.34	16459
914.453	16280
914.566	16550
914.68	16375
914.793	16284
914.906	16078
915.019	16097
915.132	16021
915.245	16002
915.358	16032
915.47	16048
915.583	16032
915.696	15987
915.809	16055
915.921	16090
916.034	15975
916.146	15926
916.259	15941
916.371	16101
916.483	15907
916.595	15785
916.708	15895
916.82	15888
916.932	15873
917.044	15675
917.156	15724
917.268	15755
917.38	15663
917.491	15606
917.603	15709
917.715	15835
917.826	15728
917.938	15629
918.049	15526
918.161	15614
918.272	15705
918.384	15694
918.495	15610
918.606	15488
918.717	15321
918.828	15488
918.939	15492
919.05	15336
919.161	15306
919.272	15199
919.383	15321
919.494	15393
919.604	15523
919.715	15397
919.826	15249
919.936	15370
920.047	15431
920.157	15336
920.267	15542
920.378	15397
920.488	15306
920.598	15412
920.708	15587
920.818	15397
920.928	15458
921.038	15709
921.148	15572
921.258	15329
921.368	15199
921.477	15112
921.587	14944
921.697	14963
921.806	14986
921.916	14868
922.025	14701
922.134	14724
922.244	14670
922.353	14621
922.462	14549
922.571	14533
922.68	14355
922.789	14396
922.898	14381
923.007	14332
923.116	14355
923.224	14355
923.333	14309
923.442	14229
923.55	14119
923.659	14164
923.767	14214
923.876	14088
923.984	14183
924.092	14107
924.201	14084
924.309	14035
924.417	13921
924.525	13883
924.633	13921
924.741	14891
924.849	13780
924.956	13925
925.064	13795
925.172	13662
925.279	13609
925.387	13746
925.494	13761
925.602	13761
925.709	13685
925.816	13628
925.924	13696
926.031	13731
926.138	13620
926.245	13681
926.352	13434
926.459	13670
926.566	13693
926.673	13609
926.779	13472
926.886	13457
926.993	13320
927.099	13365
927.206	13149
927.312	13209
927.419	13259
927.525	13202
927.631	13206
927.737	13149
927.843	13031
927.95	12894
928.056	13012
928.162	12970
928.267	13129
928.373	13666
928.479	13194
928.585	12916
928.69	13027
928.796	13027
928.901	12928
929.007	12840
929.112	12913
929.218	12909
929.323	12768
929.428	12779
929.533	12871
929.638	12662
929.743	12798
929.848	12772
929.953	12665
930.058	12654
930.163	12452
930.267	12414
930.372	12460
930.477	12399
930.581	12627
930.685	12403
930.79	12277
930.894	12311
930.998	12277
931.103	12414
931.207	12068
931.311	11942
931.415	11897
931.519	11672
931.623	11729
