Data from test_V78500241_50.txt Node
Date: Fri Mar 25 15:42:08 CST 2022
User: usil
Spectrometer: V785-0024
Trigger mode: 0
Integration Time (sec): 4.000000E-1
Scans to average: 1
Nonlinearity correction enabled: false
Boxcar width: 0
Storing dark spectrum: false
XAxis mode: Wavelengths
Number of Pixels in Spectrum: 1024
>>>>>Begin Spectral Data<<<<<
801.071	29512
801.214	29315
801.356	29170
801.499	29006
801.641	28946
801.783	28847
801.926	28888
802.068	28927
802.211	28698
802.353	28672
802.496	28462
802.638	28634
802.78	28394
802.923	28481
803.065	28421
803.208	28382
803.35	28588
803.492	28588
803.635	28538
803.777	28341
803.919	28668
804.061	28919
804.204	28679
804.346	28713
804.488	28535
804.63	28440
804.773	28497
804.915	28596
805.057	28702
805.199	28497
805.341	28573
805.483	28824
805.626	28721
805.768	28561
805.91	28626
806.052	28710
806.194	28618
806.336	28904
806.478	28843
806.62	28721
806.762	28812
806.904	28949
807.046	29299
807.188	29094
807.33	29086
807.472	29075
807.614	29105
807.756	29086
807.898	28843
808.04	28869
808.182	28748
808.324	28915
808.465	28774
808.607	28987
808.749	29143
808.891	29212
809.033	29239
809.174	29322
809.316	29121
809.458	29174
809.6	29155
809.741	29185
809.883	29242
810.025	29417
810.166	29368
810.308	29383
810.45	29414
810.591	29372
810.733	29193
810.875	29128
811.016	29067
811.158	29029
811.299	29132
811.441	29239
811.582	29250
811.724	29098
811.865	29113
812.007	29178
812.148	29181
812.29	29029
812.431	29208
812.573	29375
812.714	29402
812.855	29707
812.997	29737
813.138	29809
813.279	29714
813.421	29604
813.562	29539
813.703	29398
813.845	29189
813.986	28995
814.127	28839
814.268	28729
814.41	28744
814.551	28736
814.692	28805
814.833	28702
814.974	28744
815.115	28596
815.256	28573
815.397	28592
815.539	28497
815.68	28428
815.821	28268
815.962	28417
816.103	28371
816.244	28325
816.385	28261
816.526	28086
816.666	27884
816.807	27816
816.948	27884
817.089	28021
817.23	27911
817.371	27838
817.512	27857
817.653	27759
817.793	27644
817.934	27747
818.075	27816
818.216	27629
818.356	27690
818.497	27648
818.638	27511
818.778	27473
818.919	27519
819.06	27473
819.2	27637
819.341	27724
819.481	27599
819.622	27842
819.762	28112
819.903	27850
820.043	27804
820.184	27736
820.324	27717
820.465	27968
820.605	27747
820.746	27701
820.886	27523
821.026	27751
821.167	27781
821.307	27717
821.447	27675
821.588	27435
821.728	27401
821.868	27279
822.008	27245
822.149	27123
822.289	26998
822.429	26724
822.569	26857
822.709	26689
822.849	26648
822.99	26545
823.13	26663
823.27	26469
823.41	26374
823.55	26214
823.69	26457
823.83	26419
823.97	26233
824.11	26016
824.25	26088
824.389	26096
824.529	26187
824.669	26005
824.809	26244
824.949	26214
825.089	26240
825.228	26111
825.368	25849
825.508	25936
825.648	25898
825.787	25928
825.927	26012
826.067	25875
826.206	25879
826.346	25940
826.485	25974
826.625	25841
826.765	26031
826.904	25928
827.044	25746
827.183	25700
827.323	25460
827.462	25734
827.601	25571
827.741	25666
827.88	25502
828.02	25464
828.159	25662
828.298	25571
828.437	25651
828.577	25537
828.716	25483
828.855	25544
828.994	25304
829.134	25289
829.273	25270
829.412	25266
829.551	25114
829.69	25282
829.829	25232
829.968	25225
830.107	25259
830.246	25430
830.385	25107
830.524	24924
830.663	25065
830.802	25000
830.941	24817
831.08	24833
831.219	24894
831.357	24787
831.496	24996
831.635	24783
831.774	24715
831.913	24711
832.051	24490
832.19	24505
832.329	24597
832.467	24498
832.606	24365
832.744	24273
832.883	24380
833.022	24350
833.16	24338
833.299	24407
833.437	24311
833.576	24445
833.714	24414
833.852	24422
833.991	24357
834.129	24536
834.267	24407
834.406	24369
834.544	24426
834.682	24334
834.821	24338
834.959	24601
835.097	24410
835.235	24528
835.373	24296
835.511	24338
835.65	24235
835.788	24178
835.926	24174
836.064	24091
836.202	24091
836.34	24186
836.478	24285
836.615	24201
836.753	24133
836.891	24228
837.029	24213
837.167	24114
837.305	24201
837.443	24102
837.58	23889
837.718	24095
837.856	24015
837.993	23897
838.131	23939
838.269	23802
838.406	24049
838.544	23805
838.681	23703
838.819	23471
838.956	23478
839.094	23562
839.231	23337
839.369	23630
839.506	23870
839.643	23760
839.781	23391
839.918	23159
840.055	23379
840.193	23433
840.33	23235
840.467	23242
840.604	23265
840.742	23478
840.879	23052
841.016	23250
841.153	23117
841.29	23311
841.427	23387
841.564	23326
841.701	23318
841.838	23170
841.975	23124
842.112	23242
842.249	23140
842.385	22976
842.522	23128
842.659	23094
842.796	22828
842.933	23075
843.069	22930
843.206	22847
843.343	23022
843.479	22915
843.616	22984
843.752	22649
843.889	22691
844.025	22778
844.162	22649
844.298	22854
844.435	22691
844.571	22615
844.708	22694
844.844	22953
844.98	22786
845.117	22824
845.253	22569
845.389	22634
845.525	22573
845.661	22611
845.798	22413
845.934	22455
846.07	22379
846.206	22455
846.342	22531
846.478	22436
846.614	22249
846.75	22116
846.886	22150
847.022	22143
847.158	22166
847.294	22116
847.429	22207
847.565	22086
847.701	22348
847.837	21873
847.972	21819
848.108	21926
848.244	21865
848.379	21637
848.515	21717
848.65	21652
848.786	21599
848.921	21603
849.057	21709
849.192	21622
849.328	21778
849.463	21728
849.598	21610
849.734	21614
849.869	21412
850.004	21367
850.14	21428
850.275	21367
850.41	21306
850.545	21428
850.68	21435
850.815	21302
850.95	21355
851.085	21507
851.22	21397
851.355	21389
851.49	21348
851.625	21306
851.76	21287
851.895	21207
852.03	21291
852.165	21298
852.299	21386
852.434	21386
852.569	21496
852.703	21397
852.838	21325
852.973	21496
853.107	21492
853.242	21389
853.376	21294
853.511	21051
853.645	20979
853.78	21272
853.914	21226
854.048	21009
854.183	21176
854.317	21188
854.451	21268
854.585	21142
854.72	21119
854.854	21313
854.988	21017
855.122	21165
855.256	21013
855.39	21043
855.524	21302
855.658	21127
855.792	21142
855.926	21195
856.06	21192
856.194	21260
856.327	21070
856.461	21036
856.595	21028
856.729	21100
856.862	21199
856.996	21184
857.13	21222
857.263	21275
857.397	21169
857.53	21127
857.664	21070
857.797	21116
857.931	21214
858.064	21116
858.197	21184
858.331	21089
858.464	20994
858.597	21009
858.731	21123
858.864	20925
858.997	20998
859.13	20986
859.263	21020
859.396	21180
859.529	21013
859.662	21119
859.795	20937
859.928	21085
860.061	21256
860.194	21294
860.327	21093
860.46	21180
860.592	21146
860.725	21184
860.858	21085
860.99	21093
861.123	21028
861.256	20914
861.388	20937
861.521	21568
861.653	20914
861.786	20948
861.918	20872
862.05	20982
862.183	21036
862.315	21161
862.447	21100
862.58	21112
862.712	20811
862.844	20621
862.976	20765
863.108	20921
863.24	21222
863.372	20788
863.504	20773
863.636	20708
863.768	20815
863.9	20758
864.032	20724
864.164	20731
864.296	20762
864.428	20727
864.559	20842
864.691	20819
864.823	20781
864.954	20731
865.086	20651
865.217	20689
865.349	20571
865.48	20552
865.612	20541
865.743	20861
865.875	20640
866.006	20549
866.137	20621
866.269	20727
866.4	20655
866.531	20556
866.662	20560
866.793	20537
866.924	20621
867.055	20541
867.186	20571
867.317	20499
867.448	20412
867.579	20514
867.71	20377
867.841	20476
867.972	20503
868.103	20575
868.233	20598
868.364	20648
868.495	20648
868.625	20739
868.756	20895
868.886	20674
869.017	20758
869.147	20941
869.278	20986
869.408	20861
869.539	20777
869.669	20857
869.799	20887
869.929	20864
870.06	20891
870.19	21203
870.32	21047
870.45	21161
870.58	21192
870.71	21291
870.84	21317
870.97	21070
871.1	21165
871.23	21313
871.36	21332
871.489	21241
871.619	21275
871.749	21317
871.879	21363
872.008	21622
872.138	21393
872.267	21317
872.397	21249
872.526	21138
872.656	21245
872.785	21279
872.915	21393
873.044	21359
873.173	21386
873.303	21389
873.432	21428
873.561	21545
873.69	21485
873.819	21454
873.948	21496
874.077	21351
874.206	21268
874.335	21450
874.464	21648
874.593	21671
874.722	21572
874.851	21625
874.979	21682
875.108	21694
875.237	21534
875.365	21549
875.494	21568
875.623	21804
875.751	21629
875.88	21667
876.008	21854
876.136	21755
876.265	21991
876.393	22211
876.521	22036
876.65	22223
876.778	21941
876.906	21911
877.034	22025
877.162	21918
877.29	21956
877.418	22051
877.546	21945
877.674	21983
877.802	21953
877.93	21968
878.058	21876
878.185	21861
878.313	21907
878.441	21964
878.568	21960
878.696	21991
878.824	22032
878.951	22029
879.079	22158
879.206	22230
879.333	22207
879.461	22109
879.588	22074
879.715	22322
879.842	22299
879.97	22166
880.097	21835
880.224	21846
880.351	21804
880.478	21873
880.605	21766
880.732	21808
880.859	22021
880.986	21717
881.112	21846
881.239	21732
881.366	21629
881.493	21557
881.619	21344
881.746	21420
881.872	21359
881.999	21428
882.125	21241
882.252	21534
882.378	21492
882.505	21507
882.631	21272
882.757	21214
882.883	21302
883.01	21169
883.136	21116
883.262	20979
883.388	20914
883.514	21211
883.64	21154
883.766	21165
883.892	20967
884.018	20990
884.143	21024
884.269	21085
884.395	20944
884.52	20796
884.646	20826
884.772	20777
884.897	20629
885.023	20845
885.148	20842
885.274	20986
885.399	20921
885.524	20701
885.65	20769
885.775	20815
885.9	20739
886.025	20857
886.15	20902
886.275	20739
886.4	20663
886.525	20716
886.65	20648
886.775	20712
886.9	20883
887.025	21017
887.149	20697
887.274	20495
887.399	20507
887.523	20590
887.648	20385
887.773	20339
887.897	20579
888.021	20518
888.146	20465
888.27	20514
888.395	20602
888.519	20400
888.643	20492
888.767	20427
888.891	20469
889.015	20214
889.139	20336
889.263	20271
889.387	20374
889.511	20480
889.635	20389
889.759	20328
889.883	20271
890.006	20267
890.13	20309
890.254	20248
890.377	20149
890.501	20012
890.624	20016
890.748	20069
890.871	19932
890.995	19822
891.118	19928
891.241	19932
891.364	19856
891.488	19970
891.611	19814
891.734	19898
891.857	19967
891.98	19940
892.103	19871
892.226	19852
892.349	19742
892.471	19750
892.594	19685
892.717	19818
892.839	19799
892.962	19803
893.085	19887
893.207	19807
893.33	19632
893.452	19666
893.575	19868
893.697	19769
893.819	20001
893.941	20031
894.064	19925
894.186	19761
894.308	19715
894.43	19791
894.552	19814
894.674	19822
894.796	19533
894.918	19833
895.04	19719
895.161	19856
895.283	19833
895.405	19791
895.526	19651
895.648	19727
895.769	19769
895.891	19822
896.012	19944
896.134	19780
896.255	19890
896.376	19879
896.498	19871
896.619	19894
896.74	19841
896.861	19788
896.982	20290
897.103	20431
897.224	20084
897.345	20149
897.466	20020
897.587	20062
897.708	20229
897.828	20130
897.949	19951
898.07	19871
898.19	19997
898.311	20126
898.431	19951
898.552	19997
898.672	20027
898.792	20107
898.913	19989
899.033	19757
899.153	19662
899.273	19556
899.393	19708
899.513	19696
899.633	19731
899.753	19791
899.873	19628
899.993	19765
900.113	19765
900.232	19685
900.352	19578
900.472	19632
900.591	19491
900.711	19521
900.83	19506
900.95	19590
901.069	19525
901.189	19369
901.308	19301
901.427	19038
901.546	19118
901.665	19088
901.784	19160
901.904	18947
902.023	18935
902.141	18654
902.26	18745
902.379	18673
902.498	18570
902.617	18448
902.735	18669
902.854	18540
902.973	18471
903.091	18254
903.21	18308
903.328	18300
903.446	18133
903.565	18106
903.683	18015
903.801	17961
903.919	17992
904.038	18026
904.156	17733
904.274	17939
904.392	17836
904.51	17764
904.627	17722
904.745	17889
904.863	17832
904.981	17649
905.098	17547
905.216	17490
905.334	17589
905.451	17528
905.569	17512
905.686	17532
905.803	17425
905.921	17326
906.038	17406
906.155	17406
906.272	17185
906.389	17227
906.506	17041
906.623	17071
906.74	17083
906.857	16972
906.974	16991
907.091	17147
907.208	17223
907.324	17064
907.441	16919
907.557	16843
907.674	16782
907.79	16672
907.907	16683
908.023	16771
908.139	16725
908.256	16599
908.372	16641
908.488	16573
908.604	16379
908.72	16379
908.836	16459
908.952	16375
909.068	16447
909.184	16519
909.3	16428
909.415	16447
909.531	16462
909.647	16105
909.762	16128
909.878	16143
909.993	16097
910.108	16002
910.224	16128
910.339	16040
910.454	15994
910.57	15850
910.685	15892
910.8	16147
910.915	16029
911.03	15827
911.145	15652
911.259	15671
911.374	15698
911.489	15663
911.604	15576
911.718	15515
911.833	15542
911.947	15329
912.062	15393
912.176	15393
912.291	15561
912.405	15500
912.519	15698
912.633	15603
912.748	15428
912.862	15378
912.976	15325
913.09	15154
913.204	15154
913.318	15230
913.431	15408
913.545	15260
913.659	15416
913.772	15135
913.886	15055
914	15001
914.113	15100
914.226	15207
914.34	15081
914.453	14979
914.566	15127
914.68	14994
914.793	14887
914.906	14838
915.019	14682
915.132	14552
915.245	14724
915.358	14754
915.47	14727
915.583	14697
915.696	14724
915.809	14769
915.921	14773
916.034	14610
916.146	14621
916.259	14598
916.371	14636
916.483	14655
916.595	14484
916.708	14530
916.82	14560
916.932	14473
917.044	14404
917.156	14457
917.268	14423
917.38	14393
917.491	14336
917.603	14389
917.715	14415
917.826	14446
917.938	14263
918.049	14164
918.161	14244
918.272	14343
918.384	14438
918.495	14290
918.606	14069
918.717	14012
918.828	14111
918.939	14153
919.05	14043
919.161	14062
919.272	13811
919.383	13868
919.494	14088
919.604	14275
919.715	14107
919.826	13967
919.936	14005
920.047	14107
920.157	14008
920.267	14229
920.378	14035
920.488	14069
920.598	14164
920.708	14298
920.818	14176
920.928	14168
921.038	14412
921.148	14248
921.258	13947
921.368	13822
921.477	13807
921.587	13791
921.697	13620
921.806	13795
921.916	13700
922.025	13460
922.134	13381
922.244	13426
922.353	13460
922.462	13312
922.571	13263
922.68	13091
922.789	13050
922.898	13072
923.007	13000
923.116	13137
923.224	13000
923.333	12993
923.442	12871
923.55	12878
923.659	12951
923.767	12924
923.876	12810
923.984	12981
924.092	12776
924.201	12806
924.309	12806
924.417	12772
924.525	12783
924.633	12730
924.741	13757
924.849	12483
924.956	12677
925.064	12494
925.172	12460
925.279	12490
925.387	12551
925.494	12498
925.602	12570
925.709	12521
925.816	12460
925.924	12456
926.031	12506
926.138	12471
926.245	12490
926.352	12361
926.459	12391
926.566	12528
926.673	12388
926.779	12266
926.886	12270
926.993	12155
927.099	12053
927.206	12007
927.312	12026
927.419	12106
927.525	11973
927.631	12083
927.737	11946
927.843	11950
927.95	11783
928.056	11927
928.162	11916
928.267	11916
928.373	12604
928.479	11973
928.585	11710
928.69	11779
928.796	11859
928.901	11790
929.007	11558
929.112	11767
929.218	11710
929.323	11562
929.428	11532
929.533	11710
929.638	11589
929.743	11714
929.848	11729
929.953	11551
930.058	11421
930.163	11277
930.267	11277
930.372	11410
930.477	11280
930.581	11452
930.685	11341
930.79	11124
930.894	11265
930.998	11178
931.103	11322
931.207	10885
931.311	10828
931.415	10767
931.519	10580
931.623	10538
