Data from test_V78500241_76.txt Node
Date: Fri Mar 25 15:42:19 CST 2022
User: usil
Spectrometer: V785-0024
Trigger mode: 0
Integration Time (sec): 4.000000E-1
Scans to average: 1
Nonlinearity correction enabled: false
Boxcar width: 0
Storing dark spectrum: false
XAxis mode: Wavelengths
Number of Pixels in Spectrum: 1024
>>>>>Begin Spectral Data<<<<<
801.071	30129
801.214	29851
801.356	29684
801.499	29608
801.641	29471
801.783	29482
801.926	29524
802.068	29535
802.211	29391
802.353	29258
802.496	29220
802.638	29025
802.78	29140
802.923	29083
803.065	29162
803.208	29029
803.35	29136
803.492	29159
803.635	29254
803.777	29162
803.919	29299
804.061	29566
804.204	29436
804.346	29235
804.488	29090
804.63	29193
804.773	29109
804.915	29155
805.057	29250
805.199	29220
805.341	29288
805.483	29364
805.626	29246
805.768	29159
805.91	29436
806.052	29406
806.194	29299
806.336	29562
806.478	29345
806.62	29239
806.762	29551
806.904	29611
807.046	29745
807.188	29691
807.33	29600
807.472	29866
807.614	29554
807.756	29710
807.898	29505
808.04	29558
808.182	29493
808.324	29551
808.465	29558
808.607	29619
808.749	29973
808.891	29988
809.033	30144
809.174	29992
809.316	29965
809.458	29866
809.6	29832
809.741	29996
809.883	30186
810.025	30072
810.166	30068
810.308	30133
810.45	30114
810.591	30079
810.733	29942
810.875	29855
811.016	29790
811.158	29722
811.299	29939
811.441	30079
811.582	29969
811.724	29882
811.865	29760
812.007	29870
812.148	29847
812.29	29882
812.431	29946
812.573	30247
812.714	30148
812.855	30262
812.997	30323
813.138	30555
813.279	30429
813.421	30262
813.562	30323
813.703	30060
813.845	30064
813.986	29646
814.127	29520
814.268	29520
814.41	29577
814.551	29474
814.692	29490
814.833	29528
814.974	29398
815.115	29345
815.256	29353
815.397	29121
815.539	29231
815.68	29181
815.821	29124
815.962	29151
816.103	29143
816.244	29033
816.385	28782
816.526	28828
816.666	28797
816.807	28500
816.948	28577
817.089	28656
817.23	28618
817.371	28535
817.512	28622
817.653	28466
817.793	28580
817.934	28519
818.075	28603
818.216	28588
818.356	28344
818.497	28291
818.638	28207
818.778	28177
818.919	28280
819.06	28299
819.2	28219
819.341	28459
819.481	28443
819.622	28615
819.762	28733
819.903	28641
820.043	28634
820.184	28531
820.324	28664
820.465	28557
820.605	28596
820.746	28645
820.886	28405
821.026	28386
821.167	28451
821.307	28504
821.447	28318
821.588	28280
821.728	28150
821.868	28032
822.008	27812
822.149	27846
822.289	27827
822.429	27644
822.569	27427
822.709	27545
822.849	27439
822.99	27336
823.13	27283
823.27	27245
823.41	27180
823.55	27100
823.69	27146
823.83	27241
823.97	27028
824.11	26781
824.25	26960
824.389	26838
824.529	27009
824.669	26868
824.809	27104
824.949	26975
825.089	26929
825.228	27047
825.368	26769
825.508	26678
825.648	26629
825.787	26724
825.927	26785
826.067	26663
826.206	26625
826.346	26773
826.485	26727
826.625	26773
826.765	26819
826.904	26682
827.044	26488
827.183	26431
827.323	26282
827.462	26450
827.601	26385
827.741	26275
827.88	26298
828.02	26305
828.159	26263
828.298	26202
828.437	26339
828.577	26256
828.716	26469
828.855	26286
828.994	26065
829.134	26039
829.273	25997
829.412	26001
829.551	25917
829.69	26077
829.829	25989
829.968	26065
830.107	25997
830.246	26035
830.385	25963
830.524	25845
830.663	25902
830.802	25635
830.941	25556
831.08	25620
831.219	25552
831.357	25590
831.496	25822
831.635	25635
831.774	25518
831.913	25388
832.051	25369
832.19	25278
832.329	25438
832.467	25301
832.606	25247
832.744	25194
832.883	25164
833.022	25053
833.16	25190
833.299	25221
833.437	25118
833.576	25225
833.714	25126
833.852	25259
833.991	25297
834.129	25430
834.267	25236
834.406	25179
834.544	25251
834.682	25270
834.821	25225
834.959	25228
835.097	25012
835.235	25160
835.373	25263
835.511	25175
835.65	25099
835.788	25000
835.926	24745
836.064	24722
836.202	24684
836.34	25050
836.478	25084
836.615	25031
836.753	24973
836.891	25004
837.029	25095
837.167	24909
837.305	24924
837.443	24932
837.58	24909
837.718	24947
837.856	24852
837.993	24837
838.131	24700
838.269	24673
838.406	24715
838.544	24563
838.681	24376
838.819	24429
838.956	24186
839.094	24205
839.231	24220
839.369	24327
839.506	24521
839.643	24445
839.781	24159
839.918	24087
840.055	24110
840.193	24091
840.33	24072
840.467	24117
840.604	24289
840.742	24319
840.879	24053
841.016	23988
841.153	23923
841.29	24072
841.427	23958
841.564	24045
841.701	23984
841.838	23847
841.975	23863
842.112	23946
842.249	23805
842.385	23828
842.522	24110
842.659	23786
842.796	23764
842.933	23604
843.069	23638
843.206	23680
843.343	23786
843.479	23661
843.616	23604
843.752	23474
843.889	23455
844.025	23585
844.162	23410
844.298	23554
844.435	23539
844.571	23493
844.708	23444
844.844	23657
844.98	23627
845.117	23444
845.253	23364
845.389	23288
845.525	23239
845.661	23258
845.798	23128
845.934	23296
846.07	23102
846.206	23132
846.342	23288
846.478	23178
846.614	22927
846.75	22847
846.886	22805
847.022	22869
847.158	22934
847.294	22968
847.429	22812
847.565	22854
847.701	23003
847.837	22672
847.972	22367
848.108	22607
848.244	22634
848.379	22440
848.515	22322
848.65	22360
848.786	22367
848.921	22489
849.057	22554
849.192	22580
849.328	22447
849.463	22363
849.598	22322
849.734	22257
849.869	22196
850.004	22299
850.14	22219
850.275	22044
850.41	22029
850.545	22200
850.68	22017
850.815	22204
850.95	21934
851.085	22246
851.22	22196
851.355	22029
851.49	22124
851.625	22032
851.76	22017
851.895	21960
852.03	21979
852.165	22162
852.299	22086
852.434	22090
852.569	22131
852.703	22124
852.838	22139
852.973	22158
853.107	22192
853.242	22063
853.376	22082
853.511	21823
853.645	21831
853.78	22032
853.914	21816
854.048	21895
854.183	21865
854.317	22044
854.451	21975
854.585	21876
854.72	21854
854.854	21991
854.988	21823
855.122	21876
855.256	21747
855.39	21968
855.524	21888
855.658	21846
855.792	21949
855.926	21903
856.06	21987
856.194	22002
856.327	21857
856.461	21895
856.595	21823
856.729	21800
856.862	21926
856.996	21857
857.13	21861
857.263	21930
857.397	22036
857.53	21915
857.664	21869
857.797	21857
857.931	21998
858.064	21922
858.197	21964
858.331	21823
858.464	21705
858.597	21743
858.731	21717
858.864	21808
858.997	21759
859.13	21850
859.263	21797
859.396	21770
859.529	21842
859.662	21717
859.795	21755
859.928	21629
860.061	22036
860.194	21892
860.327	21895
860.46	21816
860.592	21846
860.725	21960
860.858	21884
860.99	21743
861.123	21743
861.256	21736
861.388	21751
861.521	22466
861.653	21785
861.786	21732
861.918	21675
862.05	21743
862.183	21823
862.315	21899
862.447	21972
862.58	21857
862.712	21671
862.844	21519
862.976	21523
863.108	21545
863.24	21922
863.372	21519
863.504	21382
863.636	21435
863.768	21519
863.9	21553
864.032	21332
864.164	21462
864.296	21519
864.428	21568
864.559	21599
864.691	21469
864.823	21462
864.954	21420
865.086	21424
865.217	21439
865.349	21260
865.48	21302
865.612	21256
865.743	21526
865.875	21374
866.006	21279
866.137	21405
866.269	21367
866.4	21405
866.531	21370
866.662	21237
866.793	21230
866.924	21397
867.055	21313
867.186	21230
867.317	21214
867.448	21154
867.579	21211
867.71	21146
867.841	21119
867.972	21230
868.103	21294
868.233	21302
868.364	21195
868.495	21473
868.625	21447
868.756	21656
868.886	21348
869.017	21397
869.147	21614
869.278	21576
869.408	21481
869.539	21492
869.669	21511
869.799	21515
869.929	21523
870.06	21564
870.19	21743
870.32	21865
870.45	21918
870.58	21876
870.71	21960
870.84	22044
870.97	21842
871.1	22017
871.23	22154
871.36	22109
871.489	22036
871.619	22147
871.749	22192
871.879	22105
872.008	22318
872.138	22093
872.267	22067
872.397	21964
872.526	21880
872.656	21991
872.785	21888
872.915	22112
873.044	22181
873.173	22177
873.303	22154
873.432	22086
873.561	22211
873.69	22109
873.819	22112
873.948	22284
874.077	22105
874.206	22109
874.335	22173
874.464	22276
874.593	22398
874.722	22303
874.851	22352
874.979	22265
875.108	22489
875.237	22200
875.365	22200
875.494	22333
875.623	22402
875.751	22280
875.88	22318
876.008	22546
876.136	22405
876.265	22702
876.393	22831
876.521	22866
876.65	22881
876.778	22820
876.906	22710
877.034	22759
877.162	22744
877.29	22584
877.418	22809
877.546	22782
877.674	22717
877.802	22653
877.93	22656
878.058	22793
878.185	22500
878.313	22729
878.441	22645
878.568	22557
878.696	22622
878.824	22797
878.951	22790
879.079	22938
879.206	22949
879.333	22991
879.461	22755
879.588	22774
879.715	22847
879.842	22881
879.97	22774
880.097	22550
880.224	22443
880.351	22607
880.478	22565
880.605	22405
880.732	22557
880.859	22656
880.986	22519
881.112	22508
881.239	22371
881.366	22306
881.493	22139
881.619	22135
881.746	22055
881.872	22036
881.999	22010
882.125	21964
882.252	22139
882.378	22032
882.505	22246
882.631	21857
882.757	21846
882.883	21903
883.01	21797
883.136	21762
883.262	21724
883.388	21656
883.514	21781
883.64	21797
883.766	21743
883.892	21568
884.018	21572
884.143	21869
884.269	21869
884.395	21610
884.52	21515
884.646	21485
884.772	21351
884.897	21332
885.023	21473
885.148	21530
885.274	21545
885.399	21500
885.524	21473
885.65	21428
885.775	21428
885.9	21321
886.025	21450
886.15	21424
886.275	21466
886.4	21336
886.525	21332
886.65	21150
886.775	21291
886.9	21485
887.025	21682
887.149	21412
887.274	21085
887.399	21249
887.523	21138
887.648	21211
887.773	21138
887.897	21142
888.021	21241
888.146	21142
888.27	21325
888.395	21272
888.519	21291
888.643	21199
888.767	21264
888.891	21096
889.015	20857
889.139	20937
889.263	20971
889.387	21104
889.511	21070
889.635	21108
889.759	21001
889.883	20857
890.006	20899
890.13	21005
890.254	20765
890.377	20906
890.501	20659
890.624	20621
890.748	20739
890.871	20579
890.995	20495
891.118	20465
891.241	20537
891.364	20404
891.488	20545
891.611	20499
891.734	20457
891.857	20568
891.98	20423
892.103	20533
892.226	20594
892.349	20396
892.471	20351
892.594	20446
892.717	20469
892.839	20320
892.962	20412
893.085	20469
893.207	20438
893.33	20347
893.452	20389
893.575	20313
893.697	20431
893.819	20511
893.941	20625
894.064	20541
894.186	20355
894.308	20294
894.43	20400
894.552	20556
894.674	20484
894.796	20355
894.918	20400
895.04	20423
895.161	20374
895.283	20434
895.405	20393
895.526	20408
895.648	20355
895.769	20461
895.891	20362
896.012	20530
896.134	20457
896.255	20427
896.376	20381
896.498	20499
896.619	20396
896.74	20518
896.861	20579
896.982	20796
897.103	20906
897.224	20773
897.345	20606
897.466	20549
897.587	20743
897.708	20777
897.828	20629
897.949	20613
898.07	20393
898.19	20552
898.311	20792
898.431	20564
898.552	20602
898.672	20522
898.792	20674
898.913	20541
899.033	20480
899.153	20476
899.273	20298
899.393	20366
899.513	20320
899.633	20286
899.753	20301
899.873	20199
899.993	20366
900.113	20240
900.232	20286
900.352	20218
900.472	20168
900.591	20020
900.711	20088
900.83	19928
900.95	20149
901.069	20199
901.189	20043
901.308	19871
901.427	19708
901.546	19658
901.665	19731
901.784	19723
901.904	19582
902.023	19384
902.141	19209
902.26	19141
902.379	19171
902.498	19148
902.617	19084
902.735	19118
902.854	18977
902.973	19194
903.091	18909
903.21	18875
903.328	18772
903.446	18711
903.565	18650
903.683	18677
903.801	18532
903.919	18547
904.038	18604
904.156	18452
904.274	18479
904.392	18399
904.51	18311
904.627	18277
904.745	18460
904.863	18483
904.981	18098
905.098	18076
905.216	18026
905.334	17999
905.451	17992
905.569	17935
905.686	18041
905.803	18030
905.921	17809
906.038	17992
906.155	17878
906.272	17783
906.389	17710
906.506	17520
906.623	17604
906.74	17585
906.857	17395
906.974	17372
907.091	17642
907.208	17687
907.324	17604
907.441	17497
907.557	17246
907.674	17292
907.79	17254
907.907	17197
908.023	17250
908.139	17132
908.256	17162
908.372	17162
908.488	17010
908.604	17064
908.72	16854
908.836	16892
908.952	16862
909.068	16965
909.184	17037
909.3	16786
909.415	16885
909.531	16869
909.647	16558
909.762	16599
909.878	16493
909.993	16596
910.108	16531
910.224	16561
910.339	16542
910.454	16451
910.57	16310
910.685	16276
910.8	16618
910.915	16580
911.03	16329
911.145	16067
911.259	16093
911.374	16272
911.489	16090
911.604	15964
911.718	15937
911.833	16021
911.947	15778
912.062	15804
912.176	15930
912.291	15876
912.405	15941
912.519	16112
912.633	16086
912.748	15926
912.862	15766
912.976	15770
913.09	15595
913.204	15629
913.318	15644
913.431	15747
913.545	15770
913.659	15915
913.772	15595
913.886	15462
914	15538
914.113	15625
914.226	15625
914.34	15462
914.453	15416
914.566	15481
914.68	15393
914.793	15412
914.906	15123
915.019	15089
915.132	15066
915.245	15066
915.358	15112
915.47	15089
915.583	15123
915.696	15104
915.809	15321
915.921	15199
916.034	15043
916.146	15024
916.259	14975
916.371	15085
916.483	15066
916.595	14925
916.708	14948
916.82	15017
916.932	14899
917.044	14906
917.156	14796
917.268	14750
917.38	14750
917.491	14762
917.603	14762
917.715	14876
917.826	14845
917.938	14663
918.049	14594
918.161	14705
918.272	14891
918.384	14804
918.495	14674
918.606	14625
918.717	14495
918.828	14537
918.939	14541
919.05	14332
919.161	14358
919.272	14244
919.383	14370
919.494	14545
919.604	14693
919.715	14454
919.826	14355
919.936	14446
920.047	14503
920.157	14415
920.267	14716
920.378	14454
920.488	14503
920.598	14552
920.708	14788
920.818	14667
920.928	14651
921.038	14682
921.148	14663
921.258	14423
921.368	14267
921.477	14153
921.587	14123
921.697	14111
921.806	14183
921.916	13928
922.025	13841
922.134	13780
922.244	13666
922.353	13871
922.462	13662
922.571	13628
922.68	13426
922.789	13472
922.898	13449
923.007	13430
923.116	13483
923.224	13434
923.333	13430
923.442	13285
923.55	13168
923.659	13278
923.767	13327
923.876	13259
923.984	13251
924.092	13114
924.201	13156
924.309	13198
924.417	13110
924.525	13072
924.633	13084
924.741	14065
924.849	12905
924.956	13015
925.064	12768
925.172	12791
925.279	12764
925.387	12840
925.494	12768
925.602	12970
925.709	12951
925.816	12772
925.924	12840
926.031	12768
926.138	12837
926.245	12856
926.352	12707
926.459	12875
926.566	12901
926.673	12791
926.779	12585
926.886	12574
926.993	12407
927.099	12437
927.206	12429
927.312	12372
927.419	12551
927.525	12384
927.631	12452
927.737	12315
927.843	12232
927.95	12136
928.056	12220
928.162	12247
928.267	12308
928.373	12894
928.479	12311
928.585	12079
928.69	12106
928.796	12270
928.901	12121
929.007	11927
929.112	12087
929.218	12110
929.323	11977
929.428	11935
929.533	12110
929.638	11889
929.743	11901
929.848	11958
929.953	11916
930.058	11817
930.163	11630
930.267	11665
930.372	11908
930.477	11524
930.581	11802
930.685	11657
930.79	11512
930.894	11516
930.998	11440
931.103	11585
931.207	11212
931.311	11136
931.415	11041
931.519	10881
931.623	10790
