Data from test_V78500241_1207.txt Node
Date: Fri Mar 25 15:50:09 CST 2022
User: usil
Spectrometer: V785-0024
Trigger mode: 0
Integration Time (sec): 4.000000E-1
Scans to average: 1
Nonlinearity correction enabled: false
Boxcar width: 0
Storing dark spectrum: false
XAxis mode: Wavelengths
Number of Pixels in Spectrum: 1024
>>>>>Begin Spectral Data<<<<<
801.071	28713
801.214	28607
801.356	28375
801.499	28398
801.641	28249
801.783	28230
801.926	28207
802.068	28154
802.211	28253
802.353	28044
802.496	28025
802.638	27934
802.78	27926
802.923	27819
803.065	27736
803.208	27937
803.35	27983
803.492	27956
803.635	28078
803.777	27956
803.919	28185
804.061	28394
804.204	28318
804.346	28063
804.488	28215
804.63	28177
804.773	28036
804.915	28070
805.057	28322
805.199	28242
805.341	28257
805.483	28447
805.626	28310
805.768	28268
805.91	28219
806.052	28325
806.194	28105
806.336	28721
806.478	28322
806.62	28352
806.762	28573
806.904	28550
807.046	28774
807.188	28774
807.33	28771
807.472	28847
807.614	28733
807.756	28774
807.898	28622
808.04	28637
808.182	28584
808.324	28577
808.465	28843
808.607	28881
808.749	29151
808.891	29098
809.033	29349
809.174	29044
809.316	29155
809.458	29094
809.6	28866
809.741	29277
809.883	29113
810.025	29349
810.166	29307
810.308	29318
810.45	29235
810.591	29254
810.733	29204
810.875	28972
811.016	29014
811.158	28915
811.299	29220
811.441	29227
811.582	29254
811.724	29006
811.865	28949
812.007	29044
812.148	29044
812.29	28999
812.431	29296
812.573	29372
812.714	29478
812.855	29516
812.997	29672
813.138	29752
813.279	29771
813.421	29501
813.562	29360
813.703	29429
813.845	29322
813.986	29098
814.127	28949
814.268	28759
814.41	28664
814.551	28755
814.692	28831
814.833	28725
814.974	28805
815.115	28809
815.256	28683
815.397	28691
815.539	28664
815.68	28561
815.821	28440
815.962	28584
816.103	28557
816.244	28386
816.385	28337
816.526	28348
816.666	28360
816.807	28147
816.948	28150
817.089	28181
817.23	28063
817.371	28029
817.512	28059
817.653	28143
817.793	28143
817.934	28067
818.075	28090
818.216	28215
818.356	27922
818.497	28086
818.638	27739
818.778	27823
818.919	27869
819.06	27945
819.2	28051
819.341	28162
819.481	28135
819.622	28173
819.762	28440
819.903	28367
820.043	28249
820.184	28367
820.324	28116
820.465	28211
820.605	28226
820.746	28128
820.886	28131
821.026	28158
821.167	28253
821.307	28185
821.447	28150
821.588	28112
821.728	27914
821.868	27759
822.008	27629
822.149	27538
822.289	27595
822.429	27325
822.569	27302
822.709	27230
822.849	27123
822.99	26998
823.13	27104
823.27	26982
823.41	26910
823.55	26872
823.69	26971
823.83	26929
823.97	26956
824.11	26735
824.25	26670
824.389	26762
824.529	26868
824.669	26842
824.809	26887
824.949	26838
825.089	26811
825.228	26864
825.368	26575
825.508	26636
825.648	26598
825.787	26689
825.927	26648
826.067	26533
826.206	26533
826.346	26625
826.485	26792
826.625	26587
826.765	26693
826.904	26530
827.044	26271
827.183	26351
827.323	26248
827.462	26362
827.601	26415
827.741	26332
827.88	26473
828.02	26138
828.159	26324
828.298	26370
828.437	26366
828.577	26339
828.716	26385
828.855	26214
828.994	26081
829.134	26005
829.273	26183
829.412	26062
829.551	25940
829.69	26073
829.829	25883
829.968	26054
830.107	26058
830.246	25944
830.385	25955
830.524	25944
830.663	25860
830.802	25765
830.941	25582
831.08	25628
831.219	25715
831.357	25807
831.496	25898
831.635	25742
831.774	25453
831.913	25674
832.051	25468
832.19	25426
832.329	25339
832.467	25301
832.606	25236
832.744	25278
832.883	25225
833.022	25148
833.16	25289
833.299	25343
833.437	25263
833.576	25343
833.714	25369
833.852	25426
833.991	25419
834.129	25365
834.267	25548
834.406	25381
834.544	25369
834.682	25369
834.821	25274
834.959	25537
835.097	25244
835.235	25457
835.373	25388
835.511	25343
835.65	25103
835.788	25251
835.926	25103
836.064	24924
836.202	25061
836.34	25133
836.478	25346
836.615	25145
836.753	25156
836.891	25266
837.029	25152
837.167	25015
837.305	25103
837.443	25148
837.58	25004
837.718	25175
837.856	25027
837.993	24943
838.131	25031
838.269	24806
838.406	25015
838.544	24837
838.681	24642
838.819	24616
838.956	24437
839.094	24483
839.231	24547
839.369	24578
839.506	24932
839.643	24722
839.781	24498
839.918	24494
840.055	24346
840.193	24380
840.33	24365
840.467	24388
840.604	24338
840.742	24802
840.879	24224
841.016	24258
841.153	24174
841.29	24475
841.427	24251
841.564	24365
841.701	24285
841.838	24395
841.975	24197
842.112	24289
842.249	24220
842.385	24129
842.522	24353
842.659	24251
842.796	24194
842.933	24060
843.069	24053
843.206	24064
843.343	24167
843.479	24091
843.616	24060
843.752	23954
843.889	24011
844.025	24038
844.162	23828
844.298	24041
844.435	23904
844.571	23874
844.708	24007
844.844	24186
844.98	24110
845.117	23992
845.253	23866
845.389	23859
845.525	23737
845.661	23737
845.798	23608
845.934	23684
846.07	23676
846.206	23737
846.342	23695
846.478	23474
846.614	23486
846.75	23398
846.886	23387
847.022	23299
847.158	23448
847.294	23353
847.429	23421
847.565	23395
847.701	23684
847.837	22991
847.972	23029
848.108	23166
848.244	23136
848.379	23010
848.515	22953
848.65	23018
848.786	22919
848.921	22946
849.057	22991
849.192	22934
849.328	22850
849.463	22930
849.598	22965
849.734	22812
849.869	22733
850.004	22862
850.14	22767
850.275	22850
850.41	22649
850.545	22550
850.68	22698
850.815	22767
850.95	22607
851.085	22881
851.22	22736
851.355	22740
851.49	22573
851.625	22683
851.76	22721
851.895	22561
852.03	22618
852.165	22683
852.299	22790
852.434	22710
852.569	22793
852.703	22649
852.838	22790
852.973	22793
853.107	22706
853.242	22489
853.376	22565
853.511	22436
853.645	22443
853.78	22603
853.914	22592
854.048	22428
854.183	22436
854.317	22455
854.451	22729
854.585	22630
854.72	22611
854.854	22618
854.988	22478
855.122	22596
855.256	22413
855.39	22618
855.524	22557
855.658	22538
855.792	22641
855.926	22550
856.06	22687
856.194	22672
856.327	22660
856.461	22489
856.595	22489
856.729	22622
856.862	22569
856.996	22607
857.13	22675
857.263	22622
857.397	22546
857.53	22668
857.664	22607
857.797	22637
857.931	22664
858.064	22622
858.197	22611
858.331	22512
858.464	22493
858.597	22485
858.731	22557
858.864	22618
858.997	22527
859.13	22554
859.263	22561
859.396	22588
859.529	22519
859.662	22462
859.795	22523
859.928	22607
860.061	22702
860.194	22805
860.327	22599
860.46	22474
860.592	22500
860.725	22702
860.858	22656
860.99	22523
861.123	22409
861.256	22443
861.388	22462
861.521	23113
861.653	22561
861.786	22325
861.918	22287
862.05	22386
862.183	22481
862.315	22577
862.447	22519
862.58	22455
862.712	22200
862.844	22280
862.976	22375
863.108	22257
863.24	22561
863.372	22166
863.504	22287
863.636	22257
863.768	22196
863.9	22192
864.032	22299
864.164	22265
864.296	22253
864.428	22375
864.559	22375
864.691	22253
864.823	22344
864.954	22246
865.086	22234
865.217	22109
865.349	22131
865.48	22051
865.612	22196
865.743	22207
865.875	22143
866.006	22021
866.137	22013
866.269	22063
866.4	22101
866.531	22055
866.662	22013
866.793	22025
866.924	22059
867.055	22070
867.186	22055
867.317	22002
867.448	21934
867.579	22070
867.71	21895
867.841	21930
867.972	21972
868.103	22097
868.233	22002
868.364	22013
868.495	22135
868.625	22185
868.756	22409
868.886	22181
869.017	22367
869.147	22432
869.278	22455
869.408	22382
869.539	22379
869.669	22451
869.799	22459
869.929	22356
870.06	22531
870.19	22557
870.32	22500
870.45	22615
870.58	22691
870.71	22820
870.84	22771
870.97	22782
871.1	22797
871.23	22778
871.36	22900
871.489	22774
871.619	22923
871.749	22862
871.879	22877
872.008	22953
872.138	22946
872.267	22847
872.397	22752
872.526	22767
872.656	22713
872.785	22664
872.915	22991
873.044	23060
873.173	22816
873.303	22980
873.432	22965
873.561	22900
873.69	22877
873.819	22873
873.948	23083
874.077	22984
874.206	22812
874.335	22835
874.464	22946
874.593	23174
874.722	23098
874.851	23102
874.979	23117
875.108	23208
875.237	23022
875.365	22957
875.494	22999
875.623	23079
875.751	23006
875.88	23189
876.008	23208
876.136	23326
876.265	23414
876.393	23638
876.521	23577
876.65	23558
876.778	23528
876.906	23452
877.034	23471
877.162	23558
877.29	23334
877.418	23478
877.546	23414
877.674	23356
877.802	23433
877.93	23436
878.058	23406
878.185	23250
878.313	23402
878.441	23383
878.568	23303
878.696	23341
878.824	23474
878.951	23516
879.079	23630
879.206	23756
879.333	23638
879.461	23528
879.588	23531
879.715	23539
879.842	23893
879.97	23558
880.097	23315
880.224	23292
880.351	23372
880.478	23364
880.605	23200
880.732	23239
880.859	23410
880.986	23227
881.112	23318
881.239	23162
881.366	23071
881.493	22869
881.619	22896
881.746	22892
881.872	22961
881.999	22866
882.125	22687
882.252	22797
882.378	22710
882.505	22900
882.631	22561
882.757	22599
882.883	22603
883.01	22508
883.136	22447
883.262	22219
883.388	22249
883.514	22443
883.64	22481
883.766	22440
883.892	22128
884.018	22333
884.143	22428
884.269	22519
884.395	22090
884.52	22112
884.646	22204
884.772	22082
884.897	22124
885.023	22192
885.148	22238
885.274	22284
885.399	22249
885.524	22173
885.65	22246
885.775	22112
885.9	22036
886.025	22192
886.15	22242
886.275	22128
886.4	21972
886.525	22086
886.65	22070
886.775	21945
886.9	22325
887.025	22367
887.149	22200
887.274	21857
887.399	21812
887.523	21895
887.648	21873
887.773	21945
887.897	21991
888.021	21899
888.146	21747
888.27	21884
888.395	21869
888.519	21861
888.643	21857
888.767	21930
888.891	21770
889.015	21694
889.139	21660
889.263	21618
889.387	21800
889.511	21812
889.635	21846
889.759	21682
889.883	21644
890.006	21667
890.13	21724
890.254	21606
890.377	21553
890.501	21458
890.624	21230
890.748	21458
890.871	21397
890.995	21241
891.118	21275
891.241	21081
891.364	21100
891.488	21268
891.611	21146
891.734	21226
891.857	21214
891.98	21245
892.103	21340
892.226	21203
892.349	21131
892.471	21070
892.594	21260
892.717	21135
892.839	21104
892.962	21051
893.085	21169
893.207	21081
893.33	21131
893.452	21058
893.575	21138
893.697	21108
893.819	21173
893.941	21188
894.064	21222
894.186	21009
894.308	20906
894.43	21203
894.552	21180
894.674	21188
894.796	20925
894.918	21024
895.04	21116
895.161	21123
895.283	21176
895.405	21093
895.526	21096
895.648	20975
895.769	21142
895.891	21100
896.012	21188
896.134	21116
896.255	21081
896.376	21032
896.498	21165
896.619	21020
896.74	21131
896.861	21207
896.982	21378
897.103	21549
897.224	21393
897.345	21184
897.466	21298
897.587	21294
897.708	21553
897.828	21367
897.949	21108
898.07	21077
898.19	21260
898.311	21291
898.431	21260
898.552	21325
898.672	21344
898.792	21344
898.913	21207
899.033	21089
899.153	21055
899.273	21039
899.393	21039
899.513	20979
899.633	21085
899.753	21104
899.873	20857
899.993	21036
900.113	20967
900.232	20960
900.352	20895
900.472	20872
900.591	20750
900.711	20727
900.83	20731
900.95	20857
901.069	20994
901.189	20651
901.308	20465
901.427	20248
901.546	20450
901.665	20480
901.784	20343
901.904	20187
902.023	20142
902.141	19959
902.26	19898
902.379	20008
902.498	19894
902.617	19784
902.735	19826
902.854	19807
902.973	19689
903.091	19567
903.21	19521
903.328	19529
903.446	19384
903.565	19304
903.683	19426
903.801	19194
903.919	19263
904.038	19255
904.156	18981
904.274	19179
904.392	19042
904.51	19034
904.627	18993
904.745	19004
904.863	19053
904.981	18844
905.098	18821
905.216	18791
905.334	18897
905.451	18856
905.569	18722
905.686	18878
905.803	18825
905.921	18639
906.038	18734
906.155	18650
906.272	18372
906.389	18456
906.506	18201
906.623	18273
906.74	18205
906.857	18270
906.974	18232
907.091	18323
907.208	18281
907.324	18323
907.441	18174
907.557	17958
907.674	18026
907.79	17958
907.907	18083
908.023	18045
908.139	17954
908.256	17931
908.372	17878
908.488	17855
908.604	17733
908.72	17642
908.836	17668
908.952	17657
909.068	17779
909.184	17840
909.3	17714
909.415	17676
909.531	17703
909.647	17436
909.762	17436
909.878	17280
909.993	17398
910.108	17387
910.224	17315
910.339	17395
910.454	17181
910.57	17223
910.685	17250
910.8	17318
910.915	17334
911.03	17197
911.145	17003
911.259	16835
911.374	16972
911.489	16889
911.604	16793
911.718	16710
911.833	16748
911.947	16584
912.062	16569
912.176	16744
912.291	16816
912.405	16668
912.519	16915
912.633	16961
912.748	16774
912.862	16618
912.976	16535
913.09	16413
913.204	16493
913.318	16455
913.431	16478
913.545	16622
913.659	16622
913.772	16466
913.886	16462
914	16242
914.113	16390
914.226	16322
914.34	16295
914.453	16322
914.566	16314
914.68	16147
914.793	16109
914.906	15918
915.019	15823
915.132	15717
915.245	15831
915.358	15937
915.47	15819
915.583	15865
915.696	16010
915.809	15960
915.921	15953
916.034	15808
916.146	15789
916.259	15732
916.371	15899
916.483	15762
916.595	15759
916.708	15880
916.82	15675
916.932	15625
917.044	15667
917.156	15561
917.268	15568
917.38	15545
917.491	15587
917.603	15507
917.715	15477
917.826	15534
917.938	15408
918.049	15363
918.161	15397
918.272	15549
918.384	15584
918.495	15469
918.606	15268
918.717	15283
918.828	15283
918.939	15283
919.05	15230
919.161	15150
919.272	15062
919.383	15127
919.494	15283
919.604	15393
919.715	15180
919.826	15058
919.936	15131
920.047	15355
920.157	15146
920.267	15287
920.378	15161
920.488	15256
920.598	15348
920.708	15595
920.818	15351
920.928	15321
921.038	15538
921.148	15408
921.258	15287
921.368	15043
921.477	14933
921.587	14838
921.697	14785
921.806	14864
921.916	14735
922.025	14499
922.134	14541
922.244	14518
922.353	14606
922.462	14514
922.571	14396
922.68	14218
922.789	14218
922.898	14183
923.007	14096
923.116	14275
923.224	14168
923.333	14073
923.442	14096
923.55	14084
923.659	14142
923.767	14043
923.876	13963
923.984	14191
924.092	13928
924.201	13852
924.309	13982
924.417	13932
924.525	13708
924.633	13879
924.741	14587
924.849	13662
924.956	13799
925.064	13597
925.172	13597
925.279	13567
925.387	13514
925.494	13521
925.602	13708
925.709	13620
925.816	13544
925.924	13491
926.031	13601
926.138	13468
926.245	13499
926.352	13304
926.459	13609
926.566	13616
926.673	13453
926.779	13373
926.886	13343
926.993	13103
927.099	13152
927.206	13050
927.312	13084
927.419	13175
927.525	13145
927.631	13198
927.737	12981
927.843	12958
927.95	12795
928.056	12909
928.162	12951
928.267	12882
928.373	13666
928.479	13023
928.585	12764
928.69	12840
928.796	12833
928.901	12730
929.007	12608
929.112	12779
929.218	12707
929.323	12635
929.428	12669
929.533	12806
929.638	12551
929.743	12513
929.848	12669
929.953	12608
930.058	12509
930.163	12285
930.267	12323
930.372	12502
930.477	12205
930.581	12540
930.685	12315
930.79	12148
930.894	12175
930.998	12216
931.103	12277
931.207	12011
931.311	11923
931.415	11794
931.519	11604
931.623	11623
