Data from test_V78500241_3467.txt Node
Date: Fri Mar 25 16:05:49 CST 2022
User: usil
Spectrometer: V785-0024
Trigger mode: 0
Integration Time (sec): 4.000000E-1
Scans to average: 1
Nonlinearity correction enabled: false
Boxcar width: 0
Storing dark spectrum: false
XAxis mode: Wavelengths
Number of Pixels in Spectrum: 1024
>>>>>Begin Spectral Data<<<<<
801.071	28999
801.214	28991
801.356	28687
801.499	28733
801.641	28577
801.783	28527
801.926	28557
802.068	28622
802.211	28557
802.353	28440
802.496	28459
802.638	28363
802.78	28253
802.923	28242
803.065	28299
803.208	28226
803.35	28303
803.492	28462
803.635	28615
803.777	28497
803.919	28527
804.061	28873
804.204	28573
804.346	28409
804.488	28432
804.63	28512
804.773	28485
804.915	28599
805.057	28683
805.199	28386
805.341	28771
805.483	28599
805.626	28618
805.768	28618
805.91	28755
806.052	28698
806.194	28755
806.336	28949
806.478	28744
806.62	28664
806.762	28790
806.904	29056
807.046	29220
807.188	29250
807.33	29178
807.472	29239
807.614	29056
807.756	29185
807.898	29143
808.04	29140
808.182	29033
808.324	29041
808.465	29094
808.607	29204
808.749	29429
808.891	29630
809.033	29535
809.174	29589
809.316	29478
809.458	29391
809.6	29478
809.741	29322
809.883	29623
810.025	29805
810.166	29710
810.308	29710
810.45	29695
810.591	29592
810.733	29501
810.875	29436
811.016	29459
811.158	29398
811.299	29623
811.441	29528
811.582	29627
811.724	29471
811.865	29497
812.007	29490
812.148	29440
812.29	29448
812.431	29630
812.573	29813
812.714	29908
812.855	29992
812.997	30136
813.138	30243
813.279	30155
813.421	30121
813.562	29988
813.703	29980
813.845	29627
813.986	29414
814.127	29197
814.268	29341
814.41	29284
814.551	29170
814.692	29261
814.833	29231
814.974	29159
815.115	29060
815.256	29086
815.397	29060
815.539	29075
815.68	28824
815.821	28911
815.962	29067
816.103	28915
816.244	28809
816.385	28786
816.526	28744
816.666	28656
816.807	28451
816.948	28417
817.089	28561
817.23	28592
817.371	28447
817.512	28413
817.653	28470
817.793	28382
817.934	28424
818.075	28455
818.216	28561
818.356	28318
818.497	28310
818.638	28249
818.778	28192
818.919	28226
819.06	28310
819.2	28367
819.341	28542
819.481	28542
819.622	28687
819.762	28744
819.903	28919
820.043	28771
820.184	28523
820.324	28668
820.465	28763
820.605	28698
820.746	28687
820.886	28577
821.026	28538
821.167	28615
821.307	28649
821.447	28588
821.588	28436
821.728	28310
821.868	28272
822.008	27991
822.149	28017
822.289	27983
822.429	27793
822.569	27694
822.709	27652
822.849	27580
822.99	27587
823.13	27511
823.27	27458
823.41	27310
823.55	27291
823.69	27363
823.83	27488
823.97	27355
824.11	27066
824.25	27020
824.389	27127
824.529	27127
824.669	27104
824.809	27165
824.949	27176
825.089	27283
825.228	27161
825.368	26994
825.508	27184
825.648	27096
825.787	27024
825.927	27009
826.067	26956
826.206	27032
826.346	27005
826.485	27020
826.625	27108
826.765	27123
826.904	27180
827.044	26918
827.183	26952
827.323	26853
827.462	26895
827.601	26735
827.741	26800
827.88	26819
828.02	26689
828.159	26743
828.298	26792
828.437	26777
828.577	26632
828.716	26849
828.855	26629
828.994	26393
829.134	26427
829.273	26492
829.412	26370
829.551	26328
829.69	26453
829.829	26381
829.968	26465
830.107	26621
830.246	26568
830.385	26377
830.524	26393
830.663	26275
830.802	26126
830.941	25951
831.08	25966
831.219	26043
831.357	26172
831.496	26278
831.635	26100
831.774	26039
831.913	26024
832.051	25887
832.19	25841
832.329	25837
832.467	25788
832.606	25693
832.744	25689
832.883	25605
833.022	25658
833.16	25685
833.299	25712
833.437	25613
833.576	25837
833.714	25765
833.852	25803
833.991	25883
834.129	25845
834.267	25879
834.406	25723
834.544	25822
834.682	25849
834.821	25795
834.959	25932
835.097	25761
835.235	25906
835.373	25795
835.511	25811
835.65	25567
835.788	25788
835.926	25510
836.064	25434
836.202	25483
836.34	25677
836.478	25582
836.615	25594
836.753	25616
836.891	25594
837.029	25685
837.167	25518
837.305	25445
837.443	25403
837.58	25358
837.718	25468
837.856	25506
837.993	25335
838.131	25365
838.269	25373
838.406	25343
838.544	25285
838.681	25076
838.819	25046
838.956	24894
839.094	25012
839.231	24894
839.369	25095
839.506	25217
839.643	25129
839.781	24859
839.918	24920
840.055	24814
840.193	24897
840.33	24817
840.467	24719
840.604	24909
840.742	25046
840.879	24665
841.016	24650
841.153	24696
841.29	24859
841.427	24764
841.564	24871
841.701	24757
841.838	24722
841.975	24779
842.112	24661
842.249	24578
842.385	24486
842.522	24631
842.659	24585
842.796	24460
842.933	24467
843.069	24418
843.206	24475
843.343	24673
843.479	24536
843.616	24399
843.752	24334
843.889	24292
844.025	24528
844.162	24433
844.298	24365
844.435	24224
844.571	24323
844.708	24369
844.844	24388
844.98	24395
845.117	24445
845.253	24319
845.389	24232
845.525	24186
845.661	24171
845.798	24060
845.934	24155
846.07	24106
846.206	23992
846.342	24220
846.478	23958
846.614	23767
846.75	23726
846.886	23672
847.022	23916
847.158	23828
847.294	23760
847.429	23687
847.565	23657
847.701	23897
847.837	23528
847.972	23592
848.108	23505
848.244	23531
848.379	23364
848.515	23425
848.65	23372
848.786	23353
848.921	23379
849.057	23444
849.192	23288
849.328	23421
849.463	23337
849.598	23197
849.734	23318
849.869	23185
850.004	23117
850.14	23162
850.275	23170
850.41	23159
850.545	23060
850.68	23022
850.815	23155
850.95	23056
851.085	23360
851.22	23208
851.355	23056
851.49	23189
851.625	23159
851.76	23132
851.895	23132
852.03	23029
852.165	23098
852.299	23147
852.434	23315
852.569	23132
852.703	23048
852.838	23117
852.973	23258
853.107	23345
853.242	23094
853.376	22896
853.511	22976
853.645	22881
853.78	22984
853.914	23010
854.048	22854
854.183	22915
854.317	22885
854.451	23216
854.585	22953
854.72	23018
854.854	23003
854.988	22953
855.122	22942
855.256	22831
855.39	22965
855.524	23037
855.658	22984
855.792	23003
855.926	23010
856.06	22866
856.194	22949
856.327	22968
856.461	22976
856.595	22828
856.729	22984
856.862	23033
856.996	22957
857.13	22972
857.263	23162
857.397	23044
857.53	22987
857.664	22987
857.797	23014
857.931	23052
858.064	22961
858.197	23102
858.331	22915
858.464	22835
858.597	22801
858.731	22915
858.864	22980
858.997	22968
859.13	22968
859.263	22885
859.396	23006
859.529	22847
859.662	22866
859.795	22889
859.928	23006
860.061	23098
860.194	23147
860.327	23029
860.46	23033
860.592	23037
860.725	22961
860.858	23143
860.99	22915
861.123	22862
861.256	22896
861.388	22987
861.521	23528
861.653	22824
861.786	22668
861.918	22721
862.05	22892
862.183	22786
862.315	22908
862.447	22923
862.58	22858
862.712	22641
862.844	22622
862.976	22664
863.108	22763
863.24	23128
863.372	22573
863.504	22675
863.636	22763
863.768	22698
863.9	22797
864.032	22546
864.164	22656
864.296	22729
864.428	22706
864.559	22660
864.691	22691
864.823	22725
864.954	22550
865.086	22706
865.217	22694
865.349	22276
865.48	22542
865.612	22493
865.743	22653
865.875	22462
866.006	22538
866.137	22478
866.269	22527
866.4	22546
866.531	22459
866.662	22382
866.793	22508
866.924	22504
867.055	22497
867.186	22356
867.317	22447
867.448	22421
867.579	22512
867.71	22363
867.841	22246
867.972	22451
868.103	22356
868.233	22489
868.364	22478
868.495	22546
868.625	22736
868.756	22820
868.886	22664
869.017	22725
869.147	22828
869.278	22812
869.408	22637
869.539	22592
869.669	22687
869.799	22706
869.929	22862
870.06	22892
870.19	23075
870.32	22987
870.45	23014
870.58	23067
870.71	23079
870.84	23128
870.97	23185
871.1	23052
871.23	23269
871.36	23208
871.489	23239
871.619	23353
871.749	23231
871.879	23307
872.008	23433
872.138	23322
872.267	23193
872.397	23197
872.526	23189
872.656	23117
872.785	23216
872.915	23334
873.044	23395
873.173	23269
873.303	23349
873.432	23440
873.561	23524
873.69	23334
873.819	23166
873.948	23395
874.077	23261
874.206	23185
874.335	23212
874.464	23353
874.593	23611
874.722	23509
874.851	23657
874.979	23653
875.108	23547
875.237	23486
875.365	23444
875.494	23433
875.623	23600
875.751	23452
875.88	23493
876.008	23691
876.136	23630
876.265	23988
876.393	24011
876.521	24098
876.65	23897
876.778	23901
876.906	24030
877.034	23882
877.162	23847
877.29	23760
877.418	23870
877.546	23897
877.674	23878
877.802	23771
877.93	23897
878.058	23878
878.185	23771
878.313	23733
878.441	23798
878.568	23672
878.696	23783
878.824	23923
878.951	23931
879.079	23977
879.206	24140
879.333	24011
879.461	23809
879.588	23980
879.715	23965
879.842	24087
879.97	23882
880.097	23695
880.224	23665
880.351	23687
880.478	23786
880.605	23589
880.732	23665
880.859	23958
880.986	23764
881.112	23687
881.239	23577
881.366	23459
881.493	23235
881.619	23360
881.746	23360
881.872	23223
881.999	23223
882.125	23105
882.252	23307
882.378	23159
882.505	23345
882.631	23083
882.757	22900
882.883	23056
883.01	22847
883.136	22839
883.262	22793
883.388	22748
883.514	22930
883.64	22759
883.766	22885
883.892	22675
884.018	22554
884.143	22900
884.269	22949
884.395	22736
884.52	22546
884.646	22485
884.772	22478
884.897	22462
885.023	22531
885.148	22512
885.274	22790
885.399	22687
885.524	22523
885.65	22573
885.775	22500
885.9	22531
886.025	22569
886.15	22721
886.275	22440
886.4	22462
886.525	22421
886.65	22405
886.775	22356
886.9	22687
887.025	22710
887.149	22470
887.274	22257
887.399	22352
887.523	22299
887.648	22341
887.773	22242
887.897	22352
888.021	22310
888.146	22166
888.27	22459
888.395	22322
888.519	22280
888.643	22409
888.767	22436
888.891	22124
889.015	22116
889.139	22059
889.263	21937
889.387	22382
889.511	22257
889.635	22215
889.759	22055
889.883	22070
890.006	22051
890.13	22150
890.254	21998
890.377	22063
890.501	21915
890.624	21724
890.748	21873
890.871	21778
890.995	21564
891.118	21618
891.241	21656
891.364	21553
891.488	21709
891.611	21686
891.734	21549
891.857	21652
891.98	21690
892.103	21610
892.226	21530
892.349	21439
892.471	21454
892.594	21428
892.717	21633
892.839	21580
892.962	21549
893.085	21545
893.207	21568
893.33	21454
893.452	21405
893.575	21504
893.697	21431
893.819	21656
893.941	21656
894.064	21625
894.186	21477
894.308	21424
894.43	21595
894.552	21686
894.674	21648
894.796	21397
894.918	21504
895.04	21367
895.161	21504
895.283	21583
895.405	21424
895.526	21500
895.648	21458
895.769	21507
895.891	21462
896.012	21515
896.134	21511
896.255	21534
896.376	21507
896.498	21355
896.619	21477
896.74	21519
896.861	21599
896.982	21808
897.103	21903
897.224	21720
897.345	21732
897.466	21549
897.587	21564
897.708	21625
897.828	21724
897.949	21591
898.07	21515
898.19	21625
898.311	21747
898.431	21641
898.552	21663
898.672	21652
898.792	21660
898.913	21717
899.033	21526
899.153	21367
899.273	21344
899.393	21279
899.513	21367
899.633	21389
899.753	21428
899.873	21287
899.993	21325
900.113	21249
900.232	21332
900.352	21226
900.472	21119
900.591	21119
900.711	21138
900.83	21066
900.95	21157
901.069	21150
901.189	21100
901.308	20880
901.427	20636
901.546	20708
901.665	20800
901.784	20705
901.904	20564
902.023	20533
902.141	20221
902.26	20240
902.379	20442
902.498	20309
902.617	20267
902.735	20233
902.854	20176
902.973	19974
903.091	19951
903.21	19830
903.328	19818
903.446	19822
903.565	19753
903.683	19597
903.801	19582
903.919	19571
904.038	19597
904.156	19540
904.274	19426
904.392	19411
904.51	19495
904.627	19373
904.745	19457
904.863	19495
904.981	19316
905.098	19129
905.216	19110
905.334	19107
905.451	19080
905.569	19050
905.686	19133
905.803	19031
905.921	18837
906.038	18798
906.155	18920
906.272	18802
906.389	18829
906.506	18650
906.623	18627
906.74	18498
906.857	18475
906.974	18433
907.091	18566
907.208	18726
907.324	18620
907.441	18525
907.557	18403
907.674	18254
907.79	18209
907.907	18228
908.023	18247
908.139	18254
908.256	18292
908.372	18178
908.488	18064
908.604	18102
908.72	17988
908.836	17984
908.952	17973
909.068	17984
909.184	18228
909.3	17916
909.415	18106
909.531	17969
909.647	17798
909.762	17710
909.878	17676
909.993	17726
910.108	17638
910.224	17634
910.339	17627
910.454	17581
910.57	17551
910.685	17455
910.8	17680
910.915	17611
911.03	17505
911.145	17337
911.259	17250
911.374	17292
911.489	17166
911.604	17166
911.718	17151
911.833	17041
911.947	16961
912.062	16774
912.176	16980
912.291	16946
912.405	16961
912.519	17140
912.633	17227
912.748	17105
912.862	17033
912.976	16843
913.09	16702
913.204	16839
913.318	16763
913.431	16809
913.545	16892
913.659	16965
913.772	16831
913.886	16641
914	16561
914.113	16691
914.226	16790
914.34	16615
914.453	16500
914.566	16660
914.68	16481
914.793	16588
914.906	16284
915.019	16097
915.132	16230
915.245	16162
915.358	16158
915.47	16322
915.583	16105
915.696	16131
915.809	16280
915.921	16329
916.034	16200
916.146	16010
916.259	15956
916.371	16093
916.483	16105
916.595	15987
916.708	15975
916.82	15998
916.932	15899
917.044	15968
917.156	15884
917.268	15762
917.38	15907
917.491	15762
917.603	15766
917.715	15915
917.826	15907
917.938	15724
918.049	15610
918.161	15831
918.272	15930
918.384	15869
918.495	15724
918.606	15530
918.717	15481
918.828	15584
918.939	15542
919.05	15435
919.161	15496
919.272	15298
919.383	15363
919.494	15549
919.604	15789
919.715	15473
919.826	15359
919.936	15511
920.047	15523
920.157	15363
920.267	15679
920.378	15526
920.488	15412
920.598	15610
920.708	15778
920.818	15534
920.928	15603
921.038	15850
921.148	15656
921.258	15340
921.368	15367
921.477	15275
921.587	15237
921.697	15066
921.806	15214
921.916	15051
922.025	14941
922.134	14785
922.244	14727
922.353	14800
922.462	14678
922.571	14693
922.68	14552
922.789	14480
922.898	14564
923.007	14374
923.116	14514
923.224	14309
923.333	14450
923.442	14305
923.55	14275
923.659	14324
923.767	14362
923.876	14263
923.984	14317
924.092	14126
924.201	14317
924.309	14176
924.417	14168
924.525	14058
924.633	14111
924.741	14819
924.849	13845
924.956	14039
925.064	13780
925.172	13761
925.279	13814
925.387	13849
925.494	13772
925.602	13982
925.709	13826
925.816	13651
925.924	13689
926.031	13803
926.138	13772
926.245	13746
926.352	13556
926.459	13731
926.566	13776
926.673	13651
926.779	13643
926.886	13487
926.993	13369
927.099	13434
927.206	13339
927.312	13308
927.419	13392
927.525	13263
927.631	13289
927.737	13183
927.843	13209
927.95	12958
928.056	13133
928.162	13168
928.267	13156
928.373	13746
928.479	13145
928.585	12954
928.69	13015
928.796	13110
928.901	12966
929.007	12882
929.112	13004
929.218	12935
929.323	12894
929.428	12886
929.533	12916
929.638	12707
929.743	12806
929.848	12810
929.953	12814
930.058	12604
930.163	12517
930.267	12521
930.372	12616
930.477	12452
930.581	12692
930.685	12521
930.79	12361
930.894	12361
930.998	12365
931.103	12498
931.207	12152
931.311	12041
931.415	11961
931.519	11703
931.623	11668
