Data from test_V78500241_456.txt Node
Date: Fri Mar 25 15:44:57 CST 2022
User: usil
Spectrometer: V785-0024
Trigger mode: 0
Integration Time (sec): 4.000000E-1
Scans to average: 1
Nonlinearity correction enabled: false
Boxcar width: 0
Storing dark spectrum: false
XAxis mode: Wavelengths
Number of Pixels in Spectrum: 1024
>>>>>Begin Spectral Data<<<<<
801.071	28459
801.214	28322
801.356	28169
801.499	28109
801.641	27854
801.783	27911
801.926	28036
802.068	27991
802.211	27819
802.353	27755
802.496	27538
802.638	27576
802.78	27679
802.923	27530
803.065	27462
803.208	27591
803.35	27553
803.492	27625
803.635	27625
803.777	27728
803.919	27686
804.061	27926
804.204	27789
804.346	27698
804.488	27466
804.63	27656
804.773	27466
804.915	27781
805.057	27850
805.199	27603
805.341	27850
805.483	27800
805.626	27751
805.768	27728
805.91	27724
806.052	27816
806.194	27774
806.336	27983
806.478	27831
806.62	27774
806.762	27979
806.904	28059
807.046	28352
807.188	28310
807.33	28090
807.472	28329
807.614	28032
807.756	28154
807.898	28143
808.04	28128
808.182	27960
808.324	28093
808.465	28116
808.607	28284
808.749	28386
808.891	28489
809.033	28630
809.174	28497
809.316	28565
809.458	28443
809.6	28500
809.741	28523
809.883	28683
810.025	28580
810.166	28725
810.308	28885
810.45	28611
810.591	28717
810.733	28527
810.875	28371
811.016	28318
811.158	28432
811.299	28596
811.441	28580
811.582	28603
811.724	28485
811.865	28329
812.007	28367
812.148	28428
812.29	28401
812.431	28561
812.573	28900
812.714	28911
812.855	29010
812.997	29041
813.138	29174
813.279	29117
813.421	29136
813.562	29029
813.703	28748
813.845	28767
813.986	28478
814.127	28188
814.268	28063
814.41	28051
814.551	28147
814.692	28150
814.833	28086
814.974	28032
815.115	27968
815.256	27949
815.397	27911
815.539	28078
815.68	27797
815.821	27770
815.962	27724
816.103	27968
816.244	27774
816.385	27603
816.526	27652
816.666	27477
816.807	27214
816.948	27496
817.089	27595
817.23	27416
817.371	27374
817.512	27389
817.653	27211
817.793	27230
817.934	27393
818.075	27325
818.216	27416
818.356	27173
818.497	27218
818.638	27024
818.778	27123
818.919	27089
819.06	27062
819.2	27218
819.341	27393
819.481	27230
819.622	27359
819.762	27644
819.903	27519
820.043	27622
820.184	27450
820.324	27523
820.465	27458
820.605	27469
820.746	27447
820.886	27222
821.026	27488
821.167	27233
821.307	27382
821.447	27408
821.588	27192
821.728	27173
821.868	26918
822.008	26667
822.149	26727
822.289	26769
822.429	26461
822.569	26370
822.709	26450
822.849	26229
822.99	26145
823.13	26199
823.27	26084
823.41	26065
823.55	25925
823.69	26134
823.83	26012
823.97	25993
824.11	25727
824.25	25852
824.389	25849
824.529	25868
824.669	25906
824.809	25951
824.949	25928
825.089	25928
825.228	25769
825.368	25772
825.508	25784
825.648	25769
825.787	25677
825.927	25833
826.067	25651
826.206	25757
826.346	25795
826.485	25883
826.625	25677
826.765	25822
826.904	25772
827.044	25510
827.183	25434
827.323	25483
827.462	25460
827.601	25400
827.741	25312
827.88	25419
828.02	25381
828.159	25346
828.298	25362
828.437	25476
828.577	25453
828.716	25529
828.855	25316
828.994	25217
829.134	25091
829.273	25122
829.412	25095
829.551	25122
829.69	25046
829.829	25012
829.968	25141
830.107	25175
830.246	25107
830.385	25080
830.524	24966
830.663	24966
830.802	24897
830.941	24700
831.08	24681
831.219	24673
831.357	24711
831.496	24875
831.635	24665
831.774	24589
831.913	24513
832.051	24513
832.19	24460
832.329	24517
832.467	24346
832.606	24475
832.744	24334
832.883	24281
833.022	24315
833.16	24353
833.299	24384
833.437	24346
833.576	24323
833.714	24414
833.852	24357
833.991	24388
834.129	24502
834.267	24582
834.406	24365
834.544	24304
834.682	24399
834.821	24384
834.959	24486
835.097	24296
835.235	24384
835.373	24448
835.511	24220
835.65	24136
835.788	24304
835.926	24072
836.064	24011
836.202	24083
836.34	24148
836.478	24289
836.615	24148
836.753	24266
836.891	24277
837.029	24315
837.167	24152
837.305	24133
837.443	24064
837.58	23988
837.718	24125
837.856	24053
837.993	23855
838.131	23958
838.269	23897
838.406	23916
838.544	23843
838.681	23703
838.819	23630
838.956	23471
839.094	23414
839.231	23535
839.369	23520
839.506	23798
839.643	23775
839.781	23486
839.918	23429
840.055	23493
840.193	23372
840.33	23227
840.467	23455
840.604	23436
840.742	23756
840.879	23246
841.016	23356
841.153	23315
841.29	23501
841.427	23383
841.564	23467
841.701	23398
841.838	23204
841.975	23121
842.112	23239
842.249	23143
842.385	23109
842.522	23356
842.659	23227
842.796	23105
842.933	23197
843.069	22999
843.206	23064
843.343	23189
843.479	23204
843.616	23143
843.752	22862
843.889	22877
844.025	22946
844.162	22771
844.298	22942
844.435	22892
844.571	22900
844.708	22987
844.844	22942
844.98	22961
845.117	22900
845.253	22843
845.389	22733
845.525	22748
845.661	22725
845.798	22607
845.934	22698
846.07	22584
846.206	22653
846.342	22649
846.478	22580
846.614	22367
846.75	22284
846.886	22379
847.022	22348
847.158	22257
847.294	22253
847.429	22390
847.565	22207
847.701	22485
847.837	21994
847.972	22002
848.108	22158
848.244	22135
848.379	22036
848.515	22002
848.65	21899
848.786	21854
848.921	21903
849.057	21998
849.192	21861
849.328	21903
849.463	21854
849.598	21816
849.734	21637
849.869	21797
850.004	21648
850.14	21739
850.275	21637
850.41	21591
850.545	21568
850.68	21686
850.815	21663
850.95	21519
851.085	21770
851.22	21808
851.355	21641
851.49	21732
851.625	21557
851.76	21778
851.895	21515
852.03	21557
852.165	21759
852.299	21595
852.434	21667
852.569	21709
852.703	21519
852.838	21762
852.973	21785
853.107	21675
853.242	21526
853.376	21564
853.511	21443
853.645	21321
853.78	21622
853.914	21370
854.048	21408
854.183	21469
854.317	21561
854.451	21629
854.585	21424
854.72	21363
854.854	21504
854.988	21408
855.122	21435
855.256	21313
855.39	21420
855.524	21473
855.658	21424
855.792	21412
855.926	21431
856.06	21473
856.194	21477
856.327	21397
856.461	21359
856.595	21313
856.729	21351
856.862	21526
856.996	21595
857.13	21534
857.263	21587
857.397	21591
857.53	21542
857.664	21450
857.797	21534
857.931	21538
858.064	21488
858.197	21450
858.331	21374
858.464	21329
858.597	21298
858.731	21386
858.864	21431
858.997	21435
859.13	21447
859.263	21393
859.396	21561
859.529	21367
859.662	21310
859.795	21378
859.928	21496
860.061	21534
860.194	21622
860.327	21515
860.46	21412
860.592	21507
860.725	21603
860.858	21629
860.99	21481
861.123	21287
861.256	21321
861.388	21351
861.521	21945
861.653	21272
861.786	21264
861.918	21359
862.05	21424
862.183	21355
862.315	21405
862.447	21447
862.58	21382
862.712	21112
862.844	21051
862.976	21218
863.108	21245
863.24	21526
863.372	21127
863.504	21146
863.636	21222
863.768	21096
863.9	21043
864.032	21154
864.164	21123
864.296	21195
864.428	21138
864.559	21180
864.691	21157
864.823	21165
864.954	21036
865.086	21028
865.217	20982
865.349	20891
865.48	21055
865.612	20956
865.743	21058
865.875	21062
866.006	20952
866.137	20971
866.269	20937
866.4	21032
866.531	20914
866.662	20872
866.793	20956
866.924	20937
867.055	21074
867.186	20975
867.317	20921
867.448	20883
867.579	20853
867.71	20895
867.841	20864
867.972	20990
868.103	20956
868.233	21062
868.364	20895
868.495	21024
868.625	21123
868.756	21180
868.886	21119
869.017	21173
869.147	21294
869.278	21272
869.408	21055
869.539	21173
869.669	21230
869.799	21142
869.929	21351
870.06	21317
870.19	21454
870.32	21530
870.45	21591
870.58	21568
870.71	21568
870.84	21709
870.97	21576
871.1	21622
871.23	21766
871.36	21663
871.489	21694
871.619	21709
871.749	21778
871.879	21778
872.008	21930
872.138	21778
872.267	21701
872.397	21648
872.526	21717
872.656	21595
872.785	21580
872.915	21770
873.044	21838
873.173	21785
873.303	21766
873.432	21831
873.561	21888
873.69	21922
873.819	21797
873.948	21953
874.077	21846
874.206	21812
874.335	21816
874.464	21926
874.593	22017
874.722	22017
874.851	22063
874.979	22105
875.108	22006
875.237	22021
875.365	21884
875.494	21934
875.623	22166
875.751	21915
875.88	21937
876.008	22147
876.136	22287
876.265	22478
876.393	22523
876.521	22402
876.65	22523
876.778	22485
876.906	22284
877.034	22466
877.162	22421
877.29	22341
877.418	22363
877.546	22360
877.674	22306
877.802	22333
877.93	22295
878.058	22303
878.185	22322
878.313	22352
878.441	22421
878.568	22272
878.696	22356
878.824	22386
878.951	22481
879.079	22500
879.206	22691
879.333	22698
879.461	22363
879.588	22508
879.715	22512
879.842	22679
879.97	22489
880.097	22276
880.224	22150
880.351	22333
880.478	22211
880.605	22105
880.732	22211
880.859	22440
880.986	22284
881.112	22150
881.239	22154
881.366	21869
881.493	21926
881.619	21705
881.746	21854
881.872	21736
881.999	21793
882.125	21797
882.252	21804
882.378	21808
882.505	21865
882.631	21679
882.757	21477
882.883	21648
883.01	21534
883.136	21412
883.262	21252
883.388	21348
883.514	21408
883.64	21450
883.766	21408
883.892	21310
884.018	21378
884.143	21420
884.269	21469
884.395	21184
884.52	21249
884.646	21093
884.772	21001
884.897	21009
885.023	21195
885.148	21218
885.274	21268
885.399	21252
885.524	21055
885.65	21058
885.775	21112
885.9	21047
886.025	21123
886.15	21135
886.275	21066
886.4	21005
886.525	21039
886.65	21062
886.775	21051
886.9	21116
887.025	21268
887.149	21085
887.274	20845
887.399	20853
887.523	20834
887.648	20781
887.773	20834
887.897	20883
888.021	20941
888.146	20788
888.27	21017
888.395	20925
888.519	20872
888.643	20838
888.767	20952
888.891	20758
889.015	20804
889.139	20613
889.263	20754
889.387	20785
889.511	20830
889.635	20781
889.759	20617
889.883	20682
890.006	20674
890.13	20731
890.254	20655
890.377	20659
890.501	20450
890.624	20339
890.748	20438
890.871	20332
890.995	20221
891.118	20119
891.241	20202
891.364	20275
891.488	20317
891.611	20161
891.734	20134
891.857	20267
891.98	20199
892.103	20286
892.226	20218
892.349	20218
892.471	20054
892.594	20172
892.717	20164
892.839	20077
892.962	20138
893.085	20172
893.207	20130
893.33	20138
893.452	20008
893.575	20145
893.697	20142
893.819	20267
893.941	20385
894.064	20259
894.186	20100
894.308	20050
894.43	20149
894.552	20298
894.674	20130
894.796	20096
894.918	20145
895.04	20176
895.161	20267
895.283	20214
895.405	20005
895.526	20168
895.648	20191
895.769	20199
895.891	20180
896.012	20275
896.134	20282
896.255	20233
896.376	20092
896.498	20229
896.619	20172
896.74	20172
896.861	20282
896.982	20495
897.103	20648
897.224	20408
897.345	20438
897.466	20317
897.587	20473
897.708	20495
897.828	20438
897.949	20275
898.07	20275
898.19	20320
898.311	20495
898.431	20324
898.552	20237
898.672	20370
898.792	20465
898.913	20339
899.033	20309
899.153	20122
899.273	20081
899.393	20096
899.513	20065
899.633	20210
899.753	20225
899.873	20065
899.993	20043
900.113	20073
900.232	20054
900.352	19944
900.472	19959
900.591	19826
900.711	19932
900.83	19883
900.95	19963
901.069	19951
901.189	19772
901.308	19464
901.427	19594
901.546	19430
901.665	19460
901.784	19502
901.904	19373
902.023	19251
902.141	19072
902.26	19008
902.379	19057
902.498	18958
902.617	19012
902.735	19091
902.854	18871
902.973	18947
903.091	18703
903.21	18726
903.328	18631
903.446	18509
903.565	18486
903.683	18445
903.801	18300
903.919	18384
904.038	18350
904.156	18182
904.274	18232
904.392	18076
904.51	18163
904.627	18262
904.745	18186
904.863	18262
904.981	18136
905.098	17904
905.216	17973
905.334	17988
905.451	17882
905.569	17779
905.686	17885
905.803	17927
905.921	17714
906.038	17733
906.155	17676
906.272	17509
906.389	17478
906.506	17402
906.623	17459
906.74	17433
906.857	17360
906.974	17356
907.091	17486
907.208	17512
907.324	17490
907.441	17242
907.557	17239
907.674	17128
907.79	16980
907.907	17151
908.023	17208
908.139	17086
908.256	17056
908.372	16942
908.488	16957
908.604	16866
908.72	16725
908.836	16866
908.952	16793
909.068	16892
909.184	16869
909.3	16755
909.415	16790
909.531	16752
909.647	16500
909.762	16462
909.878	16466
909.993	16512
910.108	16402
910.224	16436
910.339	16424
910.454	16322
910.57	16329
910.685	16257
910.8	16489
910.915	16356
911.03	16363
911.145	16078
911.259	16120
911.374	16147
911.489	15964
911.604	16044
911.718	15861
911.833	15850
911.947	15743
912.062	15690
912.176	15876
912.291	15960
912.405	15850
912.519	16036
912.633	16135
912.748	15831
912.862	15854
912.976	15675
913.09	15538
913.204	15603
913.318	15660
913.431	15660
913.545	15701
913.659	15747
913.772	15606
913.886	15443
914	15462
914.113	15511
914.226	15564
914.34	15534
914.453	15443
914.566	15496
914.68	15336
914.793	15355
914.906	15154
915.019	15184
915.132	15058
915.245	15070
915.358	15211
915.47	15131
915.583	15150
915.696	15032
915.809	15195
915.921	15119
916.034	15001
916.146	14952
916.259	14986
916.371	15036
916.483	15017
916.595	14998
916.708	14876
916.82	14952
916.932	14914
917.044	14830
917.156	14826
917.268	14731
917.38	14788
917.491	14689
917.603	14807
917.715	14765
917.826	14758
917.938	14636
918.049	14594
918.161	14735
918.272	14781
918.384	14739
918.495	14655
918.606	14461
918.717	14370
918.828	14450
918.939	14492
919.05	14347
919.161	14442
919.272	14263
919.383	14385
919.494	14537
919.604	14655
919.715	14415
919.826	14427
919.936	14408
920.047	14492
920.157	14499
920.267	14583
920.378	14408
920.488	14385
920.598	14579
920.708	14849
920.818	14556
920.928	14648
921.038	14644
921.148	14746
921.258	14393
921.368	14294
921.477	14195
921.587	14115
921.697	14100
921.806	14256
921.916	14058
922.025	13864
922.134	13811
922.244	13727
922.353	13906
922.462	13658
922.571	13651
922.68	13506
922.789	13419
922.898	13510
923.007	13308
923.116	13422
923.224	13476
923.333	13362
923.442	13320
923.55	13293
923.659	13251
923.767	13312
923.876	13213
923.984	13308
924.092	13164
924.201	13145
924.309	13171
924.417	13084
924.525	13198
924.633	13076
924.741	13849
924.849	12935
924.956	13080
925.064	12901
925.172	12825
925.279	12783
925.387	12935
925.494	12829
925.602	13042
925.709	12928
925.816	12821
925.924	12867
926.031	12928
926.138	12772
926.245	12856
926.352	12745
926.459	12738
926.566	12837
926.673	12726
926.779	12703
926.886	12578
926.993	12486
927.099	12452
927.206	12369
927.312	12342
927.419	12475
927.525	12414
927.631	12448
927.737	12395
927.843	12262
927.95	12182
928.056	12201
928.162	12372
928.267	12277
928.373	12886
928.479	12342
928.585	12163
928.69	12235
928.796	12254
928.901	12148
929.007	11946
929.112	12053
929.218	12129
929.323	12007
929.428	11988
929.533	12045
929.638	11927
929.743	11980
929.848	12030
929.953	11950
930.058	11870
930.163	11729
930.267	11695
930.372	11847
930.477	11733
930.581	11851
930.685	11764
930.79	11604
930.894	11604
930.998	11600
931.103	11661
931.207	11349
931.311	11212
931.415	11155
931.519	10930
931.623	11067
