Data from test_V78500241_1134.txt Node
Date: Fri Mar 25 15:49:39 CST 2022
User: usil
Spectrometer: V785-0024
Trigger mode: 0
Integration Time (sec): 4.000000E-1
Scans to average: 1
Nonlinearity correction enabled: false
Boxcar width: 0
Storing dark spectrum: false
XAxis mode: Wavelengths
Number of Pixels in Spectrum: 1024
>>>>>Begin Spectral Data<<<<<
801.071	28413
801.214	28333
801.356	28051
801.499	27903
801.641	27838
801.783	27861
801.926	27880
802.068	27816
802.211	27850
802.353	27888
802.496	27618
802.638	27523
802.78	27523
802.923	27542
803.065	27351
803.208	27557
803.35	27515
803.492	27713
803.635	27804
803.777	27553
803.919	27785
804.061	28253
804.204	27873
804.346	27793
804.488	27736
804.63	27576
804.773	27679
804.915	27774
805.057	27770
805.199	27709
805.341	27979
805.483	27911
805.626	28044
805.768	27842
805.91	27941
806.052	27907
806.194	27850
806.336	28177
806.478	28021
806.62	28025
806.762	28082
806.904	28162
807.046	28341
807.188	28306
807.33	28489
807.472	28470
807.614	28329
807.756	28375
807.898	28219
808.04	28154
808.182	28204
808.324	28196
808.465	28356
808.607	28497
808.749	28573
808.891	28641
809.033	28881
809.174	28607
809.316	28489
809.458	28599
809.6	28710
809.741	28702
809.883	28694
810.025	28999
810.166	28828
810.308	28816
810.45	28873
810.591	28965
810.733	28672
810.875	28523
811.016	28455
811.158	28436
811.299	28706
811.441	28854
811.582	28885
811.724	28763
811.865	28466
812.007	28607
812.148	28634
812.29	28687
812.431	28759
812.573	28934
812.714	29060
812.855	29041
812.997	29117
813.138	29273
813.279	29318
813.421	29128
813.562	29147
813.703	28972
813.845	28854
813.986	28694
814.127	28413
814.268	28253
814.41	28379
814.551	28329
814.692	28306
814.833	28409
814.974	28299
815.115	28363
815.256	28143
815.397	28268
815.539	28223
815.68	28188
815.821	27975
815.962	28181
816.103	28036
816.244	28120
816.385	27918
816.526	27907
816.666	27743
816.807	27625
816.948	27755
817.089	27812
817.23	27561
817.371	27709
817.512	27614
817.653	27899
817.793	27686
817.934	27701
818.075	27599
818.216	27698
818.356	27622
818.497	27557
818.638	27302
818.778	27397
818.919	27408
819.06	27393
819.2	27439
819.341	27610
819.481	27576
819.622	27690
819.762	27987
819.903	27907
820.043	27842
820.184	27831
820.324	27778
820.465	27823
820.605	27690
820.746	27679
820.886	27583
821.026	27713
821.167	27637
821.307	27766
821.447	27625
821.588	27618
821.728	27439
821.868	27230
822.008	27089
822.149	27093
822.289	27142
822.429	26929
822.569	26929
822.709	26838
822.849	26545
822.99	26651
823.13	26522
823.27	26473
823.41	26434
823.55	26336
823.69	26526
823.83	26408
823.97	26427
824.11	26256
824.25	26225
824.389	26298
824.529	26404
824.669	26381
824.809	26286
824.949	26233
825.089	26438
825.228	26202
825.368	26134
825.508	26164
825.648	26103
825.787	26256
825.927	26176
826.067	26088
826.206	26134
826.346	26206
826.485	26164
826.625	26012
826.765	26233
826.904	26142
827.044	25830
827.183	25936
827.323	25742
827.462	25784
827.601	25871
827.741	25727
827.88	25818
828.02	25723
828.159	25807
828.298	25849
828.437	25928
828.577	25788
828.716	25890
828.855	25719
828.994	25578
829.134	25491
829.273	25632
829.412	25552
829.551	25521
829.69	25571
829.829	25552
829.968	25586
830.107	25597
830.246	25582
830.385	25533
830.524	25373
830.663	25396
830.802	25282
830.941	25129
831.08	25133
831.219	25202
831.357	25407
831.496	25240
831.635	25110
831.774	25137
831.913	25080
832.051	24992
832.19	25004
832.329	24954
832.467	24897
832.606	24741
832.744	24810
832.883	24856
833.022	24901
833.16	24852
833.299	24867
833.437	24886
833.576	24920
833.714	24871
833.852	25015
833.991	24920
834.129	24996
834.267	24897
834.406	24939
834.544	24932
834.682	24837
834.821	24787
834.959	24962
835.097	24703
835.235	24947
835.373	24920
835.511	24802
835.65	24642
835.788	24604
835.926	24597
836.064	24570
836.202	24620
836.34	24601
836.478	24798
836.615	24681
836.753	24479
836.891	24833
837.029	24726
837.167	24703
837.305	24513
837.443	24471
837.58	24445
837.718	24623
837.856	24654
837.993	24471
838.131	24505
838.269	24494
838.406	24517
838.544	24426
838.681	24182
838.819	24163
838.956	23977
839.094	23927
839.231	24098
839.369	24273
839.506	24395
839.643	24361
839.781	23999
839.918	24026
840.055	23954
840.193	23961
840.33	23904
840.467	23984
840.604	23843
840.742	24251
840.879	23904
841.016	23958
841.153	23885
841.29	24022
841.427	23958
841.564	23954
841.701	23942
841.838	24007
841.975	23775
842.112	23897
842.249	23748
842.385	23638
842.522	23885
842.659	23722
842.796	23676
842.933	23581
843.069	23573
843.206	23642
843.343	23703
843.479	23703
843.616	23707
843.752	23383
843.889	23539
844.025	23520
844.162	23463
844.298	23452
844.435	23471
844.571	23433
844.708	23543
844.844	23707
844.98	23570
845.117	23630
845.253	23315
845.389	23261
845.525	23376
845.661	23303
845.798	23181
845.934	23216
846.07	23083
846.206	23143
846.342	23292
846.478	23132
846.614	23048
846.75	22771
846.886	22866
847.022	22927
847.158	22976
847.294	22908
847.429	22831
847.565	22896
847.701	23128
847.837	22618
847.972	22573
848.108	22664
848.244	22675
848.379	22599
848.515	22481
848.65	22485
848.786	22573
848.921	22367
849.057	22519
849.192	22538
849.328	22557
849.463	22542
849.598	22493
849.734	22409
849.869	22402
850.004	22215
850.14	22325
850.275	22360
850.41	22112
850.545	22109
850.68	22211
850.815	22253
850.95	22253
851.085	22478
851.22	22329
851.355	22226
851.49	22177
851.625	22268
851.76	22207
851.895	22196
852.03	22101
852.165	22257
852.299	22356
852.434	22306
852.569	22291
852.703	22348
852.838	22276
852.973	22360
853.107	22246
853.242	22010
853.376	22101
853.511	21945
853.645	21956
853.78	22082
853.914	22067
854.048	22029
854.183	22013
854.317	22116
854.451	22215
854.585	22128
854.72	22017
854.854	22147
854.988	22101
855.122	22044
855.256	22029
855.39	22090
855.524	22166
855.658	22124
855.792	22135
855.926	22059
856.06	22124
856.194	22211
856.327	22109
856.461	21991
856.595	21972
856.729	22093
856.862	22055
856.996	22025
857.13	22150
857.263	22181
857.397	22135
857.53	22032
857.664	22105
857.797	22036
857.931	22139
858.064	22143
858.197	22063
858.331	22169
858.464	22074
858.597	21987
858.731	22128
858.864	22063
858.997	22021
859.13	22097
859.263	21964
859.396	22188
859.529	22169
859.662	22002
859.795	22086
859.928	22029
860.061	22280
860.194	22268
860.327	22021
860.46	22105
860.592	22249
860.725	22162
860.858	22173
860.99	22166
861.123	22017
861.256	21998
861.388	22036
861.521	22729
861.653	21926
861.786	21819
861.918	21880
862.05	21911
862.183	21922
862.315	22040
862.447	22032
862.58	22021
862.712	21648
862.844	21728
862.976	21884
863.108	21850
863.24	22310
863.372	21759
863.504	21827
863.636	21831
863.768	21743
863.9	21778
864.032	21667
864.164	21679
864.296	21728
864.428	21945
864.559	21892
864.691	21739
864.823	21739
864.954	21827
865.086	21759
865.217	21675
865.349	21572
865.48	21732
865.612	21633
865.743	21690
865.875	21515
866.006	21698
866.137	21622
866.269	21530
866.4	21549
866.531	21644
866.662	21606
866.793	21591
866.924	21576
867.055	21667
867.186	21622
867.317	21393
867.448	21492
867.579	21523
867.71	21447
867.841	21580
867.972	21530
868.103	21564
868.233	21686
868.364	21557
868.495	21717
868.625	21774
868.756	21903
868.886	21679
869.017	21720
869.147	21907
869.278	21911
869.408	21857
869.539	21831
869.669	21922
869.799	21884
869.929	21861
870.06	21865
870.19	22234
870.32	22093
870.45	22196
870.58	22154
870.71	22306
870.84	22287
870.97	22238
871.1	22268
871.23	22314
871.36	22459
871.489	22417
871.619	22398
871.749	22333
871.879	22592
872.008	22535
872.138	22557
872.267	22485
872.397	22238
872.526	22219
872.656	22276
872.785	22284
872.915	22470
873.044	22421
873.173	22519
873.303	22424
873.432	22367
873.561	22500
873.69	22497
873.819	22466
873.948	22531
874.077	22459
874.206	22314
874.335	22402
874.464	22668
874.593	22725
874.722	22672
874.851	22778
874.979	22672
875.108	22687
875.237	22672
875.365	22550
875.494	22656
875.623	22698
875.751	22786
875.88	22645
876.008	22862
876.136	22896
876.265	23067
876.393	23235
876.521	23113
876.65	23170
876.778	23083
876.906	22862
877.034	22991
877.162	23064
877.29	22843
877.418	23079
877.546	23003
877.674	22938
877.802	22957
877.93	22896
878.058	22908
878.185	22831
878.313	22946
878.441	22892
878.568	22759
878.696	22946
878.824	22949
878.951	22900
879.079	23178
879.206	23269
879.333	23223
879.461	23094
879.588	23067
879.715	23060
879.842	23235
879.97	23075
880.097	22812
880.224	22869
880.351	22915
880.478	22946
880.605	22850
880.732	22850
880.859	23079
880.986	22904
881.112	22847
881.239	22626
881.366	22546
881.493	22527
881.619	22443
881.746	22371
881.872	22382
881.999	22379
882.125	22280
882.252	22363
882.378	22322
882.505	22382
882.631	22295
882.757	22112
882.883	22284
883.01	21991
883.136	22048
883.262	21854
883.388	21953
883.514	22120
883.64	21998
883.766	22044
883.892	21865
884.018	21907
884.143	22029
884.269	22082
884.395	21812
884.52	21823
884.646	21701
884.772	21717
884.897	21656
885.023	21713
885.148	21873
885.274	21911
885.399	21816
885.524	21614
885.65	21717
885.775	21671
885.9	21652
886.025	21774
886.15	21747
886.275	21549
886.4	21538
886.525	21762
886.65	21690
886.775	21481
886.9	21816
887.025	21895
887.149	21724
887.274	21542
887.399	21523
887.523	21481
887.648	21443
887.773	21412
887.897	21561
888.021	21515
888.146	21401
888.27	21599
888.395	21530
888.519	21485
888.643	21485
888.767	21519
888.891	21382
889.015	21310
889.139	21351
889.263	21237
889.387	21359
889.511	21469
889.635	21405
889.759	21214
889.883	21176
890.006	21241
890.13	21492
890.254	21131
890.377	21214
890.501	21017
890.624	20948
890.748	21161
890.871	20872
890.995	21051
891.118	20781
891.241	20838
891.364	20910
891.488	20941
891.611	20849
891.734	20754
891.857	21058
891.98	20807
892.103	20769
892.226	20891
892.349	20720
892.471	20629
892.594	20701
892.717	20804
892.839	20720
892.962	20701
893.085	20792
893.207	20750
893.33	20579
893.452	20705
893.575	20834
893.697	20705
893.819	20804
893.941	20921
894.064	20868
894.186	20663
894.308	20712
894.43	20762
894.552	20819
894.674	20838
894.796	20716
894.918	20705
895.04	20609
895.161	20773
895.283	20773
895.405	20678
895.526	20693
895.648	20697
895.769	20712
895.891	20716
896.012	20781
896.134	20697
896.255	20731
896.376	20724
896.498	20678
896.619	20701
896.74	20682
896.861	20720
896.982	20979
897.103	21157
897.224	20952
897.345	20891
897.466	20861
897.587	20914
897.708	21051
897.828	20986
897.949	20914
898.07	20796
898.19	20887
898.311	20979
898.431	20853
898.552	20921
898.672	21131
898.792	20895
898.913	21028
899.033	20792
899.153	20590
899.273	20499
899.393	20617
899.513	20663
899.633	20670
899.753	20613
899.873	20575
899.993	20667
900.113	20518
900.232	20499
900.352	20492
900.472	20564
900.591	20324
900.711	20549
900.83	20408
900.95	20465
901.069	20454
901.189	20320
901.308	20073
901.427	20046
901.546	19959
901.665	19967
901.784	20046
901.904	19875
902.023	19791
902.141	19556
902.26	19468
902.379	19544
902.498	19369
902.617	19445
902.735	19544
902.854	19521
902.973	19411
903.091	19141
903.21	19114
903.328	19217
903.446	19179
903.565	18958
903.683	18920
903.801	18852
903.919	18947
904.038	18886
904.156	18741
904.274	18890
904.392	18726
904.51	18749
904.627	18730
904.745	18859
904.863	18715
904.981	18612
905.098	18483
905.216	18403
905.334	18395
905.451	18441
905.569	18380
905.686	18441
905.803	18357
905.921	18186
906.038	18224
906.155	18251
906.272	18079
906.389	18072
906.506	17950
906.623	18011
906.74	17927
906.857	17809
906.974	17798
907.091	17904
907.208	18076
907.324	17863
907.441	17824
907.557	17661
907.674	17767
907.79	17554
907.907	17611
908.023	17573
908.139	17608
908.256	17585
908.372	17482
908.488	17444
908.604	17376
908.72	17341
908.836	17318
908.952	17429
909.068	17326
909.184	17440
909.3	17303
909.415	17280
909.531	17410
909.647	17143
909.762	17090
909.878	17166
909.993	17090
910.108	17045
910.224	16980
910.339	17022
910.454	16835
910.57	16877
910.685	16771
910.8	17014
910.915	17041
911.03	16873
911.145	16634
911.259	16649
911.374	16596
911.489	16596
911.604	16527
911.718	16424
911.833	16504
911.947	16337
912.062	16272
912.176	16470
912.291	16382
912.405	16402
912.519	16603
912.633	16519
912.748	16379
912.862	16352
912.976	16215
913.09	16055
913.204	16139
913.318	16169
913.431	16261
913.545	16276
913.659	16299
913.772	16207
913.886	16006
914	15968
914.113	16112
914.226	16158
914.34	15975
914.453	15816
914.566	15972
914.68	15888
914.793	15800
914.906	15682
915.019	15572
915.132	15542
915.245	15526
915.358	15568
915.47	15561
915.583	15576
915.696	15641
915.809	15705
915.921	15747
916.034	15454
916.146	15405
916.259	15367
916.371	15572
916.483	15507
916.595	15424
916.708	15431
916.82	15431
916.932	15370
917.044	15321
917.156	15317
917.268	15298
917.38	15203
917.491	15154
917.603	15180
917.715	15268
917.826	15310
917.938	15146
918.049	15013
918.161	15165
918.272	15378
918.384	15252
918.495	15127
918.606	14910
918.717	14883
918.828	15055
918.939	15001
919.05	14918
919.161	15017
919.272	14765
919.383	14872
919.494	15089
919.604	15036
919.715	14952
919.826	14811
919.936	14811
920.047	15085
920.157	14933
920.267	15100
920.378	14895
920.488	14914
920.598	15112
920.708	15332
920.818	15093
920.928	15058
921.038	15211
921.148	15100
921.258	14811
921.368	14823
921.477	14644
921.587	14629
921.697	14541
921.806	14617
921.916	14492
922.025	14366
922.134	14275
922.244	14381
922.353	14305
922.462	14221
922.571	14088
922.68	13928
922.789	13936
922.898	13875
923.007	13947
923.116	13974
923.224	13902
923.333	13879
923.442	13784
923.55	13772
923.659	13616
923.767	13841
923.876	13727
923.984	13757
924.092	13681
924.201	13750
924.309	13636
924.417	13685
924.525	13510
924.633	13594
924.741	14286
924.849	13426
924.956	13510
925.064	13381
925.172	13293
925.279	13297
925.387	13354
925.494	13339
925.602	13483
925.709	13381
925.816	13206
925.924	13301
926.031	13244
926.138	13308
926.245	13289
926.352	13110
926.459	13365
926.566	13282
926.673	13152
926.779	13126
926.886	13023
926.993	12970
927.099	12856
927.206	12745
927.312	12863
927.419	12924
927.525	12867
927.631	12772
927.737	12760
927.843	12810
927.95	12582
928.056	12597
928.162	12738
928.267	12646
928.373	13316
928.479	12696
928.585	12563
928.69	12471
928.796	12658
928.901	12570
929.007	12330
929.112	12426
929.218	12490
929.323	12467
929.428	12445
929.533	12509
929.638	12372
929.743	12353
929.848	12350
929.953	12380
930.058	12228
930.163	12129
930.267	12197
930.372	12194
930.477	12049
930.581	12197
930.685	12079
930.79	11973
930.894	12076
930.998	11916
931.103	12053
931.207	11699
931.311	11672
931.415	11577
931.519	11440
931.623	11334
