Data from test_V78500241_413.txt Node
Date: Fri Mar 25 15:44:39 CST 2022
User: usil
Spectrometer: V785-0024
Trigger mode: 0
Integration Time (sec): 4.000000E-1
Scans to average: 1
Nonlinearity correction enabled: false
Boxcar width: 0
Storing dark spectrum: false
XAxis mode: Wavelengths
Number of Pixels in Spectrum: 1024
>>>>>Begin Spectral Data<<<<<
801.071	27968
801.214	28082
801.356	27857
801.499	27800
801.641	27736
801.783	27774
801.926	27766
802.068	27648
802.211	27477
802.353	27507
802.496	27317
802.638	27397
802.78	27287
802.923	27367
803.065	27351
803.208	27287
803.35	27294
803.492	27237
803.635	27412
803.777	27268
803.919	27488
804.061	27705
804.204	27340
804.346	27397
804.488	27291
804.63	27310
804.773	27222
804.915	27348
805.057	27618
805.199	27534
805.341	27549
805.483	27500
805.626	27507
805.768	27378
805.91	27462
806.052	27538
806.194	27492
806.336	27629
806.478	27603
806.62	27435
806.762	27667
806.904	27759
807.046	27998
807.188	27895
807.33	27934
807.472	27937
807.614	27797
807.756	27835
807.898	27759
808.04	27656
808.182	27652
808.324	27831
808.465	27698
808.607	27926
808.749	27994
808.891	28226
809.033	28371
809.174	28173
809.316	28230
809.458	28086
809.6	28116
809.741	28352
809.883	28185
810.025	28390
810.166	28249
810.308	28428
810.45	28253
810.591	28371
810.733	28181
810.875	28017
811.016	27994
811.158	28032
811.299	28116
811.441	28261
811.582	28173
811.724	28124
811.865	28063
812.007	27972
812.148	27964
812.29	28017
812.431	28226
812.573	28356
812.714	28470
812.855	28603
812.997	28733
813.138	28812
813.279	28748
813.421	28733
813.562	28618
813.703	28337
813.845	28306
813.986	27945
814.127	27781
814.268	27831
814.41	27652
814.551	27701
814.692	27705
814.833	27663
814.974	27663
815.115	27762
815.256	27595
815.397	27568
815.539	27504
815.68	27447
815.821	27348
815.962	27515
816.103	27580
816.244	27405
816.385	27256
816.526	27211
816.666	26975
816.807	26921
816.948	26979
817.089	26887
817.23	27055
817.371	26937
817.512	27001
817.653	26899
817.793	26861
817.934	26838
818.075	26914
818.216	27024
818.356	26792
818.497	26834
818.638	26537
818.778	26777
818.919	26648
819.06	26636
819.2	26830
819.341	26887
819.481	26826
819.622	27039
819.762	27085
819.903	27218
820.043	27161
820.184	27116
820.324	26937
820.465	27085
820.605	27100
820.746	26921
820.886	26731
821.026	27055
821.167	26975
821.307	27142
821.447	26899
821.588	26823
821.728	26629
821.868	26526
822.008	26415
822.149	26233
822.289	26244
822.429	26043
822.569	26016
822.709	26069
822.849	25788
822.99	25727
823.13	25719
823.27	25750
823.41	25502
823.55	25491
823.69	25594
823.83	25662
823.97	25518
824.11	25392
824.25	25392
824.389	25358
824.529	25426
824.669	25445
824.809	25540
824.949	25514
825.089	25559
825.228	25400
825.368	25297
825.508	25324
825.648	25141
825.787	25362
825.927	25259
826.067	25240
826.206	25183
826.346	25365
826.485	25327
826.625	25240
826.765	25365
826.904	25293
827.044	24962
827.183	25012
827.323	24829
827.462	25034
827.601	24924
827.741	24924
827.88	25050
828.02	24707
828.159	24848
828.298	24848
828.437	24996
828.577	24913
828.716	24970
828.855	24806
828.994	24646
829.134	24692
829.273	24578
829.412	24578
829.551	24544
829.69	24631
829.829	24604
829.968	24703
830.107	24559
830.246	24616
830.385	24589
830.524	24460
830.663	24429
830.802	24327
830.941	24232
831.08	24315
831.219	24216
831.357	24277
831.496	24361
831.635	24209
831.774	24129
831.913	23996
832.051	24045
832.19	23897
832.329	24018
832.467	23942
832.606	23828
832.744	23779
832.883	23889
833.022	23802
833.16	23722
833.299	23813
833.437	23912
833.576	23950
833.714	23939
833.852	24041
833.991	23931
834.129	23992
834.267	23969
834.406	23783
834.544	23893
834.682	23764
834.821	23870
834.959	24098
835.097	23779
835.235	23965
835.373	23893
835.511	23726
835.65	23783
835.788	23802
835.926	23642
836.064	23501
836.202	23497
836.34	23638
836.478	23813
836.615	23832
836.753	23577
836.891	23745
837.029	23783
837.167	23661
837.305	23604
837.443	23524
837.58	23478
837.718	23554
837.856	23535
837.993	23520
838.131	23493
838.269	23448
838.406	23539
838.544	23261
838.681	23151
838.819	23159
838.956	22957
839.094	23025
839.231	22919
839.369	23197
839.506	23337
839.643	23128
839.781	22953
839.918	22980
840.055	22957
840.193	22980
840.33	22908
840.467	22854
840.604	23022
840.742	23147
840.879	22748
841.016	22824
841.153	22752
841.29	22946
841.427	22927
841.564	22942
841.701	22759
841.838	22748
841.975	22767
842.112	22653
842.249	22778
842.385	22607
842.522	22831
842.659	22805
842.796	22588
842.933	22599
843.069	22577
843.206	22694
843.343	22687
843.479	22615
843.616	22713
843.752	22455
843.889	22306
844.025	22481
844.162	22348
844.298	22531
844.435	22428
844.571	22280
844.708	22360
844.844	22462
844.98	22440
845.117	22466
845.253	22265
845.389	22196
845.525	22344
845.661	22192
845.798	22070
845.934	22219
846.07	22105
846.206	22143
846.342	22204
846.478	22063
846.614	21880
846.75	21762
846.886	21701
847.022	21823
847.158	21804
847.294	21895
847.429	21838
847.565	21717
847.701	22063
847.837	21568
847.972	21568
848.108	21720
848.244	21717
848.379	21462
848.515	21329
848.65	21283
848.786	21374
848.921	21363
849.057	21424
849.192	21477
849.328	21454
849.463	21336
849.598	21382
849.734	21230
849.869	21313
850.004	21123
850.14	21104
850.275	21131
850.41	21108
850.545	21150
850.68	21089
850.815	21127
850.95	21245
851.085	21367
851.22	21211
851.355	21108
851.49	21116
851.625	21032
851.76	21127
851.895	21051
852.03	21077
852.165	21077
852.299	21070
852.434	21218
852.569	21203
852.703	21089
852.838	21230
852.973	21233
853.107	21104
853.242	21032
853.376	20986
853.511	20815
853.645	20872
853.78	20963
853.914	20998
854.048	20872
854.183	20891
854.317	20986
854.451	21150
854.585	20895
854.72	20967
854.854	21093
854.988	20769
855.122	21009
855.256	20815
855.39	20845
855.524	20876
855.658	20986
855.792	20967
855.926	21001
856.06	20956
856.194	20937
856.327	20906
856.461	20807
856.595	20910
856.729	20960
856.862	21116
856.996	20876
857.13	21020
857.263	21077
857.397	21089
857.53	21017
857.664	20963
857.797	21024
857.931	21032
858.064	20948
858.197	20967
858.331	20895
858.464	20838
858.597	20861
858.731	20792
858.864	20971
858.997	20720
859.13	20933
859.263	20906
859.396	20967
859.529	20994
859.662	20937
859.795	20777
859.928	20792
860.061	21043
860.194	21066
860.327	20918
860.46	20998
860.592	21108
860.725	21199
860.858	20967
860.99	20857
861.123	20842
861.256	20705
861.388	20876
861.521	21439
861.653	20861
861.786	20697
861.918	20739
862.05	20830
862.183	20815
862.315	20819
862.447	20918
862.58	20845
862.712	20746
862.844	20606
862.976	20617
863.108	20667
863.24	21096
863.372	20503
863.504	20686
863.636	20549
863.768	20636
863.9	20644
864.032	20488
864.164	20564
864.296	20651
864.428	20724
864.559	20746
864.691	20663
864.823	20575
864.954	20617
865.086	20590
865.217	20560
865.349	20499
865.48	20545
865.612	20488
865.743	20476
865.875	20393
866.006	20552
866.137	20518
866.269	20495
866.4	20575
866.531	20450
866.662	20389
866.793	20374
866.924	20313
867.055	20442
867.186	20484
867.317	20446
867.448	20412
867.579	20488
867.71	20343
867.841	20362
867.972	20438
868.103	20446
868.233	20347
868.364	20286
868.495	20602
868.625	20697
868.756	20655
868.886	20541
869.017	20697
869.147	20796
869.278	20849
869.408	20712
869.539	20785
869.669	20788
869.799	20625
869.929	20792
870.06	20857
870.19	20975
870.32	20941
870.45	20963
870.58	21043
870.71	21203
870.84	21329
870.97	21047
871.1	20971
871.23	21218
871.36	21302
871.489	21157
871.619	21226
871.749	21310
871.879	21291
872.008	21477
872.138	21260
872.267	21321
872.397	21165
872.526	21131
872.656	21093
872.785	21222
872.915	21351
873.044	21420
873.173	21306
873.303	21237
873.432	21428
873.561	21431
873.69	21291
873.819	21329
873.948	21344
874.077	21272
874.206	21214
874.335	21188
874.464	21386
874.593	21534
874.722	21473
874.851	21485
874.979	21606
875.108	21637
875.237	21412
875.365	21408
875.494	21469
875.623	21610
875.751	21587
875.88	21538
876.008	21644
876.136	21835
876.265	21998
876.393	22059
876.521	22082
876.65	21979
876.778	21846
876.906	21869
877.034	21880
877.162	21987
877.29	21808
877.418	21956
877.546	21880
877.674	21823
877.802	21968
877.93	21880
878.058	21850
878.185	21781
878.313	21873
878.441	21846
878.568	21679
878.696	21720
878.824	21911
878.951	22048
879.079	22101
879.206	22093
879.333	22021
879.461	21994
879.588	21979
879.715	21945
879.842	22150
879.97	22044
880.097	21766
880.224	21682
880.351	21831
880.478	21686
880.605	21709
880.732	21690
880.859	21869
880.986	21637
881.112	21663
881.239	21568
881.366	21401
881.493	21412
881.619	21214
881.746	21249
881.872	21389
881.999	21359
882.125	21260
882.252	21272
882.378	21310
882.505	21412
882.631	21138
882.757	21127
882.883	21062
883.01	21070
883.136	20944
883.262	20727
883.388	20807
883.514	21058
883.64	21039
883.766	20891
883.892	20686
884.018	20720
884.143	20975
884.269	21032
884.395	20804
884.52	20739
884.646	20613
884.772	20575
884.897	20575
885.023	20609
885.148	20815
885.274	20777
885.399	20602
885.524	20613
885.65	20765
885.775	20754
885.9	20575
886.025	20807
886.15	20712
886.275	20651
886.4	20499
886.525	20541
886.65	20537
886.775	20518
886.9	20796
887.025	20876
887.149	20590
887.274	20461
887.399	20385
887.523	20358
887.648	20301
887.773	20355
887.897	20339
888.021	20454
888.146	20370
888.27	20469
888.395	20454
888.519	20450
888.643	20396
888.767	20537
888.891	20233
889.015	20252
889.139	20195
889.263	20168
889.387	20210
889.511	20381
889.635	20366
889.759	20199
889.883	20100
890.006	20210
890.13	20199
890.254	20130
890.377	20138
890.501	19898
890.624	19921
890.748	19951
890.871	19814
890.995	19780
891.118	19674
891.241	19799
891.364	19715
891.488	19890
891.611	19833
891.734	19772
891.857	19814
891.98	19864
892.103	19753
892.226	19822
892.349	19780
892.471	19586
892.594	19784
892.717	19753
892.839	19757
892.962	19742
893.085	19696
893.207	19727
893.33	19685
893.452	19552
893.575	19651
893.697	19540
893.819	19769
893.941	19868
894.064	19822
894.186	19723
894.308	19632
894.43	19833
894.552	19795
894.674	19753
894.796	19742
894.918	19719
895.04	19651
895.161	19723
895.283	19761
895.405	19635
895.526	19723
895.648	19814
895.769	19674
895.891	19681
896.012	19780
896.134	19677
896.255	19769
896.376	19696
896.498	19704
896.619	19814
896.74	19731
896.861	19791
896.982	20168
897.103	20084
897.224	19913
897.345	19982
897.466	19902
897.587	19959
897.708	20005
897.828	20012
897.949	19940
898.07	19788
898.19	19875
898.311	20081
898.431	19967
898.552	19902
898.672	20050
898.792	20008
898.913	19913
899.033	19772
899.153	19757
899.273	19525
899.393	19677
899.513	19708
899.633	19685
899.753	19708
899.873	19635
899.993	19696
900.113	19639
900.232	19590
900.352	19681
900.472	19616
900.591	19480
900.711	19552
900.83	19575
900.95	19620
901.069	19628
901.189	19415
901.308	19339
901.427	19148
901.546	19107
901.665	19137
901.784	19023
901.904	18951
902.023	18768
902.141	18749
902.26	18669
902.379	18661
902.498	18547
902.617	18525
902.735	18650
902.854	18452
902.973	18574
903.091	18224
903.21	18197
903.328	18148
903.446	18209
903.565	17923
903.683	18049
903.801	17878
903.919	17980
904.038	17935
904.156	17786
904.274	17893
904.392	17737
904.51	17809
904.627	17889
904.745	17843
904.863	17779
904.981	17657
905.098	17558
905.216	17539
905.334	17581
905.451	17573
905.569	17520
905.686	17509
905.803	17459
905.921	17223
906.038	17455
906.155	17288
906.272	17124
906.389	17140
906.506	17041
906.623	17056
906.74	17090
906.857	16854
906.974	16968
907.091	16946
907.208	17155
907.324	17022
907.441	16927
907.557	16733
907.674	16675
907.79	16683
907.907	16641
908.023	16679
908.139	16733
908.256	16558
908.372	16599
908.488	16535
908.604	16455
908.72	16440
908.836	16455
908.952	16379
909.068	16436
909.184	16531
909.3	16432
909.415	16462
909.531	16519
909.647	16181
909.762	16177
909.878	16181
909.993	16215
910.108	16181
910.224	16116
910.339	16185
910.454	16048
910.57	15994
910.685	15987
910.8	16097
910.915	16048
911.03	15941
911.145	15785
911.259	15785
911.374	15701
911.489	15755
911.604	15698
911.718	15473
911.833	15564
911.947	15416
912.062	15386
912.176	15572
912.291	15557
912.405	15564
912.519	15698
912.633	15770
912.748	15519
912.862	15572
912.976	15401
913.09	15298
913.204	15264
913.318	15173
913.431	15363
913.545	15428
913.659	15431
913.772	15344
913.886	15100
914	14994
914.113	15317
914.226	15287
914.34	15275
914.453	15024
914.566	15173
914.68	15055
914.793	15081
914.906	14868
915.019	14838
915.132	14773
915.245	14788
915.358	14785
915.47	14750
915.583	14826
915.696	14682
915.809	14925
915.921	14883
916.034	14731
916.146	14739
916.259	14663
916.371	14708
916.483	14663
916.595	14613
916.708	14598
916.82	14564
916.932	14583
917.044	14530
917.156	14476
917.268	14313
917.38	14507
917.491	14484
917.603	14495
917.715	14469
917.826	14488
917.938	14434
918.049	14271
918.161	14358
918.272	14473
918.384	14480
918.495	14393
918.606	14088
918.717	14176
918.828	14149
918.939	14199
919.05	14172
919.161	14191
919.272	13963
919.383	14016
919.494	14202
919.604	14370
919.715	14058
919.826	14077
919.936	14183
920.047	14263
920.157	14161
920.267	14309
920.378	14191
920.488	14069
920.598	14263
920.708	14442
920.818	14355
920.928	14339
921.038	14362
921.148	14339
921.258	14161
921.368	14024
921.477	13947
921.587	13932
921.697	13613
921.806	13906
921.916	13708
922.025	13548
922.134	13518
922.244	13441
922.353	13567
922.462	13499
922.571	13335
922.68	13217
922.789	13118
922.898	13187
923.007	13122
923.116	13110
923.224	13141
923.333	13103
923.442	13110
923.55	13019
923.659	13004
923.767	13069
923.876	12886
923.984	13072
924.092	12954
924.201	12943
924.309	12947
924.417	12924
924.525	12776
924.633	12837
924.741	13567
924.849	12681
924.956	12821
925.064	12555
925.172	12597
925.279	12593
925.387	12658
925.494	12642
925.602	12688
925.709	12654
925.816	12555
925.924	12521
926.031	12593
926.138	12578
926.245	12635
926.352	12456
926.459	12616
926.566	12684
926.673	12452
926.779	12346
926.886	12350
926.993	12216
927.099	12186
927.206	12155
927.312	12106
927.419	12224
927.525	12224
927.631	12190
927.737	12087
927.843	12030
927.95	11904
928.056	11893
928.162	11996
928.267	12053
928.373	12639
928.479	12125
928.585	11863
928.69	11961
928.796	12007
928.901	11813
929.007	11748
929.112	11851
929.218	11783
929.323	11775
929.428	11688
929.533	11920
929.638	11676
929.743	11737
929.848	11733
929.953	11649
930.058	11516
930.163	11474
930.267	11402
930.372	11558
930.477	11356
930.581	11630
930.685	11505
930.79	11341
930.894	11303
930.998	11303
931.103	11425
931.207	11102
931.311	10987
931.415	11071
931.519	10698
931.623	10645
