Data from test_V78500241_1788.txt Node
Date: Fri Mar 25 15:54:11 CST 2022
User: usil
Spectrometer: V785-0024
Trigger mode: 0
Integration Time (sec): 4.000000E-1
Scans to average: 1
Nonlinearity correction enabled: false
Boxcar width: 0
Storing dark spectrum: false
XAxis mode: Wavelengths
Number of Pixels in Spectrum: 1024
>>>>>Begin Spectral Data<<<<<
801.071	28246
801.214	28284
801.356	28166
801.499	27956
801.641	27819
801.783	27793
801.926	27972
802.068	27953
802.211	27743
802.353	27808
802.496	27625
802.638	27625
802.78	27736
802.923	27458
803.065	27599
803.208	27523
803.35	27587
803.492	27660
803.635	27759
803.777	27709
803.919	27827
804.061	28158
804.204	27816
804.346	27671
804.488	27698
804.63	27892
804.773	27816
804.915	27899
805.057	27907
805.199	27892
805.341	27968
805.483	28006
805.626	27960
805.768	27850
805.91	27960
806.052	27983
806.194	27922
806.336	27968
806.478	27983
806.62	27914
806.762	28082
806.904	28188
807.046	28519
807.188	28375
807.33	28455
807.472	28504
807.614	28409
807.756	28459
807.898	28196
808.04	28147
808.182	28234
808.324	28192
808.465	28306
808.607	28508
808.749	28656
808.891	28774
809.033	28797
809.174	28828
809.316	28668
809.458	28736
809.6	28615
809.741	28755
809.883	28774
810.025	28942
810.166	28828
810.308	28755
810.45	28953
810.591	28885
810.733	28790
810.875	28641
811.016	28500
811.158	28523
811.299	28717
811.441	28660
811.582	28885
811.724	28660
811.865	28592
812.007	28634
812.148	28546
812.29	28481
812.431	28767
812.573	29010
812.714	28976
812.855	29037
812.997	29277
813.138	29353
813.279	29307
813.421	29147
813.562	29204
813.703	28915
813.845	28752
813.986	28485
814.127	28424
814.268	28405
814.41	28379
814.551	28299
814.692	28398
814.833	28112
814.974	28284
815.115	28352
815.256	28185
815.397	28147
815.539	28223
815.68	28139
815.821	28070
815.962	28139
816.103	28048
816.244	27937
816.385	27956
816.526	27922
816.666	27701
816.807	27568
816.948	27682
817.089	27675
817.23	27736
817.371	27656
817.512	27633
817.653	27603
817.793	27435
817.934	27720
818.075	27618
818.216	27549
818.356	27618
818.497	27523
818.638	27291
818.778	27408
818.919	27374
819.06	27378
819.2	27500
819.341	27656
819.481	27595
819.622	27819
819.762	27968
819.903	27819
820.043	27701
820.184	27694
820.324	27785
820.465	27766
820.605	27675
820.746	27907
820.886	27549
821.026	27652
821.167	27751
821.307	27835
821.447	27614
821.588	27504
821.728	27633
821.868	27214
822.008	27275
822.149	27100
822.289	27074
822.429	26880
822.569	26769
822.709	26796
822.849	26564
822.99	26594
823.13	26674
823.27	26492
823.41	26488
823.55	26332
823.69	26545
823.83	26495
823.97	26412
824.11	26176
824.25	26229
824.389	26172
824.529	26240
824.669	26282
824.809	26286
824.949	26450
825.089	26286
825.228	26355
825.368	26012
825.508	26069
825.648	26142
825.787	26161
825.927	26320
826.067	26084
826.206	26039
826.346	26259
826.485	26157
826.625	25978
826.765	26256
826.904	26187
827.044	25902
827.183	25913
827.323	25807
827.462	25841
827.601	25830
827.741	25780
827.88	25898
828.02	25616
828.159	25959
828.298	25727
828.437	25936
828.577	25738
828.716	25879
828.855	25685
828.994	25575
829.134	25479
829.273	25605
829.412	25685
829.551	25529
829.69	25449
829.829	25647
829.968	25624
830.107	25525
830.246	25438
830.385	25415
830.524	25282
830.663	25358
830.802	25225
830.941	25164
831.08	25194
831.219	25209
831.357	25183
831.496	25316
831.635	25206
831.774	25000
831.913	25069
832.051	24970
832.19	24909
832.329	24951
832.467	24875
832.606	24768
832.744	24829
832.883	24665
833.022	24696
833.16	24802
833.299	25012
833.437	24852
833.576	24935
833.714	24901
833.852	24935
833.991	24920
834.129	24985
834.267	24852
834.406	24871
834.544	24928
834.682	24958
834.821	24833
834.959	25038
835.097	24783
835.235	24859
835.373	24871
835.511	24825
835.65	24703
835.788	24764
835.926	24547
836.064	24456
836.202	24521
836.34	24760
836.478	24829
836.615	24677
836.753	24700
836.891	24551
837.029	24563
837.167	24532
837.305	24544
837.443	24547
837.58	24536
837.718	24593
837.856	24650
837.993	24426
838.131	24665
838.269	24319
838.406	24513
838.544	24311
838.681	24167
838.819	24102
838.956	23954
839.094	24171
839.231	23923
839.369	24057
839.506	24319
839.643	24213
839.781	23965
839.918	23969
840.055	23950
840.193	24140
840.33	23840
840.467	23954
840.604	24041
840.742	24254
840.879	23813
841.016	23798
841.153	23726
841.29	24057
841.427	23809
841.564	23904
841.701	23904
841.838	23817
841.975	23710
842.112	23847
842.249	23703
842.385	23668
842.522	23855
842.659	23756
842.796	23604
842.933	23657
843.069	23680
843.206	23463
843.343	23558
843.479	23531
843.616	23710
843.752	23463
843.889	23608
844.025	23497
844.162	23433
844.298	23562
844.435	23406
844.571	23406
844.708	23379
844.844	23611
844.98	23600
845.117	23531
845.253	23387
845.389	23318
845.525	23155
845.661	23231
845.798	23086
845.934	23170
846.07	23128
846.206	23284
846.342	23273
846.478	23155
846.614	22908
846.75	22900
846.886	22793
847.022	22949
847.158	22896
847.294	22889
847.429	22786
847.565	22847
847.701	23166
847.837	22615
847.972	22645
848.108	22622
848.244	22812
848.379	22519
848.515	22565
848.65	22402
848.786	22405
848.921	22421
849.057	22569
849.192	22527
849.328	22527
849.463	22489
849.598	22432
849.734	22371
849.869	22371
850.004	22147
850.14	22261
850.275	22135
850.41	22173
850.545	22109
850.68	22280
850.815	22268
850.95	22223
851.085	22474
851.22	22280
851.355	22185
851.49	22166
851.625	22192
851.76	22215
851.895	22105
852.03	22173
852.165	22268
852.299	22196
852.434	22207
852.569	22246
852.703	22341
852.838	22322
852.973	22242
853.107	22322
853.242	22029
853.376	21972
853.511	21972
853.645	22051
853.78	22139
853.914	22158
854.048	22002
854.183	22029
854.317	22070
854.451	22249
854.585	21956
854.72	22002
854.854	22086
854.988	22051
855.122	22150
855.256	22002
855.39	22169
855.524	22143
855.658	22112
855.792	22063
855.926	21956
856.06	22112
856.194	22139
856.327	22013
856.461	22112
856.595	21975
856.729	21888
856.862	22196
856.996	22013
857.13	22143
857.263	22177
857.397	22093
857.53	21979
857.664	22078
857.797	22093
857.931	22226
858.064	22131
858.197	22105
858.331	21979
858.464	21987
858.597	21915
858.731	22090
858.864	21964
858.997	22006
859.13	22044
859.263	22029
859.396	22162
859.529	22036
859.662	22112
859.795	22021
859.928	21949
860.061	22204
860.194	22207
860.327	22120
860.46	22059
860.592	22147
860.725	22166
860.858	22181
860.99	21975
861.123	21941
861.256	22029
861.388	21983
861.521	22668
861.653	21876
861.786	21804
861.918	21838
862.05	22036
862.183	22021
862.315	22044
862.447	22059
862.58	21838
862.712	21682
862.844	21728
862.976	21846
863.108	21736
863.24	22207
863.372	21835
863.504	21800
863.636	21690
863.768	21698
863.9	21797
864.032	21751
864.164	21770
864.296	21781
864.428	21808
864.559	21720
864.691	21827
864.823	21789
864.954	21698
865.086	21751
865.217	21679
865.349	21549
865.48	21564
865.612	21625
865.743	21675
865.875	21671
866.006	21701
866.137	21549
866.269	21736
866.4	21568
866.531	21637
866.662	21504
866.793	21587
866.924	21572
867.055	21679
867.186	21705
867.317	21583
867.448	21572
867.579	21568
867.71	21568
867.841	21511
867.972	21519
868.103	21492
868.233	21477
868.364	21549
868.495	21652
868.625	21785
868.756	21918
868.886	21774
869.017	21850
869.147	21854
869.278	22013
869.408	21983
869.539	21797
869.669	21937
869.799	21751
869.929	21934
870.06	21972
870.19	22131
870.32	22029
870.45	22150
870.58	22112
870.71	22363
870.84	22348
870.97	22261
871.1	22185
871.23	22291
871.36	22424
871.489	22325
871.619	22303
871.749	22413
871.879	22440
872.008	22519
872.138	22432
872.267	22360
872.397	22276
872.526	22196
872.656	22200
872.785	22204
872.915	22409
873.044	22615
873.173	22474
873.303	22459
873.432	22516
873.561	22569
873.69	22462
873.819	22360
873.948	22497
874.077	22402
874.206	22344
874.335	22386
874.464	22447
874.593	22588
874.722	22554
874.851	22710
874.979	22607
875.108	22653
875.237	22603
875.365	22500
875.494	22538
875.623	22710
875.751	22656
875.88	22660
876.008	22660
876.136	22927
876.265	23022
876.393	23170
876.521	23090
876.65	23022
876.778	23132
876.906	23128
877.034	22896
877.162	23056
877.29	22930
877.418	23090
877.546	22908
877.674	22980
877.802	22953
877.93	23098
878.058	22957
878.185	22824
878.313	22976
878.441	23079
878.568	22953
878.696	22873
878.824	23048
878.951	23022
879.079	23197
879.206	23326
879.333	23064
879.461	23064
879.588	23132
879.715	23140
879.842	23273
879.97	23006
880.097	22892
880.224	22786
880.351	22782
880.478	22820
880.605	22816
880.732	22869
880.859	23056
880.986	22771
881.112	22805
881.239	22641
881.366	22516
881.493	22546
881.619	22424
881.746	22360
881.872	22398
881.999	22379
882.125	22249
882.252	22405
882.378	22436
882.505	22470
882.631	22219
882.757	22101
882.883	22158
883.01	22219
883.136	21983
883.262	21903
883.388	21937
883.514	22116
883.64	22124
883.766	21922
883.892	21838
884.018	21899
884.143	21903
884.269	22059
884.395	21812
884.52	21739
884.646	21743
884.772	21637
884.897	21629
885.023	21793
885.148	21701
885.274	21785
885.399	21827
885.524	21641
885.65	21755
885.775	21736
885.9	21644
886.025	21774
886.15	21800
886.275	21633
886.4	21496
886.525	21572
886.65	21652
886.775	21599
886.9	21679
887.025	21960
887.149	21595
887.274	21397
887.399	21416
887.523	21507
887.648	21428
887.773	21393
887.897	21526
888.021	21382
888.146	21302
888.27	21405
888.395	21488
888.519	21515
888.643	21500
888.767	21515
888.891	21291
889.015	21264
889.139	21359
889.263	21268
889.387	21279
889.511	21450
889.635	21336
889.759	21195
889.883	21192
890.006	21184
890.13	21348
890.254	21203
890.377	21264
890.501	21013
890.624	20967
890.748	21070
890.871	20948
890.995	20682
891.118	20842
891.241	20804
891.364	20842
891.488	21024
891.611	20781
891.734	20750
891.857	20788
891.98	20830
892.103	20849
892.226	20868
892.349	20826
892.471	20636
892.594	20655
892.717	20689
892.839	20701
892.962	20602
893.085	20743
893.207	20617
893.33	20499
893.452	20602
893.575	20796
893.697	20663
893.819	20891
893.941	20773
894.064	20762
894.186	20682
894.308	20632
894.43	20762
894.552	20804
894.674	20788
894.796	20689
894.918	20552
895.04	20724
895.161	20712
895.283	20648
895.405	20655
895.526	20724
895.648	20651
895.769	20796
895.891	20739
896.012	20765
896.134	20765
896.255	20663
896.376	20545
896.498	20705
896.619	20693
896.74	20644
896.861	20746
896.982	20975
897.103	21154
897.224	20986
897.345	20902
897.466	20800
897.587	21005
897.708	20918
897.828	21047
897.949	20891
898.07	20796
898.19	20887
898.311	20979
898.431	20842
898.552	20914
898.672	20975
898.792	20891
898.913	20933
899.033	20785
899.153	20663
899.273	20689
899.393	20621
899.513	20708
899.633	20609
899.753	20682
899.873	20609
899.993	20629
900.113	20568
900.232	20613
900.352	20511
900.472	20488
900.591	20355
900.711	20461
900.83	20423
900.95	20568
901.069	20457
901.189	20267
901.308	20039
901.427	19932
901.546	20069
901.665	20012
901.784	20008
901.904	19799
902.023	19791
902.141	19556
902.26	19480
902.379	19575
902.498	19457
902.617	19426
902.735	19514
902.854	19521
902.973	19434
903.091	19263
903.21	19072
903.328	19312
903.446	19065
903.565	18962
903.683	18958
903.801	18814
903.919	18787
904.038	18894
904.156	18700
904.274	18738
904.392	18760
904.51	18745
904.627	18722
904.745	18867
904.863	18745
904.981	18532
905.098	18403
905.216	18334
905.334	18319
905.451	18372
905.569	18304
905.686	18380
905.803	18372
905.921	18216
906.038	18342
906.155	18194
906.272	18049
906.389	18038
906.506	17969
906.623	17992
906.74	17783
906.857	17904
906.974	17870
907.091	17920
907.208	17977
907.324	17908
907.441	17870
907.557	17672
907.674	17691
907.79	17570
907.907	17623
908.023	17684
908.139	17729
908.256	17684
908.372	17512
908.488	17474
908.604	17345
908.72	17326
908.836	17288
908.952	17288
909.068	17421
909.184	17410
909.3	17299
909.415	17410
909.531	17421
909.647	17121
909.762	17010
909.878	17033
909.993	16991
910.108	17022
910.224	17064
910.339	16961
910.454	16949
910.57	16793
910.685	16755
910.8	17048
910.915	16976
911.03	16831
911.145	16733
911.259	16569
911.374	16573
911.489	16519
911.604	16493
911.718	16360
911.833	16440
911.947	16299
912.062	16291
912.176	16352
912.291	16462
912.405	16360
912.519	16489
912.633	16504
912.748	16402
912.862	16284
912.976	16207
913.09	16158
913.204	16082
913.318	16223
913.431	16295
913.545	16234
913.659	16299
913.772	16055
913.886	16078
914	15949
914.113	16090
914.226	16078
914.34	16013
914.453	15808
914.566	16010
914.68	15972
914.793	15793
914.906	15686
915.019	15610
915.132	15435
915.245	15637
915.358	15606
915.47	15561
915.583	15587
915.696	15644
915.809	15724
915.921	15709
916.034	15424
916.146	15443
916.259	15515
916.371	15511
916.483	15507
916.595	15428
916.708	15279
916.82	15382
916.932	15378
917.044	15397
917.156	15321
917.268	15207
917.38	15233
917.491	15127
917.603	15222
917.715	15226
917.826	15389
917.938	15195
918.049	15077
918.161	15085
918.272	15279
918.384	15317
918.495	15077
918.606	14952
918.717	14952
918.828	14990
918.939	14944
919.05	14785
919.161	14910
919.272	14716
919.383	14796
919.494	15032
919.604	15195
919.715	14872
919.826	14826
919.936	14861
920.047	14941
920.157	14971
920.267	15135
920.378	14853
920.488	14906
920.598	15085
920.708	15207
920.818	15032
920.928	15028
921.038	15146
921.148	15108
921.258	14891
921.368	14731
921.477	14632
921.587	14705
921.697	14503
921.806	14625
921.916	14476
922.025	14294
922.134	14263
922.244	14301
922.353	14309
922.462	14244
922.571	14119
922.68	13940
922.789	13921
922.898	13955
923.007	13936
923.116	13955
923.224	13883
923.333	13928
923.442	13723
923.55	13727
923.659	13871
923.767	13715
923.876	13658
923.984	13765
924.092	13620
924.201	13624
924.309	13643
924.417	13670
924.525	13495
924.633	13567
924.741	14347
924.849	13365
924.956	13510
925.064	13384
925.172	13240
925.279	13232
925.387	13358
925.494	13441
925.602	13495
925.709	13304
925.816	13240
925.924	13183
926.031	13327
926.138	13293
926.245	13373
926.352	13149
926.459	13274
926.566	13213
926.673	13168
926.779	13084
926.886	13149
926.993	12901
927.099	12886
927.206	12916
927.312	12844
927.419	12814
927.525	12856
927.631	12871
927.737	12635
927.843	12711
927.95	12502
928.056	12658
928.162	12703
928.267	12738
928.373	13324
928.479	12738
928.585	12422
928.69	12654
928.796	12604
928.901	12585
929.007	12433
929.112	12601
929.218	12517
929.323	12460
929.428	12338
929.533	12528
929.638	12292
929.743	12376
929.848	12441
929.953	12372
930.058	12289
930.163	12098
930.267	12133
930.372	12194
930.477	12072
930.581	12300
930.685	12106
930.79	11988
930.894	11901
930.998	11984
931.103	12083
931.207	11707
931.311	11653
931.415	11516
931.519	11330
931.623	11258
