Data from test_V78500241_2137.txt Node
Date: Fri Mar 25 15:56:36 CST 2022
User: usil
Spectrometer: V785-0024
Trigger mode: 0
Integration Time (sec): 4.000000E-1
Scans to average: 1
Nonlinearity correction enabled: false
Boxcar width: 0
Storing dark spectrum: false
XAxis mode: Wavelengths
Number of Pixels in Spectrum: 1024
>>>>>Begin Spectral Data<<<<<
801.071	29117
801.214	29018
801.356	28748
801.499	28805
801.641	28702
801.783	28717
801.926	28634
802.068	28710
802.211	28717
802.353	28569
802.496	28504
802.638	28303
802.78	28215
802.923	28386
803.065	28234
803.208	28284
803.35	28493
803.492	28531
803.635	28634
803.777	28428
803.919	28660
804.061	28919
804.204	28660
804.346	28493
804.488	28489
804.63	28653
804.773	28481
804.915	28599
805.057	28630
805.199	28717
805.341	28786
805.483	28850
805.626	28778
805.768	28592
805.91	28816
806.052	28869
806.194	28698
806.336	28847
806.478	28854
806.62	28786
806.762	28991
806.904	28984
807.046	29414
807.188	29296
807.33	29311
807.472	29391
807.614	29109
807.756	29242
807.898	29102
808.04	29014
808.182	28953
808.324	29083
808.465	29273
808.607	29417
808.749	29455
808.891	29638
809.033	29615
809.174	29482
809.316	29356
809.458	29573
809.6	29318
809.741	29619
809.883	29600
810.025	29809
810.166	29786
810.308	29779
810.45	29691
810.591	29608
810.733	29585
810.875	29531
811.016	29463
811.158	29360
811.299	29558
811.441	29687
811.582	29562
811.724	29608
811.865	29516
812.007	29551
812.148	29478
812.29	29406
812.431	29596
812.573	29885
812.714	29965
812.855	30083
812.997	30106
813.138	30308
813.279	29961
813.421	30045
813.562	29901
813.703	29927
813.845	29699
813.986	29493
814.127	29368
814.268	29349
814.41	29178
814.551	29200
814.692	29288
814.833	29204
814.974	29204
815.115	29200
815.256	29132
815.397	29181
815.539	29109
815.68	29071
815.821	28915
815.962	29067
816.103	28980
816.244	28862
816.385	28877
816.526	28900
816.666	28683
816.807	28516
816.948	28653
817.089	28656
817.23	28744
817.371	28546
817.512	28584
817.653	28500
817.793	28554
817.934	28485
818.075	28611
818.216	28546
818.356	28573
818.497	28447
818.638	28276
818.778	28462
818.919	28314
819.06	28466
819.2	28409
819.341	28588
819.481	28428
819.622	28721
819.762	28946
819.903	28900
820.043	28694
820.184	28664
820.324	28698
820.465	28904
820.605	28675
820.746	28668
820.886	28508
821.026	28748
821.167	28656
821.307	28763
821.447	28630
821.588	28527
821.728	28379
821.868	28185
822.008	28044
822.149	28082
822.289	28120
822.429	27857
822.569	27770
822.709	27797
822.849	27435
822.99	27614
823.13	27534
823.27	27599
823.41	27477
823.55	27260
823.69	27454
823.83	27268
823.97	27298
824.11	27226
824.25	27104
824.389	27233
824.529	27207
824.669	27119
824.809	27310
824.949	27245
825.089	27294
825.228	27154
825.368	27013
825.508	27051
825.648	27081
825.787	27237
825.927	27192
826.067	27062
826.206	27009
826.346	27066
826.485	27230
826.625	27066
826.765	27184
826.904	27039
827.044	26895
827.183	26830
827.323	26876
827.462	27017
827.601	26823
827.741	26834
827.88	26785
828.02	26708
828.159	26807
828.298	26864
828.437	26868
828.577	26781
828.716	26982
828.855	26773
828.994	26419
829.134	26594
829.273	26648
829.412	26450
829.551	26385
829.69	26594
829.829	26503
829.968	26568
830.107	26644
830.246	26545
830.385	26453
830.524	26328
830.663	26374
830.802	26195
830.941	26157
831.08	26050
831.219	26119
831.357	26225
831.496	26286
831.635	26039
831.774	26065
831.913	26001
832.051	25993
832.19	25871
832.329	25830
832.467	25875
832.606	25769
832.744	25738
832.883	25643
833.022	25807
833.16	25845
833.299	25868
833.437	25833
833.576	25887
833.714	25845
833.852	26027
833.991	25818
834.129	25830
834.267	25917
834.406	25826
834.544	25898
834.682	25761
834.821	25791
834.959	25928
835.097	25719
835.235	25883
835.373	25906
835.511	25750
835.65	25677
835.788	25685
835.926	25643
836.064	25384
836.202	25499
836.34	25719
836.478	25830
836.615	25742
836.753	25544
836.891	25772
837.029	25605
837.167	25670
837.305	25548
837.443	25479
837.58	25514
837.718	25434
837.856	25495
837.993	25491
838.131	25434
838.269	25339
838.406	25430
838.544	25247
838.681	25095
838.819	25076
838.956	24947
839.094	24962
839.231	24935
839.369	25126
839.506	25464
839.643	25156
839.781	24958
839.918	24897
840.055	24875
840.193	24776
840.33	24856
840.467	24859
840.604	24890
840.742	25103
840.879	24536
841.016	24825
841.153	24612
841.29	24958
841.427	24886
841.564	24837
841.701	24871
841.838	24795
841.975	24764
842.112	24639
842.249	24681
842.385	24578
842.522	24825
842.659	24760
842.796	24517
842.933	24517
843.069	24471
843.206	24544
843.343	24627
843.479	24623
843.616	24658
843.752	24399
843.889	24445
844.025	24696
844.162	24369
844.298	24403
844.435	24422
844.571	24388
844.708	24410
844.844	24456
844.98	24612
845.117	24395
845.253	24361
845.389	24251
845.525	24270
845.661	24224
845.798	24076
845.934	24133
846.07	24072
846.206	24114
846.342	24277
846.478	23980
846.614	23904
846.75	23726
846.886	23767
847.022	23821
847.158	23771
847.294	23843
847.429	23836
847.565	23771
847.701	24022
847.837	23570
847.972	23512
848.108	23703
848.244	23490
848.379	23318
848.515	23410
848.65	23372
848.786	23341
848.921	23315
849.057	23448
849.192	23459
849.328	23376
849.463	23486
849.598	23414
849.734	23455
849.869	23170
850.004	23220
850.14	23208
850.275	23170
850.41	23113
850.545	22995
850.68	23071
850.815	23136
850.95	23128
851.085	23311
851.22	23444
851.355	23223
851.49	23121
851.625	23147
851.76	23090
851.895	23041
852.03	23064
852.165	23292
852.299	23208
852.434	23197
852.569	23204
852.703	23079
852.838	23273
852.973	23288
853.107	23235
853.242	23113
853.376	22919
853.511	22805
853.645	23003
853.78	23109
853.914	22938
854.048	22812
854.183	23083
854.317	22999
854.451	23155
854.585	22919
854.72	22930
854.854	23102
854.988	22866
855.122	22866
855.256	22793
855.39	22850
855.524	22984
855.658	23003
855.792	23003
855.926	23029
856.06	23003
856.194	23086
856.327	22850
856.461	22934
856.595	22957
856.729	22896
856.862	23109
856.996	23083
857.13	22980
857.263	23102
857.397	23075
857.53	22911
857.664	23025
857.797	23162
857.931	23037
858.064	22881
858.197	23174
858.331	22862
858.464	22946
858.597	22881
858.731	22946
858.864	22847
858.997	22850
859.13	22968
859.263	23041
859.396	22934
859.529	22999
859.662	22900
859.795	22915
859.928	22934
860.061	23029
860.194	23166
860.327	23010
860.46	23048
860.592	23140
860.725	23083
860.858	23083
860.99	23022
861.123	22915
861.256	22965
861.388	22934
861.521	23668
861.653	22892
861.786	22759
861.918	22790
862.05	22862
862.183	22809
862.315	22885
862.447	22934
862.58	22934
862.712	22672
862.844	22683
862.976	22801
863.108	22721
863.24	23102
863.372	22675
863.504	22725
863.636	22660
863.768	22744
863.9	22622
864.032	22611
864.164	22531
864.296	22721
864.428	22850
864.559	22694
864.691	22664
864.823	22653
864.954	22679
865.086	22618
865.217	22580
865.349	22318
865.48	22508
865.612	22504
865.743	22653
865.875	22519
866.006	22641
866.137	22500
866.269	22531
866.4	22462
866.531	22497
866.662	22485
866.793	22443
866.924	22459
867.055	22607
867.186	22497
867.317	22451
867.448	22405
867.579	22390
867.71	22394
867.841	22390
867.972	22500
868.103	22516
868.233	22459
868.364	22489
868.495	22516
868.625	22740
868.756	22778
868.886	22615
869.017	22596
869.147	22660
869.278	22786
869.408	22824
869.539	22649
869.669	22843
869.799	22679
869.929	22877
870.06	22782
870.19	22889
870.32	22934
870.45	23098
870.58	22991
870.71	23200
870.84	23223
870.97	23132
871.1	23094
871.23	23284
871.36	23299
871.489	23174
871.619	23360
871.749	23444
871.879	23356
872.008	23398
872.138	23334
872.267	23200
872.397	23117
872.526	23060
872.656	23200
872.785	23090
872.915	23197
873.044	23360
873.173	23315
873.303	23353
873.432	23372
873.561	23391
873.69	23242
873.819	23284
873.948	23349
874.077	23383
874.206	23235
874.335	23265
874.464	23387
874.593	23562
874.722	23440
874.851	23653
874.979	23570
875.108	23524
875.237	23623
875.365	23512
875.494	23497
875.623	23619
875.751	23573
875.88	23436
876.008	23680
876.136	23748
876.265	23958
876.393	23863
876.521	23999
876.65	24026
876.778	23946
876.906	23809
877.034	23897
877.162	23908
877.29	23805
877.418	23843
877.546	23908
877.674	23866
877.802	24011
877.93	23805
878.058	23798
878.185	23824
878.313	23863
878.441	23710
878.568	23695
878.696	23836
878.824	23893
878.951	23996
879.079	24095
879.206	24228
879.333	24053
879.461	23969
879.588	23965
879.715	24041
879.842	24049
879.97	24045
880.097	23729
880.224	23627
880.351	23699
880.478	23741
880.605	23726
880.732	23805
880.859	23954
880.986	23843
881.112	23726
881.239	23524
881.366	23478
881.493	23448
881.619	23231
881.746	23360
881.872	23261
881.999	23242
882.125	23178
882.252	23376
882.378	23193
882.505	23372
882.631	23086
882.757	23048
882.883	23075
883.01	22972
883.136	22869
883.262	22774
883.388	22710
883.514	22786
883.64	23029
883.766	22911
883.892	22740
884.018	22634
884.143	22812
884.269	22873
884.395	22626
884.52	22596
884.646	22577
884.772	22375
884.897	22421
885.023	22535
885.148	22706
885.274	22694
885.399	22577
885.524	22508
885.65	22500
885.775	22622
885.9	22561
886.025	22691
886.15	22698
886.275	22447
886.4	22512
886.525	22478
886.65	22428
886.775	22394
886.9	22675
887.025	22828
887.149	22516
887.274	22230
887.399	22428
887.523	22344
887.648	22280
887.773	22211
887.897	22398
888.021	22314
888.146	22230
888.27	22447
888.395	22325
888.519	22344
888.643	22337
888.767	22405
888.891	22238
889.015	22093
889.139	22128
889.263	22063
889.387	22147
889.511	22246
889.635	22147
889.759	22093
889.883	22120
890.006	22040
890.13	22131
890.254	21930
890.377	22124
890.501	21854
890.624	21713
890.748	21869
890.871	21682
890.995	21671
891.118	21568
891.241	21656
891.364	21557
891.488	21694
891.611	21622
891.734	21637
891.857	21637
891.98	21603
892.103	21633
892.226	21625
892.349	21595
892.471	21428
892.594	21431
892.717	21416
892.839	21466
892.962	21587
893.085	21515
893.207	21481
893.33	21408
893.452	21393
893.575	21618
893.697	21553
893.819	21606
893.941	21690
894.064	21637
894.186	21466
894.308	21313
894.43	21568
894.552	21633
894.674	21587
894.796	21420
894.918	21542
895.04	21466
895.161	21523
895.283	21507
895.405	21401
895.526	21519
895.648	21488
895.769	21477
895.891	21477
896.012	21530
896.134	21606
896.255	21519
896.376	21576
896.498	21477
896.619	21557
896.74	21447
896.861	21576
896.982	21751
897.103	21926
897.224	21713
897.345	21759
897.466	21789
897.587	21732
897.708	21854
897.828	21865
897.949	21618
898.07	21564
898.19	21572
898.311	21759
898.431	21667
898.552	21698
898.672	21663
898.792	21633
898.913	21633
899.033	21610
899.153	21462
899.273	21397
899.393	21340
899.513	21389
899.633	21488
899.753	21435
899.873	21416
899.993	21515
900.113	21420
900.232	21492
900.352	21351
900.472	21188
900.591	21142
900.711	21218
900.83	21070
900.95	21233
901.069	21256
901.189	21020
901.308	20834
901.427	20689
901.546	20724
901.665	20727
901.784	20815
901.904	20549
902.023	20484
902.141	20355
902.26	20229
902.379	20218
902.498	20206
902.617	20210
902.735	20343
902.854	20259
902.973	20168
903.091	19963
903.21	19959
903.328	19887
903.446	19807
903.565	19670
903.683	19734
903.801	19540
903.919	19658
904.038	19537
904.156	19506
904.274	19483
904.392	19285
904.51	19358
904.627	19453
904.745	19567
904.863	19537
904.981	19285
905.098	19065
905.216	19160
905.334	19107
905.451	19168
905.569	19019
905.686	19080
905.803	19031
905.921	18966
906.038	18882
906.155	18894
906.272	18817
906.389	18859
906.506	18639
906.623	18525
906.74	18528
906.857	18494
906.974	18608
907.091	18608
907.208	18700
907.324	18608
907.441	18536
907.557	18369
907.674	18338
907.79	18224
907.907	18311
908.023	18243
908.139	18323
908.256	18266
908.372	18216
908.488	18201
908.604	18064
908.72	18057
908.836	17984
908.952	18003
909.068	17923
909.184	18091
909.3	18117
909.415	18121
909.531	18011
909.647	17733
909.762	17771
909.878	17710
909.993	17798
910.108	17684
910.224	17764
910.339	17634
910.454	17604
910.57	17592
910.685	17566
910.8	17786
910.915	17634
911.03	17379
911.145	17345
911.259	17326
911.374	17318
911.489	17204
911.604	17193
911.718	17022
911.833	17159
911.947	16839
912.062	16816
912.176	16984
912.291	17003
912.405	17079
912.519	17216
912.633	17227
912.748	17041
912.862	16942
912.976	16942
913.09	16721
913.204	16767
913.318	16774
913.431	16885
913.545	16942
913.659	16961
913.772	16748
913.886	16538
914	16641
914.113	16713
914.226	16816
914.34	16736
914.453	16500
914.566	16577
914.68	16569
914.793	16481
914.906	16299
915.019	16150
915.132	16109
915.245	16055
915.358	16234
915.47	16246
915.583	16173
915.696	16230
915.809	16257
915.921	16306
916.034	16158
916.146	16059
916.259	16200
916.371	16223
916.483	16192
916.595	16059
916.708	16032
916.82	16040
916.932	15956
917.044	15895
917.156	15816
917.268	15827
917.38	15888
917.491	15800
917.603	15732
917.715	15838
917.826	16021
917.938	15694
918.049	15561
918.161	15705
918.272	15838
918.384	15880
918.495	15663
918.606	15587
918.717	15599
918.828	15530
918.939	15542
919.05	15405
919.161	15481
919.272	15355
919.383	15412
919.494	15534
919.604	15785
919.715	15564
919.826	15416
919.936	15511
920.047	15587
920.157	15492
920.267	15781
920.378	15568
920.488	15374
920.598	15728
920.708	15717
920.818	15648
920.928	15599
921.038	15827
921.148	15781
921.258	15405
921.368	15306
921.477	15222
921.587	15195
921.697	15119
921.806	15218
921.916	15081
922.025	14880
922.134	14910
922.244	14830
922.353	14750
922.462	14720
922.571	14610
922.68	14511
922.789	14412
922.898	14461
923.007	14396
923.116	14564
923.224	14408
923.333	14317
923.442	14324
923.55	14210
923.659	14275
923.767	14332
923.876	14225
923.984	14313
924.092	14202
924.201	14153
924.309	14164
924.417	14202
924.525	14191
924.633	14107
924.741	14868
924.849	13868
924.956	14027
925.064	13856
925.172	13822
925.279	13799
925.387	13856
925.494	13769
925.602	13951
925.709	13871
925.816	13700
925.924	13769
926.031	13875
926.138	13757
926.245	13807
926.352	13651
926.459	13769
926.566	13791
926.673	13575
926.779	13559
926.886	13578
926.993	13483
927.099	13384
927.206	13331
927.312	13320
927.419	13350
927.525	13392
927.631	13483
927.737	13179
927.843	13209
927.95	13008
928.056	13118
928.162	13164
928.267	13228
928.373	13841
928.479	13221
928.585	12996
928.69	13221
928.796	13133
928.901	13042
929.007	12878
929.112	12958
929.218	12962
929.323	12909
929.428	12863
929.533	13107
929.638	12802
929.743	12795
929.848	12882
929.953	12810
930.058	12703
930.163	12525
930.267	12536
930.372	12658
930.477	12410
930.581	12658
930.685	12540
930.79	12433
930.894	12410
930.998	12410
931.103	12506
931.207	12121
931.311	12030
931.415	11984
931.519	11821
931.623	11714
