Data from test_V78500241_944.txt Node
Date: Fri Mar 25 15:48:20 CST 2022
User: usil
Spectrometer: V785-0024
Trigger mode: 0
Integration Time (sec): 4.000000E-1
Scans to average: 1
Nonlinearity correction enabled: false
Boxcar width: 0
Storing dark spectrum: false
XAxis mode: Wavelengths
Number of Pixels in Spectrum: 1024
>>>>>Begin Spectral Data<<<<<
801.071	28649
801.214	28733
801.356	28375
801.499	28257
801.641	28150
801.783	28082
801.926	28211
802.068	28124
802.211	28090
802.353	28017
802.496	27911
802.638	27865
802.78	27842
802.923	27854
803.065	27724
803.208	27846
803.35	27911
803.492	28010
803.635	28124
803.777	27918
803.919	28143
804.061	28401
804.204	28173
804.346	27987
804.488	27918
804.63	28128
804.773	27983
804.915	28154
805.057	28325
805.199	28048
805.341	28074
805.483	28360
805.626	28188
805.768	28238
805.91	28299
806.052	28124
806.194	28192
806.336	28508
806.478	28497
806.62	28253
806.762	28295
806.904	28538
807.046	28672
807.188	28653
807.33	28702
807.472	28740
807.614	28611
807.756	28584
807.898	28557
808.04	28455
808.182	28405
808.324	28626
808.465	28565
808.607	28774
808.749	29071
808.891	28972
809.033	28999
809.174	29018
809.316	28927
809.458	28915
809.6	28873
809.741	29067
809.883	29094
810.025	29303
810.166	29258
810.308	29330
810.45	29239
810.591	29208
810.733	28923
810.875	28953
811.016	28831
811.158	28881
811.299	29060
811.441	29197
811.582	29098
811.724	28896
811.865	28984
812.007	28938
812.148	29003
812.29	29094
812.431	29014
812.573	29242
812.714	29402
812.855	29619
812.997	29554
813.138	29729
813.279	29619
813.421	29459
813.562	29455
813.703	29360
813.845	29273
813.986	28873
814.127	28687
814.268	28744
814.41	28763
814.551	28565
814.692	28740
814.833	28691
814.974	28527
815.115	28611
815.256	28702
815.397	28645
815.539	28329
815.68	28554
815.821	28466
815.962	28516
816.103	28519
816.244	28322
816.385	28158
816.526	28249
816.666	28143
816.807	28017
816.948	28166
817.089	28181
817.23	28036
817.371	27975
817.512	28006
817.653	27869
817.793	27972
817.934	28078
818.075	27991
818.216	28055
818.356	28036
818.497	27956
818.638	27842
818.778	27682
818.919	27690
819.06	27876
819.2	27888
819.341	27972
819.481	27953
819.622	28040
819.762	28470
819.903	28325
820.043	28242
820.184	28074
820.324	28226
820.465	28154
820.605	28139
820.746	27968
820.886	27964
821.026	28010
821.167	28051
821.307	28109
821.447	27972
821.588	27918
821.728	27766
821.868	27633
822.008	27469
822.149	27412
822.289	27488
822.429	27313
822.569	27116
822.709	27154
822.849	26963
822.99	27001
823.13	26906
823.27	26937
823.41	26762
823.55	26720
823.69	26811
823.83	26811
823.97	26773
824.11	26716
824.25	26575
824.389	26689
824.529	26788
824.669	26621
824.809	26746
824.949	26613
825.089	26788
825.228	26598
825.368	26362
825.508	26488
825.648	26674
825.787	26568
825.927	26537
826.067	26568
826.206	26552
826.346	26552
826.485	26568
826.625	26632
826.765	26613
826.904	26446
827.044	26317
827.183	26366
827.323	26271
827.462	26282
827.601	26244
827.741	26256
827.88	26176
828.02	26069
828.159	26168
828.298	26153
828.437	26271
828.577	26176
828.716	26343
828.855	26111
828.994	25944
829.134	25898
829.273	25822
829.412	25966
829.551	25906
829.69	25932
829.829	25887
829.968	25913
830.107	26001
830.246	25841
830.385	26024
830.524	25856
830.663	25700
830.802	25689
830.941	25616
831.08	25460
831.219	25677
831.357	25529
831.496	25628
831.635	25556
831.774	25419
831.913	25259
832.051	25373
832.19	25225
832.329	25396
832.467	25122
832.606	25160
832.744	25091
832.883	25190
833.022	25103
833.16	25152
833.299	25141
833.437	25190
833.576	25175
833.714	25133
833.852	25274
833.991	25263
834.129	25350
834.267	25266
834.406	25236
834.544	25251
834.682	25297
834.821	25183
834.959	25510
835.097	25217
835.235	25270
835.373	25232
835.511	25133
835.65	25133
835.788	25095
835.926	25023
836.064	24760
836.202	24909
836.34	25107
836.478	25110
836.615	25129
836.753	25069
836.891	25034
837.029	25137
837.167	24981
837.305	25057
837.443	24821
837.58	24886
837.718	24958
837.856	24878
837.993	24738
838.131	24871
838.269	24776
838.406	24890
838.544	24665
838.681	24540
838.819	24582
838.956	24448
839.094	24327
839.231	24346
839.369	24555
839.506	24764
839.643	24623
839.781	24292
839.918	24292
840.055	24372
840.193	24327
840.33	24308
840.467	24266
840.604	24384
840.742	24532
840.879	24095
841.016	24194
841.153	24076
841.29	24281
841.427	24262
841.564	24350
841.701	24228
841.838	24247
841.975	24125
842.112	24114
842.249	24136
842.385	24140
842.522	24369
842.659	24049
842.796	23961
842.933	23961
843.069	23942
843.206	24026
843.343	24068
843.479	23980
843.616	24007
843.752	23733
843.889	23771
844.025	23828
844.162	23752
844.298	23802
844.435	23817
844.571	23653
844.708	23802
844.844	23946
844.98	23855
845.117	24007
845.253	23691
845.389	23615
845.525	23729
845.661	23726
845.798	23547
845.934	23710
846.07	23463
846.206	23558
846.342	23657
846.478	23547
846.614	23288
846.75	23220
846.886	23231
847.022	23326
847.158	23383
847.294	23208
847.429	23159
847.565	23220
847.701	23429
847.837	23029
847.972	22858
848.108	23170
848.244	23151
848.379	22839
848.515	22782
848.65	22854
848.786	22835
848.921	22938
849.057	22835
849.192	22999
849.328	22892
849.463	22824
849.598	22793
849.734	22744
849.869	22626
850.004	22592
850.14	22679
850.275	22618
850.41	22554
850.545	22641
850.68	22531
850.815	22569
850.95	22485
851.085	22862
851.22	22698
851.355	22573
851.49	22717
851.625	22542
851.76	22611
851.895	22459
852.03	22500
852.165	22565
852.299	22679
852.434	22664
852.569	22615
852.703	22538
852.838	22542
852.973	22637
853.107	22656
853.242	22497
853.376	22485
853.511	22284
853.645	22287
853.78	22607
853.914	22402
854.048	22409
854.183	22268
854.317	22478
854.451	22573
854.585	22451
854.72	22287
854.854	22421
854.988	22363
855.122	22363
855.256	22394
855.39	22405
855.524	22424
855.658	22402
855.792	22291
855.926	22333
856.06	22390
856.194	22577
856.327	22348
856.461	22215
856.595	22314
856.729	22367
856.862	22531
856.996	22428
857.13	22394
857.263	22459
857.397	22519
857.53	22466
857.664	22436
857.797	22451
857.931	22478
858.064	22466
858.197	22470
858.331	22443
858.464	22424
858.597	22367
858.731	22318
858.864	22341
858.997	22276
859.13	22424
859.263	22523
859.396	22561
859.529	22405
859.662	22360
859.795	22322
859.928	22360
860.061	22607
860.194	22630
860.327	22485
860.46	22291
860.592	22554
860.725	22428
860.858	22577
860.99	22291
861.123	22481
861.256	22382
861.388	22348
861.521	23056
861.653	22139
861.786	22143
861.918	22295
862.05	22211
862.183	22310
862.315	22287
862.447	22280
862.58	22402
862.712	22128
862.844	22059
862.976	22223
863.108	22109
863.24	22485
863.372	22105
863.504	22131
863.636	22120
863.768	22139
863.9	22112
864.032	22109
864.164	22086
864.296	22128
864.428	22086
864.559	22131
864.691	22112
864.823	22112
864.954	22090
865.086	22109
865.217	22040
865.349	21991
865.48	21945
865.612	21983
865.743	22154
865.875	21941
866.006	22021
866.137	21994
866.269	22002
866.4	21960
866.531	22021
866.662	21926
866.793	21861
866.924	21800
867.055	22070
867.186	21918
867.317	21994
867.448	21922
867.579	21934
867.71	21808
867.841	21789
867.972	21930
868.103	21892
868.233	21968
868.364	21766
868.495	21911
868.625	22002
868.756	22226
868.886	22097
869.017	22177
869.147	22325
869.278	22356
869.408	22116
869.539	22090
869.669	22226
869.799	22078
869.929	22295
870.06	22242
870.19	22421
870.32	22409
870.45	22462
870.58	22557
870.71	22618
870.84	22569
870.97	22550
871.1	22466
871.23	22687
871.36	22740
871.489	22702
871.619	22831
871.749	22793
871.879	22782
872.008	22904
872.138	22626
872.267	22786
872.397	22538
872.526	22634
872.656	22622
872.785	22615
872.915	22717
873.044	22782
873.173	22679
873.303	22694
873.432	22721
873.561	22900
873.69	22812
873.819	22713
873.948	22915
874.077	22805
874.206	22675
874.335	22706
874.464	22759
874.593	22976
874.722	22904
874.851	22984
874.979	22965
875.108	23018
875.237	22877
875.365	22847
875.494	22957
875.623	23041
875.751	22885
875.88	23113
876.008	23060
876.136	23197
876.265	23353
876.393	23349
876.521	23330
876.65	23463
876.778	23307
876.906	23200
877.034	23318
877.162	23280
877.29	23307
877.418	23391
877.546	23200
877.674	23250
877.802	23269
877.93	23349
878.058	23239
878.185	23128
878.313	23181
878.441	23296
878.568	23109
878.696	23250
878.824	23315
878.951	23353
879.079	23474
879.206	23589
879.333	23551
879.461	23341
879.588	23459
879.715	23376
879.842	23516
879.97	23425
880.097	23060
880.224	23181
880.351	23117
880.478	23041
880.605	23128
880.732	23033
880.859	23292
880.986	23098
881.112	23109
881.239	22927
881.366	22778
881.493	22862
881.619	22736
881.746	22740
881.872	22611
881.999	22725
882.125	22637
882.252	22577
882.378	22630
882.505	22778
882.631	22512
882.757	22402
882.883	22363
883.01	22428
883.136	22249
883.262	22261
883.388	22303
883.514	22436
883.64	22363
883.766	22356
883.892	22173
884.018	22135
884.143	22284
884.269	22333
884.395	21975
884.52	21918
884.646	21945
884.772	21918
884.897	21975
885.023	22021
885.148	22158
885.274	22097
885.399	21953
885.524	22021
885.65	22048
885.775	22006
885.9	21892
886.025	22135
886.15	22131
886.275	21945
886.4	21861
886.525	22051
886.65	21915
886.775	21800
886.9	22036
887.025	22162
887.149	21876
887.274	21808
887.399	21838
887.523	21747
887.648	21736
887.773	21713
887.897	21778
888.021	21652
888.146	21648
888.27	21766
888.395	21804
888.519	21644
888.643	21720
888.767	21827
888.891	21660
889.015	21530
889.139	21736
889.263	21530
889.387	21568
889.511	21682
889.635	21614
889.759	21488
889.883	21492
890.006	21568
890.13	21576
890.254	21439
890.377	21408
890.501	21272
890.624	21298
890.748	21389
890.871	21081
890.995	21005
891.118	21100
891.241	21123
891.364	20982
891.488	21157
891.611	21245
891.734	20986
891.857	21256
891.98	21058
892.103	21077
892.226	20986
892.349	21096
892.471	20883
892.594	20918
892.717	21070
892.839	20956
892.962	21047
893.085	21154
893.207	21013
893.33	20952
893.452	20910
893.575	20982
893.697	20823
893.819	21180
893.941	21188
894.064	21017
894.186	20925
894.308	20815
894.43	21138
894.552	21245
894.674	21081
894.796	20979
894.918	20967
895.04	20998
895.161	21009
895.283	21047
895.405	20979
895.526	20910
895.648	20910
895.769	20948
895.891	20963
896.012	21047
896.134	21085
896.255	20956
896.376	20910
896.498	20921
896.619	21036
896.74	20960
896.861	20960
896.982	21313
897.103	21397
897.224	21207
897.345	21233
897.466	21176
897.587	21100
897.708	21351
897.828	21226
897.949	21138
898.07	20975
898.19	21009
898.311	21336
898.431	21047
898.552	21180
898.672	21180
898.792	21272
898.913	21176
899.033	20982
899.153	21013
899.273	20941
899.393	20910
899.513	20883
899.633	20823
899.753	20990
899.873	20887
899.993	20990
900.113	20811
900.232	20868
900.352	20819
900.472	20861
900.591	20682
900.711	20674
900.83	20640
900.95	20777
901.069	20796
901.189	20396
901.308	20404
901.427	20237
901.546	20298
901.665	20271
901.784	20275
901.904	20016
902.023	20157
902.141	19833
902.26	19791
902.379	19791
902.498	19811
902.617	19727
902.735	19715
902.854	19742
902.973	19548
903.091	19388
903.21	19441
903.328	19472
903.446	19324
903.565	19225
903.683	19213
903.801	19023
903.919	19217
904.038	19057
904.156	18935
904.274	18954
904.392	18951
904.51	18954
904.627	18856
904.745	18958
904.863	18954
904.981	18673
905.098	18669
905.216	18612
905.334	18661
905.451	18635
905.569	18639
905.686	18612
905.803	18684
905.921	18437
906.038	18551
906.155	18327
906.272	18346
906.389	18334
906.506	18171
906.623	18053
906.74	18159
906.857	17992
906.974	18057
907.091	18220
907.208	18346
907.324	18239
907.441	17999
907.557	17923
907.674	17973
907.79	17805
907.907	17775
908.023	17783
908.139	17775
908.256	17779
908.372	17821
908.488	17790
908.604	17630
908.72	17581
908.836	17668
908.952	17516
909.068	17497
909.184	17752
909.3	17509
909.415	17691
909.531	17604
909.647	17387
909.762	17277
909.878	17261
909.993	17208
910.108	17307
910.224	17235
910.339	17235
910.454	17090
910.57	17041
910.685	16900
910.8	17349
910.915	17239
911.03	17067
911.145	16885
911.259	16915
911.374	16957
911.489	16767
911.604	16694
911.718	16588
911.833	16569
911.947	16519
912.062	16478
912.176	16558
912.291	16569
912.405	16618
912.519	16759
912.633	16858
912.748	16596
912.862	16466
912.976	16504
913.09	16356
913.204	16333
913.318	16489
913.431	16527
913.545	16451
913.659	16474
913.772	16333
913.886	16219
914	16242
914.113	16318
914.226	16272
914.34	16280
914.453	16192
914.566	16223
914.68	16082
914.793	15972
914.906	15857
915.019	15732
915.132	15656
915.245	15850
915.358	15713
915.47	15800
915.583	15739
915.696	15831
915.809	15918
915.921	15861
916.034	15728
916.146	15641
916.259	15679
916.371	15739
916.483	15819
916.595	15572
916.708	15663
916.82	15572
916.932	15534
917.044	15523
917.156	15496
917.268	15401
917.38	15481
917.491	15359
917.603	15458
917.715	15523
917.826	15469
917.938	15378
918.049	15325
918.161	15340
918.272	15473
918.384	15447
918.495	15332
918.606	15157
918.717	15119
918.828	15180
918.939	15199
919.05	15157
919.161	15123
919.272	14899
919.383	14944
919.494	15127
919.604	15211
919.715	15017
919.826	14971
919.936	15066
920.047	15275
920.157	15150
920.267	15321
920.378	15119
920.488	15047
920.598	15279
920.708	15408
920.818	15283
920.928	15214
921.038	15424
921.148	15287
921.258	15058
921.368	14960
921.477	14952
921.587	14773
921.697	14674
921.806	14804
921.916	14625
922.025	14518
922.134	14389
922.244	14507
922.353	14537
922.462	14358
922.571	14248
922.68	14050
922.789	14172
922.898	14115
923.007	14065
923.116	14096
923.224	13982
923.333	14088
923.442	13925
923.55	13902
923.659	13978
923.767	13936
923.876	13803
923.984	13932
924.092	13769
924.201	13887
924.309	13864
924.417	13875
924.525	13719
924.633	13750
924.741	14708
924.849	13506
924.956	13662
925.064	13582
925.172	13472
925.279	13506
925.387	13491
925.494	13540
925.602	13609
925.709	13613
925.816	13419
925.924	13354
926.031	13476
926.138	13495
926.245	13350
926.352	13297
926.459	13506
926.566	13483
926.673	13259
926.779	13183
926.886	13164
926.993	13141
927.099	13118
927.206	13004
927.312	13050
927.419	13129
927.525	13038
927.631	13099
927.737	13027
927.843	12894
927.95	12802
928.056	12852
928.162	12848
928.267	12901
928.373	13400
928.479	12909
928.585	12646
928.69	12787
928.796	12810
928.901	12635
929.007	12604
929.112	12719
929.218	12650
929.323	12585
929.428	12639
929.533	12719
929.638	12467
929.743	12486
929.848	12547
929.953	12460
930.058	12403
930.163	12254
930.267	12220
930.372	12308
930.477	12140
930.581	12502
930.685	12266
930.79	12079
930.894	12182
930.998	12163
931.103	12228
931.207	11840
931.311	11779
931.415	11741
931.519	11471
931.623	11497
