Data from test_V78500241_847.txt Node
Date: Fri Mar 25 15:47:40 CST 2022
User: usil
Spectrometer: V785-0024
Trigger mode: 0
Integration Time (sec): 4.000000E-1
Scans to average: 1
Nonlinearity correction enabled: false
Boxcar width: 0
Storing dark spectrum: false
XAxis mode: Wavelengths
Number of Pixels in Spectrum: 1024
>>>>>Begin Spectral Data<<<<<
801.071	27462
801.214	27515
801.356	27077
801.499	27150
801.641	27070
801.783	26982
801.926	27214
802.068	27043
802.211	26883
802.353	26937
802.496	26613
802.638	26705
802.78	26701
802.923	26686
803.065	26495
803.208	26648
803.35	26644
803.492	26648
803.635	26811
803.777	26743
803.919	26857
804.061	27245
804.204	26929
804.346	26830
804.488	26670
804.63	26853
804.773	26804
804.915	26743
805.057	26937
805.199	26918
805.341	26921
805.483	27074
805.626	26967
805.768	26826
805.91	26940
806.052	26990
806.194	26765
806.336	27135
806.478	27020
806.62	26899
806.762	27089
806.904	27283
807.046	27477
807.188	27439
807.33	27523
807.472	27462
807.614	27359
807.756	27336
807.898	27374
808.04	27154
808.182	27298
808.324	27340
808.465	27214
808.607	27523
808.749	27583
808.891	27625
809.033	27732
809.174	27625
809.316	27603
809.458	27671
809.6	27606
809.741	27660
809.883	27732
810.025	27953
810.166	27983
810.308	27964
810.45	27808
810.591	27835
810.733	27667
810.875	27477
811.016	27477
811.158	27412
811.299	27580
811.441	27739
811.582	27808
811.724	27599
811.865	27622
812.007	27534
812.148	27705
812.29	27648
812.431	27804
812.573	27930
812.714	28013
812.855	28017
812.997	28337
813.138	28398
813.279	28196
813.421	28143
813.562	28131
813.703	27991
813.845	27888
813.986	27618
814.127	27526
814.268	27199
814.41	27260
814.551	27321
814.692	27272
814.833	27096
814.974	27287
815.115	27256
815.256	27127
815.397	27176
815.539	27154
815.68	27062
815.821	27013
815.962	27039
816.103	27013
816.244	26960
816.385	26940
816.526	26849
816.666	26693
816.807	26530
816.948	26693
817.089	26686
817.23	26564
817.371	26670
817.512	26568
817.653	26617
817.793	26499
817.934	26564
818.075	26670
818.216	26598
818.356	26533
818.497	26446
818.638	26347
818.778	26294
818.919	26286
819.06	26347
819.2	26423
819.341	26697
819.481	26415
819.622	26701
819.762	26979
819.903	26826
820.043	26689
820.184	26762
820.324	26636
820.465	26648
820.605	26743
820.746	26609
820.886	26594
821.026	26712
821.167	26670
821.307	26724
821.447	26609
821.588	26514
821.728	26453
821.868	26183
822.008	26031
822.149	26058
822.289	26001
822.429	25803
822.569	25723
822.709	25616
822.849	25556
822.99	25597
823.13	25441
823.27	25533
823.41	25441
823.55	25255
823.69	25365
823.83	25365
823.97	25301
824.11	25377
824.25	25217
824.389	25126
824.529	25236
824.669	25202
824.809	25221
824.949	25278
825.089	25415
825.228	25320
825.368	24932
825.508	24916
825.648	25126
825.787	25091
825.927	25103
826.067	25065
826.206	25004
826.346	25137
826.485	25004
826.625	25103
826.765	25126
826.904	25023
827.044	24684
827.183	24707
827.323	24734
827.462	24913
827.601	24779
827.741	24642
827.88	24783
828.02	24700
828.159	24821
828.298	24749
828.437	24810
828.577	24719
828.716	24817
828.855	24867
828.994	24509
829.134	24547
829.273	24551
829.412	24407
829.551	24296
829.69	24327
829.829	24620
829.968	24475
830.107	24494
830.246	24448
830.385	24479
830.524	24380
830.663	24159
830.802	24072
830.941	24148
831.08	24091
831.219	24163
831.357	24095
831.496	24220
831.635	24034
831.774	23870
831.913	24159
832.051	24007
832.19	23904
832.329	23893
832.467	23699
832.606	23691
832.744	23786
832.883	23783
833.022	23672
833.16	23817
833.299	23767
833.437	23729
833.576	23802
833.714	23874
833.852	23794
833.991	23904
834.129	23931
834.267	23927
834.406	23897
834.544	23809
834.682	23733
834.821	23775
834.959	23958
835.097	23794
835.235	23794
835.373	23767
835.511	23813
835.65	23687
835.788	23779
835.926	23433
836.064	23516
836.202	23440
836.34	23722
836.478	23760
836.615	23615
836.753	23767
836.891	23729
837.029	23710
837.167	23516
837.305	23562
837.443	23558
837.58	23474
837.718	23474
837.856	23436
837.993	23493
838.131	23474
838.269	23280
838.406	23296
838.544	23421
838.681	23102
838.819	23075
838.956	23147
839.094	22934
839.231	22991
839.369	23105
839.506	23322
839.643	23159
839.781	22976
839.918	22984
840.055	23102
840.193	22801
840.33	22953
840.467	22946
840.604	22889
840.742	23193
840.879	22687
841.016	22847
841.153	22672
841.29	23071
841.427	22999
841.564	22938
841.701	22968
841.838	22896
841.975	22725
842.112	22767
842.249	22725
842.385	22641
842.522	22816
842.659	22881
842.796	22637
842.933	22748
843.069	22736
843.206	22679
843.343	22653
843.479	22637
843.616	22611
843.752	22466
843.889	22371
844.025	22713
844.162	22443
844.298	22478
844.435	22424
844.571	22398
844.708	22443
844.844	22462
844.98	22542
845.117	22424
845.253	22329
845.389	22188
845.525	22188
845.661	22291
845.798	22192
845.934	22105
846.07	22074
846.206	22211
846.342	22268
846.478	22116
846.614	21926
846.75	21819
846.886	21869
847.022	21850
847.158	21964
847.294	21831
847.429	21964
847.565	21785
847.701	22112
847.837	21675
847.972	21641
848.108	21751
848.244	21667
848.379	21606
848.515	21477
848.65	21519
848.786	21572
848.921	21416
849.057	21496
849.192	21553
849.328	21439
849.463	21458
849.598	21351
849.734	21256
849.869	21287
850.004	21291
850.14	21359
850.275	21123
850.41	21188
850.545	21184
850.68	21230
850.815	21203
850.95	21283
851.085	21416
851.22	21310
851.355	21131
851.49	21233
851.625	21279
851.76	21218
851.895	21237
852.03	21108
852.165	21161
852.299	21241
852.434	21275
852.569	21252
852.703	21249
852.838	21241
852.973	21428
853.107	21420
853.242	21165
853.376	21089
853.511	20925
853.645	21127
853.78	21245
853.914	21074
854.048	21165
854.183	21104
854.317	21104
854.451	21374
854.585	21039
854.72	21077
854.854	21233
854.988	21058
855.122	21135
855.256	20998
855.39	21074
855.524	21161
855.658	21142
855.792	21058
855.926	21123
856.06	21058
856.194	21146
856.327	21005
856.461	21074
856.595	21138
856.729	20910
856.862	21119
856.996	21127
857.13	21085
857.263	21157
857.397	21081
857.53	20960
857.664	20967
857.797	21001
857.931	21279
858.064	21096
858.197	21062
858.331	21077
858.464	20910
858.597	20918
858.731	20948
858.864	21039
858.997	21001
859.13	20982
859.263	21112
859.396	21195
859.529	21074
859.662	20971
859.795	21032
859.928	21055
860.061	21180
860.194	21222
860.327	21218
860.46	21154
860.592	21043
860.725	21302
860.858	21256
860.99	21077
861.123	21009
861.256	20986
861.388	20975
861.521	21694
861.653	21017
861.786	20773
861.918	20990
862.05	20918
862.183	20902
862.315	20899
862.447	21051
862.58	21062
862.712	20739
862.844	20727
862.976	20815
863.108	20899
863.24	21298
863.372	20735
863.504	20876
863.636	20750
863.768	20906
863.9	20811
864.032	20720
864.164	20849
864.296	20758
864.428	20819
864.559	20804
864.691	20944
864.823	20655
864.954	20826
865.086	20746
865.217	20705
865.349	20701
865.48	20575
865.612	20720
865.743	20838
865.875	20705
866.006	20522
866.137	20754
866.269	20712
866.4	20735
866.531	20594
866.662	20617
866.793	20568
866.924	20606
867.055	20590
867.186	20609
867.317	20678
867.448	20499
867.579	20549
867.71	20556
867.841	20507
867.972	20575
868.103	20663
868.233	20606
868.364	20526
868.495	20701
868.625	20838
868.756	20990
868.886	20807
869.017	20883
869.147	20861
869.278	20937
869.408	20979
869.539	20887
869.669	20906
869.799	20853
869.929	20982
870.06	21028
870.19	21176
870.32	21104
870.45	21176
870.58	21233
870.71	21374
870.84	21287
870.97	21279
871.1	21226
871.23	21466
871.36	21534
871.489	21298
871.619	21458
871.749	21485
871.879	21450
872.008	21641
872.138	21504
872.267	21447
872.397	21310
872.526	21226
872.656	21313
872.785	21363
872.915	21466
873.044	21534
873.173	21473
873.303	21568
873.432	21488
873.561	21591
873.69	21553
873.819	21458
873.948	21549
874.077	21553
874.206	21412
874.335	21424
874.464	21553
874.593	21736
874.722	21629
874.851	21698
874.979	21766
875.108	21732
875.237	21682
875.365	21625
875.494	21667
875.623	21762
875.751	21587
875.88	21682
876.008	21762
876.136	21926
876.265	22120
876.393	22173
876.521	22120
876.65	22333
876.778	22051
876.906	22006
877.034	22029
877.162	22101
877.29	21884
877.418	22074
877.546	22070
877.674	22097
877.802	22093
877.93	21994
878.058	21930
878.185	21911
878.313	21888
878.441	22120
878.568	21911
878.696	21987
878.824	22029
878.951	22173
879.079	22230
879.206	22238
879.333	22147
879.461	22078
879.588	22112
879.715	22219
879.842	22424
879.97	22242
880.097	21915
880.224	21861
880.351	21892
880.478	21915
880.605	21770
880.732	21846
880.859	22048
880.986	21998
881.112	21892
881.239	21869
881.366	21618
881.493	21599
881.619	21416
881.746	21401
881.872	21504
881.999	21485
882.125	21363
882.252	21431
882.378	21515
882.505	21599
882.631	21348
882.757	21100
882.883	21214
883.01	21081
883.136	20967
883.262	21074
883.388	21047
883.514	21165
883.64	21161
883.766	21108
883.892	21020
884.018	21093
884.143	21154
884.269	21188
884.395	20982
884.52	20746
884.646	20804
884.772	20743
884.897	20758
885.023	20807
885.148	20834
885.274	20944
885.399	20800
885.524	20804
885.65	20815
885.775	20712
885.9	20853
886.025	21028
886.15	20868
886.275	20792
886.4	20636
886.525	20758
886.65	20644
886.775	20667
886.9	20895
887.025	20982
887.149	20716
887.274	20651
887.399	20457
887.523	20602
887.648	20564
887.773	20385
887.897	20731
888.021	20735
888.146	20560
888.27	20640
888.395	20750
888.519	20606
888.643	20549
888.767	20724
888.891	20389
889.015	20385
889.139	20400
889.263	20400
889.387	20400
889.511	20465
889.635	20613
889.759	20339
889.883	20343
890.006	20290
890.13	20412
890.254	20301
890.377	20286
890.501	20005
890.624	20043
890.748	20126
890.871	20153
890.995	19944
891.118	19833
891.241	19997
891.364	19940
891.488	20008
891.611	19932
891.734	19902
891.857	19997
891.98	19963
892.103	19967
892.226	20008
892.349	19811
892.471	19826
892.594	19814
892.717	19864
892.839	19898
892.962	19845
893.085	20016
893.207	19826
893.33	19776
893.452	19776
893.575	19822
893.697	19864
893.819	20008
893.941	20164
894.064	19913
894.186	19849
894.308	19811
894.43	19871
894.552	20001
894.674	19993
894.796	19791
894.918	19769
895.04	19909
895.161	19986
895.283	19921
895.405	19765
895.526	19856
895.648	19811
895.769	19845
895.891	19837
896.012	19917
896.134	19746
896.255	19830
896.376	19841
896.498	19928
896.619	19887
896.74	19875
896.861	19902
896.982	20176
897.103	20347
897.224	20134
897.345	20073
897.466	20119
897.587	20084
897.708	20157
897.828	20218
897.949	19974
898.07	19784
898.19	20035
898.311	20103
898.431	20092
898.552	20054
898.672	20092
898.792	20161
898.913	20088
899.033	19974
899.153	19936
899.273	19849
899.393	19811
899.513	19917
899.633	19902
899.753	19860
899.873	19856
899.993	19909
900.113	19662
900.232	19784
900.352	19940
900.472	19719
900.591	19491
900.711	19696
900.83	19582
900.95	19742
901.069	19662
901.189	19571
901.308	19308
901.427	19255
901.546	19255
901.665	19209
901.784	19137
901.904	19023
902.023	18928
902.141	18882
902.26	18677
902.379	18817
902.498	18563
902.617	18779
902.735	18806
902.854	18665
902.973	18517
903.091	18448
903.21	18407
903.328	18342
903.446	18243
903.565	18273
903.683	18167
903.801	18049
903.919	18117
904.038	18155
904.156	17996
904.274	18030
904.392	17958
904.51	17912
904.627	17946
904.745	17973
904.863	18083
904.981	17756
905.098	17589
905.216	17608
905.334	17699
905.451	17737
905.569	17630
905.686	17726
905.803	17695
905.921	17497
906.038	17551
906.155	17509
906.272	17326
906.389	17334
906.506	17178
906.623	17288
906.74	17117
906.857	17121
906.974	17079
907.091	17162
907.208	17337
907.324	17246
907.441	17109
907.557	16953
907.674	16892
907.79	16839
907.907	16892
908.023	16938
908.139	16984
908.256	16797
908.372	16858
908.488	16729
908.604	16710
908.72	16725
908.836	16611
908.952	16565
909.068	16698
909.184	16809
909.3	16546
909.415	16641
909.531	16508
909.647	16360
909.762	16329
909.878	16314
909.993	16390
910.108	16390
910.224	16322
910.339	16352
910.454	16230
910.57	16234
910.685	16017
910.8	16421
910.915	16329
911.03	16169
911.145	16013
911.259	15922
911.374	16010
911.489	15876
911.604	15774
911.718	15663
911.833	15732
911.947	15660
912.062	15462
912.176	15595
912.291	15686
912.405	15618
912.519	15922
912.633	15850
912.748	15774
912.862	15717
912.976	15580
913.09	15473
913.204	15488
913.318	15477
913.431	15564
913.545	15485
913.659	15553
913.772	15420
913.886	15351
914	15249
914.113	15363
914.226	15412
914.34	15332
914.453	15195
914.566	15287
914.68	15169
914.793	15245
914.906	14895
915.019	14872
915.132	14849
915.245	15001
915.358	14876
915.47	14883
915.583	14887
915.696	14948
915.809	15017
915.921	14994
916.034	14762
916.146	14800
916.259	14758
916.371	14819
916.483	14826
916.595	14781
916.708	14731
916.82	14724
916.932	14705
917.044	14693
917.156	14670
917.268	14625
917.38	14587
917.491	14526
917.603	14522
917.715	14682
917.826	14655
917.938	14476
918.049	14469
918.161	14530
918.272	14556
918.384	14606
918.495	14492
918.606	14317
918.717	14286
918.828	14404
918.939	14347
919.05	14305
919.161	14317
919.272	14123
919.383	14130
919.494	14434
919.604	14549
919.715	14343
919.826	14252
919.936	14229
920.047	14366
920.157	14355
920.267	14450
920.378	14233
920.488	14362
920.598	14552
920.708	14621
920.818	14492
920.928	14431
921.038	14598
921.148	14632
921.258	14324
921.368	14187
921.477	14024
921.587	14069
921.697	13879
921.806	14073
921.916	13906
922.025	13681
922.134	13765
922.244	13784
922.353	13765
922.462	13552
922.571	13537
922.68	13377
922.789	13297
922.898	13339
923.007	13308
923.116	13388
923.224	13304
923.333	13263
923.442	13217
923.55	13240
923.659	13221
923.767	13232
923.876	13065
923.984	13202
924.092	13076
924.201	13183
924.309	13149
924.417	13061
924.525	12996
924.633	13107
924.741	13944
924.849	12741
924.956	12909
925.064	12764
925.172	12760
925.279	12719
925.387	12734
925.494	12741
925.602	12848
925.709	12817
925.816	12658
925.924	12730
926.031	12886
926.138	12650
926.245	12715
926.352	12566
926.459	12665
926.566	12779
926.673	12726
926.779	12555
926.886	12467
926.993	12384
927.099	12300
927.206	12220
927.312	12273
927.419	12395
927.525	12213
927.631	12315
927.737	12201
927.843	12144
927.95	12053
928.056	12171
928.162	12220
928.267	12205
928.373	12932
928.479	12296
928.585	12068
928.69	12083
928.796	12114
928.901	12121
929.007	11866
929.112	12034
929.218	11977
929.323	11920
929.428	11790
929.533	12022
929.638	11836
929.743	11855
929.848	11973
929.953	11851
930.058	11737
930.163	11573
930.267	11608
930.372	11809
930.477	11589
930.581	11821
930.685	11627
930.79	11532
930.894	11471
930.998	11493
931.103	11604
931.207	11273
931.311	11121
931.415	11109
931.519	10889
931.623	10869
