Data from test_V78500241_1221.txt Node
Date: Fri Mar 25 15:50:15 CST 2022
User: usil
Spectrometer: V785-0024
Trigger mode: 0
Integration Time (sec): 4.000000E-1
Scans to average: 1
Nonlinearity correction enabled: false
Boxcar width: 0
Storing dark spectrum: false
XAxis mode: Wavelengths
Number of Pixels in Spectrum: 1024
>>>>>Begin Spectral Data<<<<<
801.071	28847
801.214	28546
801.356	28398
801.499	28386
801.641	28421
801.783	28318
801.926	28314
802.068	28284
802.211	28249
802.353	28177
802.496	27934
802.638	28078
802.78	27972
802.923	27956
803.065	27793
803.208	27937
803.35	27956
803.492	28120
803.635	28272
803.777	28139
803.919	28261
804.061	28622
804.204	28413
804.346	28188
804.488	28169
804.63	28280
804.773	28109
804.915	28246
805.057	28341
805.199	28249
805.341	28382
805.483	28417
805.626	28367
805.768	28325
805.91	28554
806.052	28405
806.194	28363
806.336	28706
806.478	28500
806.62	28390
806.762	28542
806.904	28561
807.046	28847
807.188	28877
807.33	28820
807.472	28999
807.614	28831
807.756	28797
807.898	28763
808.04	28637
808.182	28664
808.324	28725
808.465	28786
808.607	29037
808.749	29220
808.891	29337
809.033	29337
809.174	29147
809.316	29216
809.458	29147
809.6	29094
809.741	29204
809.883	29231
810.025	29341
810.166	29429
810.308	29520
810.45	29273
810.591	29303
810.733	29239
810.875	29090
811.016	28987
811.158	29071
811.299	29284
811.441	29216
811.582	29315
811.724	29113
811.865	29105
812.007	29132
812.148	29143
812.29	29197
812.431	29181
812.573	29482
812.714	29570
812.855	29729
812.997	29745
813.138	29847
813.279	29912
813.421	29714
813.562	29554
813.703	29528
813.845	29486
813.986	29105
814.127	29044
814.268	28972
814.41	28949
814.551	28869
814.692	28839
814.833	28725
814.974	28957
815.115	28904
815.256	28812
815.397	28733
815.539	28774
815.68	28706
815.821	28584
815.962	28706
816.103	28679
816.244	28588
816.385	28580
816.526	28443
816.666	28363
816.807	28261
816.948	28329
817.089	28185
817.23	28162
817.371	28063
817.512	28059
817.653	28207
817.793	28181
817.934	28177
818.075	28257
818.216	28185
818.356	28070
818.497	28017
818.638	27975
818.778	27854
818.919	27827
819.06	27926
819.2	28078
819.341	28177
819.481	28181
819.622	28344
819.762	28352
819.903	28333
820.043	28246
820.184	28272
820.324	28177
820.465	28325
820.605	28409
820.746	28230
820.886	28242
821.026	28371
821.167	28135
821.307	28436
821.447	28230
821.588	28234
821.728	28063
821.868	27781
822.008	27663
822.149	27709
822.289	27610
822.429	27496
822.569	27340
822.709	27313
822.849	27226
822.99	27085
823.13	27116
823.27	27161
823.41	27074
823.55	26876
823.69	26937
823.83	27013
823.97	26975
824.11	26735
824.25	26819
824.389	26830
824.529	26891
824.669	26842
824.809	26960
824.949	26849
825.089	26883
825.228	26876
825.368	26682
825.508	26743
825.648	26785
825.787	26773
825.927	26682
826.067	26655
826.206	26621
826.346	26781
826.485	26758
826.625	26720
826.765	26754
826.904	26785
827.044	26446
827.183	26473
827.323	26385
827.462	26347
827.601	26450
827.741	26381
827.88	26374
828.02	26176
828.159	26381
828.298	26396
828.437	26526
828.577	26317
828.716	26545
828.855	26278
828.994	26062
829.134	26229
829.273	25989
829.412	25970
829.551	26008
829.69	26046
829.829	26180
829.968	26305
830.107	26199
830.246	25997
830.385	26001
830.524	25963
830.663	25989
830.802	25830
830.941	25753
831.08	25712
831.219	25845
831.357	25670
831.496	25921
831.635	25666
831.774	25753
831.913	25658
832.051	25575
832.19	25487
832.329	25362
832.467	25369
832.606	25365
832.744	25449
832.883	25365
833.022	25282
833.16	25419
833.299	25392
833.437	25259
833.576	25453
833.714	25434
833.852	25540
833.991	25434
834.129	25460
834.267	25369
834.406	25381
834.544	25544
834.682	25312
834.821	25354
834.959	25757
835.097	25350
835.235	25464
835.373	25445
835.511	25384
835.65	25316
835.788	25403
835.926	25198
836.064	25076
836.202	25152
836.34	25320
836.478	25251
836.615	25274
836.753	25278
836.891	25255
837.029	25251
837.167	25156
837.305	25179
837.443	25084
837.58	25091
837.718	25168
837.856	25027
837.993	25080
838.131	25053
838.269	24814
838.406	24951
838.544	24962
838.681	24768
838.819	24673
838.956	24521
839.094	24509
839.231	24639
839.369	24715
839.506	24905
839.643	24768
839.781	24528
839.918	24422
840.055	24452
840.193	24433
840.33	24517
840.467	24525
840.604	24483
840.742	24738
840.879	24407
841.016	24498
841.153	24254
841.29	24471
841.427	24452
841.564	24437
841.701	24475
841.838	24388
841.975	24330
842.112	24334
842.249	24365
842.385	24182
842.522	24395
842.659	24289
842.796	24243
842.933	24152
843.069	24129
843.206	24045
843.343	24117
843.479	24178
843.616	24114
843.752	23984
843.889	23977
844.025	24049
844.162	23969
844.298	24095
844.435	24018
844.571	23961
844.708	23999
844.844	24114
844.98	24079
845.117	24136
845.253	23901
845.389	23878
845.525	23847
845.661	23840
845.798	23642
845.934	23817
846.07	23764
846.206	23748
846.342	23771
846.478	23733
846.614	23668
846.75	23455
846.886	23478
847.022	23551
847.158	23486
847.294	23459
847.429	23372
847.565	23395
847.701	23756
847.837	23193
847.972	23124
848.108	23269
848.244	23151
848.379	23083
848.515	23041
848.65	22991
848.786	22987
848.921	22987
849.057	23185
849.192	23041
849.328	23090
849.463	23003
849.598	22805
849.734	22858
849.869	22904
850.004	22763
850.14	22771
850.275	22885
850.41	22744
850.545	22771
850.68	22706
850.815	22736
850.95	22721
851.085	22915
851.22	22843
851.355	22816
851.49	22694
851.625	22672
851.76	22946
851.895	22710
852.03	22725
852.165	22934
852.299	22900
852.434	22862
852.569	22869
852.703	22755
852.838	22736
852.973	22968
853.107	22881
853.242	22744
853.376	22729
853.511	22367
853.645	22615
853.78	22820
853.914	22584
854.048	22508
854.183	22584
854.317	22660
854.451	22820
854.585	22561
854.72	22519
854.854	22557
854.988	22637
855.122	22664
855.256	22474
855.39	22554
855.524	22729
855.658	22702
855.792	22497
855.926	22672
856.06	22786
856.194	22873
856.327	22630
856.461	22493
856.595	22542
856.729	22630
856.862	22691
856.996	22615
857.13	22710
857.263	22660
857.397	22660
857.53	22618
857.664	22478
857.797	22687
857.931	22641
858.064	22656
858.197	22656
858.331	22478
858.464	22531
858.597	22470
858.731	22478
858.864	22580
858.997	22508
859.13	22455
859.263	22527
859.396	22554
859.529	22580
859.662	22561
859.795	22596
859.928	22554
860.061	22790
860.194	22767
860.327	22698
860.46	22615
860.592	22748
860.725	22694
860.858	22706
860.99	22599
861.123	22409
861.256	22672
861.388	22584
861.521	23273
861.653	22577
861.786	22356
861.918	22405
862.05	22584
862.183	22546
862.315	22577
862.447	22660
862.58	22546
862.712	22261
862.844	22306
862.976	22500
863.108	22402
863.24	22672
863.372	22333
863.504	22413
863.636	22291
863.768	22318
863.9	22318
864.032	22238
864.164	22261
864.296	22322
864.428	22379
864.559	22436
864.691	22379
864.823	22371
864.954	22291
865.086	22329
865.217	22325
865.349	22051
865.48	22128
865.612	22154
865.743	22306
865.875	22272
866.006	22211
866.137	22158
866.269	22093
866.4	22120
866.531	22211
866.662	22128
866.793	22135
866.924	22040
867.055	22154
867.186	22093
867.317	22154
867.448	22128
867.579	22109
867.71	22048
867.841	22021
867.972	22078
868.103	22044
868.233	22086
868.364	22143
868.495	22352
868.625	22257
868.756	22443
868.886	22242
869.017	22367
869.147	22424
869.278	22394
869.408	22440
869.539	22272
869.669	22447
869.799	22481
869.929	22348
870.06	22523
870.19	22618
870.32	22634
870.45	22736
870.58	22744
870.71	22927
870.84	22786
870.97	22691
871.1	22733
871.23	22961
871.36	22866
871.489	22828
871.619	23056
871.749	22930
871.879	23060
872.008	22980
872.138	22930
872.267	22965
872.397	22835
872.526	22835
872.656	22774
872.785	22702
872.915	22908
873.044	22946
873.173	22949
873.303	22946
873.432	23018
873.561	23098
873.69	23090
873.819	22953
873.948	23022
874.077	23064
874.206	22854
874.335	22980
874.464	23193
874.593	23227
874.722	23086
874.851	23322
874.979	23162
875.108	23273
875.237	23132
875.365	22987
875.494	23166
875.623	23166
875.751	23151
875.88	23200
876.008	23254
876.136	23288
876.265	23581
876.393	23653
876.521	23687
876.65	23714
876.778	23581
876.906	23509
877.034	23493
877.162	23600
877.29	23448
877.418	23554
877.546	23520
877.674	23433
877.802	23440
877.93	23444
878.058	23372
878.185	23220
878.313	23436
878.441	23436
878.568	23330
878.696	23387
878.824	23440
878.951	23524
879.079	23596
879.206	23756
879.333	23665
879.461	23448
879.588	23531
879.715	23729
879.842	23726
879.97	23501
880.097	23330
880.224	23345
880.351	23337
880.478	23391
880.605	23326
880.732	23341
880.859	23566
880.986	23288
881.112	23334
881.239	23113
881.366	22953
881.493	22873
881.619	22805
881.746	22824
881.872	22972
881.999	22805
882.125	22797
882.252	22911
882.378	22881
882.505	22949
882.631	22641
882.757	22664
882.883	22630
883.01	22698
883.136	22531
883.262	22348
883.388	22455
883.514	22550
883.64	22531
883.766	22436
883.892	22333
884.018	22402
884.143	22466
884.269	22679
884.395	22185
884.52	22207
884.646	22074
884.772	22067
884.897	21941
885.023	22219
885.148	22242
885.274	22348
885.399	22143
885.524	22169
885.65	22177
885.775	22147
885.9	22090
886.025	22261
886.15	22246
886.275	22219
886.4	22135
886.525	22257
886.65	22162
886.775	22070
886.9	22200
887.025	22303
887.149	22166
887.274	22013
887.399	21953
887.523	21880
887.648	21857
887.773	21869
887.897	22093
888.021	22021
888.146	21857
888.27	22097
888.395	22002
888.519	21953
888.643	21987
888.767	21998
888.891	21823
889.015	21789
889.139	21709
889.263	21789
889.387	21808
889.511	21915
889.635	21812
889.759	21732
889.883	21797
890.006	21599
890.13	21789
890.254	21599
890.377	21557
890.501	21332
890.624	21431
890.748	21401
890.871	21408
890.995	21154
891.118	21344
891.241	21207
891.364	21214
891.488	21507
891.611	21272
891.734	21344
891.857	21348
891.98	21173
892.103	21321
892.226	21207
892.349	21268
892.471	21051
892.594	21272
892.717	21256
892.839	21089
892.962	21233
893.085	21222
893.207	21058
893.33	20956
893.452	21028
893.575	21169
893.697	21039
893.819	21291
893.941	21348
894.064	21317
894.186	21127
894.308	21036
894.43	21241
894.552	21264
894.674	21195
894.796	21051
894.918	21150
895.04	21039
895.161	21093
895.283	21135
895.405	21055
895.526	21093
895.648	21131
895.769	21154
895.891	21184
896.012	21188
896.134	21203
896.255	21135
896.376	21142
896.498	21096
896.619	21184
896.74	21123
896.861	21214
896.982	21671
897.103	21564
897.224	21492
897.345	21405
897.466	21245
897.587	21294
897.708	21561
897.828	21507
897.949	21317
898.07	21226
898.19	21252
898.311	21378
898.431	21294
898.552	21321
898.672	21363
898.792	21294
898.913	21401
899.033	21096
899.153	21116
899.273	20868
899.393	21104
899.513	21096
899.633	21135
899.753	21047
899.873	20994
899.993	21100
900.113	20998
900.232	21009
900.352	20864
900.472	20880
900.591	20815
900.711	20902
900.83	20811
900.95	20880
901.069	20743
901.189	20834
901.308	20476
901.427	20320
901.546	20415
901.665	20317
901.784	20400
901.904	20286
902.023	20153
902.141	20043
902.26	19906
902.379	20031
902.498	19906
902.617	19928
902.735	19978
902.854	19837
902.973	19811
903.091	19590
903.21	19613
903.328	19415
903.446	19556
903.565	19255
903.683	19301
903.801	19217
903.919	19381
904.038	19221
904.156	19050
904.274	19202
904.392	19107
904.51	19088
904.627	19190
904.745	19171
904.863	19133
904.981	18916
905.098	18821
905.216	18817
905.334	18894
905.451	18745
905.569	18738
905.686	18856
905.803	18700
905.921	18582
906.038	18654
906.155	18604
906.272	18319
906.389	18536
906.506	18407
906.623	18224
906.74	18342
906.857	18102
906.974	18239
907.091	18384
907.208	18391
907.324	18308
907.441	18197
907.557	18026
907.674	18049
907.79	17984
907.907	17912
908.023	17999
908.139	17946
908.256	18019
908.372	17950
908.488	17977
908.604	17714
908.72	17634
908.836	17779
908.952	17653
909.068	17775
909.184	17809
909.3	17676
909.415	17760
909.531	17676
909.647	17532
909.762	17497
909.878	17448
909.993	17376
910.108	17406
910.224	17444
910.339	17330
910.454	17353
910.57	17166
910.685	17162
910.8	17452
910.915	17387
911.03	17147
911.145	17071
911.259	16999
911.374	16999
911.489	16896
911.604	16862
911.718	16744
911.833	16824
911.947	16740
912.062	16527
912.176	16748
912.291	16744
912.405	16752
912.519	17067
912.633	16968
912.748	16797
912.862	16691
912.976	16481
913.09	16489
913.204	16535
913.318	16618
913.431	16672
913.545	16721
913.659	16752
913.772	16493
913.886	16489
914	16322
914.113	16360
914.226	16394
914.34	16523
914.453	16295
914.566	16443
914.68	16284
914.793	16200
914.906	16021
915.019	15960
915.132	15960
915.245	15941
915.358	15899
915.47	15960
915.583	15945
915.696	15945
915.809	16078
915.921	16101
916.034	15819
916.146	15778
916.259	15755
916.371	15937
916.483	15861
916.595	15778
916.708	15766
916.82	15759
916.932	15705
917.044	15793
917.156	15644
917.268	15564
917.38	15603
917.491	15507
917.603	15587
917.715	15641
917.826	15606
917.938	15557
918.049	15363
918.161	15538
918.272	15637
918.384	15496
918.495	15530
918.606	15317
918.717	15340
918.828	15321
918.939	15378
919.05	15256
919.161	15211
919.272	15161
919.383	15336
919.494	15306
919.604	15526
919.715	15256
919.826	15275
919.936	15123
920.047	15321
920.157	15188
920.267	15389
920.378	15370
920.488	15211
920.598	15416
920.708	15610
920.818	15492
920.928	15450
921.038	15488
921.148	15477
921.258	15142
921.368	15085
921.477	15077
921.587	15036
921.697	14868
921.806	14971
921.916	14815
922.025	14640
922.134	14564
922.244	14549
922.353	14663
922.462	14495
922.571	14442
922.68	14305
922.789	14355
922.898	14282
923.007	14202
923.116	14294
923.224	14218
923.333	14210
923.442	13978
923.55	14039
923.659	14145
923.767	14126
923.876	13993
923.984	14233
924.092	13974
924.201	13982
924.309	14016
924.417	13978
924.525	13921
924.633	13883
924.741	14625
924.849	13643
924.956	13837
925.064	13708
925.172	13575
925.279	13552
925.387	13666
925.494	13639
925.602	13761
925.709	13662
925.816	13582
925.924	13502
926.031	13594
926.138	13594
926.245	13559
926.352	13445
926.459	13533
926.566	13582
926.673	13464
926.779	13419
926.886	13373
926.993	13327
927.099	13255
927.206	13179
927.312	13069
927.419	13266
927.525	13156
927.631	13149
927.737	13126
927.843	12996
927.95	12882
928.056	13012
928.162	13042
928.267	13019
928.373	13712
928.479	13084
928.585	12871
928.69	12996
928.796	12973
928.901	12878
929.007	12665
929.112	12829
929.218	12741
929.323	12726
929.428	12726
929.533	12791
929.638	12673
929.743	12741
929.848	12662
929.953	12635
930.058	12582
930.163	12342
930.267	12273
930.372	12513
930.477	12304
930.581	12475
930.685	12346
930.79	12277
930.894	12254
930.998	12171
931.103	12365
931.207	11961
931.311	11927
931.415	11878
931.519	11608
931.623	11528
