Data from test_V78500241_3619.txt Node
Date: Fri Mar 25 16:06:52 CST 2022
User: usil
Spectrometer: V785-0024
Trigger mode: 0
Integration Time (sec): 4.000000E-1
Scans to average: 1
Nonlinearity correction enabled: false
Boxcar width: 0
Storing dark spectrum: false
XAxis mode: Wavelengths
Number of Pixels in Spectrum: 1024
>>>>>Begin Spectral Data<<<<<
801.071	28740
801.214	28725
801.356	28462
801.499	28462
801.641	28310
801.783	28276
801.926	28523
802.068	28382
802.211	28284
802.353	28352
802.496	28223
802.638	28006
802.78	28166
802.923	27945
803.065	27926
803.208	27987
803.35	28025
803.492	28223
803.635	28284
803.777	28101
803.919	28158
804.061	28607
804.204	28367
804.346	28234
804.488	28219
804.63	28230
804.773	28257
804.915	28318
805.057	28417
805.199	28299
805.341	28440
805.483	28451
805.626	28512
805.768	28428
805.91	28466
806.052	28504
806.194	28443
806.336	28535
806.478	28443
806.62	28443
806.762	28672
806.904	28763
807.046	29029
807.188	28972
807.33	28812
807.472	29041
807.614	29075
807.756	28786
807.898	28733
808.04	28805
808.182	28904
808.324	28888
808.465	28888
808.607	29029
808.749	29178
808.891	29181
809.033	29284
809.174	29223
809.316	29136
809.458	29098
809.6	29318
809.741	29261
809.883	29261
810.025	29573
810.166	29414
810.308	29486
810.45	29379
810.591	29341
810.733	29265
810.875	29200
811.016	29151
811.158	29018
811.299	29216
811.441	29387
811.582	29334
811.724	29109
811.865	29014
812.007	29216
812.148	29307
812.29	29334
812.431	29459
812.573	29383
812.714	29623
812.855	29676
812.997	29657
813.138	29923
813.279	29764
813.421	29661
813.562	29703
813.703	29486
813.845	29482
813.986	29170
814.127	28965
814.268	28949
814.41	28949
814.551	28847
814.692	28915
814.833	28900
814.974	28793
815.115	28999
815.256	28828
815.397	28717
815.539	28812
815.68	28668
815.821	28717
815.962	28672
816.103	28710
816.244	28603
816.385	28618
816.526	28497
816.666	28234
816.807	28177
816.948	28223
817.089	28322
817.23	28356
817.371	28169
817.512	28131
817.653	28211
817.793	28116
817.934	28116
818.075	28303
818.216	28169
818.356	28246
818.497	28036
818.638	27979
818.778	27964
818.919	27835
819.06	28131
819.2	28048
819.341	28295
819.481	28200
819.622	28474
819.762	28675
819.903	28489
820.043	28493
820.184	28375
820.324	28451
820.465	28417
820.605	28291
820.746	28299
820.886	28253
821.026	28287
821.167	28310
821.307	28382
821.447	28211
821.588	28093
821.728	28002
821.868	27914
822.008	27564
822.149	27724
822.289	27713
822.429	27386
822.569	27325
822.709	27412
822.849	27344
822.99	27207
823.13	27298
823.27	27131
823.41	26963
823.55	26815
823.69	27165
823.83	27154
823.97	26914
824.11	26785
824.25	26788
824.389	26689
824.529	26921
824.669	26895
824.809	27112
824.949	26918
825.089	26895
825.228	26925
825.368	26701
825.508	26693
825.648	26769
825.787	26765
825.927	26796
826.067	26834
826.206	26781
826.346	26815
826.485	26686
826.625	26804
826.765	26857
826.904	26918
827.044	26507
827.183	26629
827.323	26259
827.462	26442
827.601	26522
827.741	26412
827.88	26564
828.02	26240
828.159	26453
828.298	26412
828.437	26488
828.577	26362
828.716	26484
828.855	26385
828.994	26248
829.134	26180
829.273	26016
829.412	26016
829.551	26050
829.69	26130
829.829	26069
829.968	26221
830.107	26294
830.246	26157
830.385	26103
830.524	26138
830.663	25871
830.802	25841
830.941	25635
831.08	25734
831.219	25860
831.357	25849
831.496	25932
831.635	25712
831.774	25613
831.913	25464
832.051	25518
832.19	25491
832.329	25537
832.467	25434
832.606	25343
832.744	25270
832.883	25430
833.022	25346
833.16	25331
833.299	25495
833.437	25556
833.576	25453
833.714	25548
833.852	25468
833.991	25518
834.129	25434
834.267	25586
834.406	25438
834.544	25578
834.682	25643
834.821	25575
834.959	25662
835.097	25491
835.235	25460
835.373	25510
835.511	25411
835.65	25411
835.788	25343
835.926	25225
836.064	25110
836.202	25095
836.34	25304
836.478	25419
836.615	25468
836.753	25255
836.891	25411
837.029	25308
837.167	25236
837.305	25285
837.443	25160
837.58	25008
837.718	25304
837.856	25126
837.993	24977
838.131	25038
838.269	25027
838.406	25034
838.544	25034
838.681	24886
838.819	24871
838.956	24536
839.094	24536
839.231	24585
839.369	24787
839.506	24981
839.643	24894
839.781	24582
839.918	24597
840.055	24673
840.193	24559
840.33	24460
840.467	24483
840.604	24483
840.742	24719
840.879	24426
841.016	24369
841.153	24300
841.29	24547
841.427	24353
841.564	24502
841.701	24471
841.838	24395
841.975	24342
842.112	24426
842.249	24414
842.385	24357
842.522	24323
842.659	24296
842.796	24228
842.933	24289
843.069	24247
843.206	24224
843.343	24254
843.479	24155
843.616	24186
843.752	24091
843.889	24148
844.025	24114
844.162	24144
844.298	24129
844.435	23999
844.571	23977
844.708	24121
844.844	23988
844.98	24357
845.117	24159
845.253	24064
845.389	23847
845.525	23870
845.661	23988
845.798	23767
845.934	23859
846.07	23661
846.206	23745
846.342	23847
846.478	23661
846.614	23714
846.75	23440
846.886	23478
847.022	23554
847.158	23486
847.294	23501
847.429	23459
847.565	23486
847.701	23748
847.837	23178
847.972	23185
848.108	23242
848.244	23258
848.379	23086
848.515	23029
848.65	23010
848.786	23079
848.921	23140
849.057	23090
849.192	23113
849.328	23067
849.463	23181
849.598	22968
849.734	22938
849.869	22957
850.004	22755
850.14	22873
850.275	22968
850.41	22786
850.545	22831
850.68	22710
850.815	22839
850.95	22858
851.085	23022
851.22	22942
851.355	22801
851.49	22797
851.625	22843
851.76	22778
851.895	22797
852.03	22733
852.165	22866
852.299	22809
852.434	22904
852.569	22946
852.703	22790
852.838	22869
852.973	22885
853.107	22984
853.242	22805
853.376	22698
853.511	22459
853.645	22645
853.78	22809
853.914	22793
854.048	22687
854.183	22641
854.317	22729
854.451	22873
854.585	22668
854.72	22653
854.854	22729
854.988	22713
855.122	22630
855.256	22668
855.39	22653
855.524	22656
855.658	22733
855.792	22752
855.926	22778
856.06	22656
856.194	22645
856.327	22653
856.461	22542
856.595	22489
856.729	22542
856.862	22744
856.996	22599
857.13	22801
857.263	22797
857.397	22816
857.53	22618
857.664	22698
857.797	22675
857.931	22793
858.064	22641
858.197	22786
858.331	22725
858.464	22542
858.597	22588
858.731	22641
858.864	22694
858.997	22577
859.13	22634
859.263	22645
859.396	22748
859.529	22596
859.662	22478
859.795	22618
859.928	22649
860.061	22881
860.194	22881
860.327	22706
860.46	22622
860.592	22869
860.725	22873
860.858	22748
860.99	22611
861.123	22679
861.256	22641
861.388	22588
861.521	23395
861.653	22489
861.786	22508
861.918	22481
862.05	22523
862.183	22538
862.315	22573
862.447	22717
862.58	22519
862.712	22360
862.844	22333
862.976	22379
863.108	22466
863.24	22725
863.372	22230
863.504	22379
863.636	22459
863.768	22470
863.9	22352
864.032	22363
864.164	22512
864.296	22379
864.428	22531
864.559	22413
864.691	22398
864.823	22322
864.954	22261
865.086	22344
865.217	22303
865.349	22246
865.48	22284
865.612	22246
865.743	22310
865.875	22238
866.006	22207
866.137	22192
866.269	22230
866.4	22246
866.531	22173
866.662	22135
866.793	22116
866.924	22318
867.055	22093
867.186	22177
867.317	22162
867.448	22204
867.579	22116
867.71	22097
867.841	22154
867.972	22124
868.103	22192
868.233	22211
868.364	22200
868.495	22280
868.625	22268
868.756	22508
868.886	22226
869.017	22314
869.147	22440
869.278	22523
869.408	22440
869.539	22371
869.669	22459
869.799	22455
869.929	22474
870.06	22424
870.19	22679
870.32	22649
870.45	22653
870.58	22828
870.71	22976
870.84	22938
870.97	22755
871.1	22797
871.23	22995
871.36	23071
871.489	22820
871.619	22927
871.749	22900
871.879	23094
872.008	23166
872.138	22930
872.267	22999
872.397	22949
872.526	22892
872.656	22858
872.785	22843
872.915	23060
873.044	23197
873.173	23204
873.303	23014
873.432	23162
873.561	23174
873.69	23033
873.819	23117
873.948	22991
874.077	23044
874.206	22862
874.335	22972
874.464	23143
874.593	23223
874.722	23178
874.851	23299
874.979	23239
875.108	23254
875.237	23132
875.365	23151
875.494	23212
875.623	23227
875.751	23303
875.88	23345
876.008	23368
876.136	23417
876.265	23695
876.393	23741
876.521	23573
876.65	23604
876.778	23535
876.906	23627
877.034	23623
877.162	23596
877.29	23524
877.418	23497
877.546	23524
877.674	23547
877.802	23642
877.93	23558
878.058	23486
878.185	23417
878.313	23535
878.441	23505
878.568	23364
878.696	23528
878.824	23646
878.951	23581
879.079	23733
879.206	23863
879.333	23547
879.461	23547
879.588	23657
879.715	23722
879.842	23760
879.97	23668
880.097	23421
880.224	23402
880.351	23463
880.478	23436
880.605	23372
880.732	23425
880.859	23634
880.986	23474
881.112	23429
881.239	23181
881.366	23166
881.493	23147
881.619	22828
881.746	22942
881.872	22866
881.999	22953
882.125	22831
882.252	22885
882.378	22984
882.505	22980
882.631	22721
882.757	22668
882.883	22786
883.01	22706
883.136	22542
883.262	22557
883.388	22557
883.514	22694
883.64	22599
883.766	22637
883.892	22314
884.018	22538
884.143	22531
884.269	22630
884.395	22337
884.52	22413
884.646	22192
884.772	22287
884.897	22181
885.023	22215
885.148	22455
885.274	22382
885.399	22360
885.524	22348
885.65	22230
885.775	22314
885.9	22166
886.025	22371
886.15	22394
886.275	22211
886.4	22162
886.525	22246
886.65	22131
886.775	22131
886.9	22306
887.025	22367
887.149	22226
887.274	22082
887.399	22112
887.523	22116
887.648	21983
887.773	21926
887.897	22101
888.021	21994
888.146	22025
888.27	22059
888.395	22204
888.519	21998
888.643	22067
888.767	22036
888.891	21884
889.015	21899
889.139	21854
889.263	21892
889.387	21857
889.511	21922
889.635	21857
889.759	21682
889.883	21789
890.006	21861
890.13	21888
890.254	21709
890.377	21701
890.501	21504
890.624	21424
890.748	21618
890.871	21416
890.995	21344
891.118	21298
891.241	21393
891.364	21344
891.488	21500
891.611	21382
891.734	21367
891.857	21382
891.98	21386
892.103	21283
892.226	21336
892.349	21237
892.471	21222
892.594	21268
892.717	21275
892.839	21211
892.962	21260
893.085	21344
893.207	21245
893.33	21260
893.452	21260
893.575	21298
893.697	21176
893.819	21416
893.941	21477
894.064	21481
894.186	21226
894.308	21123
894.43	21359
894.552	21367
894.674	21268
894.796	21138
894.918	21203
895.04	21310
895.161	21325
895.283	21313
895.405	21096
895.526	21264
895.648	21195
895.769	21214
895.891	21184
896.012	21256
896.134	21241
896.255	21241
896.376	21070
896.498	21169
896.619	21291
896.74	21226
896.861	21192
896.982	21587
897.103	21580
897.224	21386
897.345	21401
897.466	21382
897.587	21332
897.708	21549
897.828	21481
897.949	21401
898.07	21272
898.19	21351
898.311	21424
898.431	21279
898.552	21321
898.672	21458
898.792	21435
898.913	21523
899.033	21245
899.153	21188
899.273	21116
899.393	21100
899.513	21150
899.633	21260
899.753	21154
899.873	21127
899.993	21203
900.113	21100
900.232	21081
900.352	21192
900.472	21020
900.591	20910
900.711	20910
900.83	20811
900.95	20994
901.069	20979
901.189	20807
901.308	20549
901.427	20454
901.546	20476
901.665	20465
901.784	20419
901.904	20305
902.023	20202
902.141	20050
902.26	20065
902.379	20016
902.498	19997
902.617	19970
902.735	19963
902.854	20031
902.973	19989
903.091	19578
903.21	19628
903.328	19594
903.446	19670
903.565	19449
903.683	19457
903.801	19430
903.919	19415
904.038	19282
904.156	19247
904.274	19346
904.392	19168
904.51	19156
904.627	19183
904.745	19251
904.863	19137
904.981	19080
905.098	18875
905.216	18825
905.334	18814
905.451	18897
905.569	18856
905.686	18848
905.803	18817
905.921	18604
906.038	18711
906.155	18768
906.272	18544
906.389	18570
906.506	18384
906.623	18372
906.74	18289
906.857	18296
906.974	18330
907.091	18372
907.208	18486
907.324	18361
907.441	18273
907.557	18106
907.674	18026
907.79	18030
907.907	18121
908.023	18076
908.139	18121
908.256	18007
908.372	17958
908.488	17923
908.604	17779
908.72	17760
908.836	17855
908.952	17798
909.068	17748
909.184	17866
909.3	17745
909.415	17836
909.531	17771
909.647	17463
909.762	17570
909.878	17429
909.993	17463
910.108	17490
910.224	17414
910.339	17520
910.454	17326
910.57	17307
910.685	17299
910.8	17467
910.915	17356
911.03	17212
911.145	17102
911.259	17128
911.374	17079
911.489	16995
911.604	16938
911.718	16869
911.833	16816
911.947	16683
912.062	16554
912.176	16835
912.291	16930
912.405	16805
912.519	17048
912.633	16965
912.748	16892
912.862	16755
912.976	16519
913.09	16493
913.204	16660
913.318	16626
913.431	16717
913.545	16626
913.659	16698
913.772	16538
913.886	16402
914	16512
914.113	16493
914.226	16508
914.34	16478
914.453	16272
914.566	16360
914.68	16329
914.793	16158
914.906	16086
915.019	15998
915.132	15915
915.245	15956
915.358	16051
915.47	15949
915.583	15994
915.696	15991
915.809	16017
915.921	16063
916.034	15876
916.146	15926
916.259	15781
916.371	15941
916.483	15994
916.595	15812
916.708	15835
916.82	15793
916.932	15812
917.044	15797
917.156	15698
917.268	15496
917.38	15595
917.491	15591
917.603	15701
917.715	15743
917.826	15701
917.938	15534
918.049	15542
918.161	15435
918.272	15648
918.384	15614
918.495	15447
918.606	15374
918.717	15332
918.828	15382
918.939	15252
919.05	15264
919.161	15218
919.272	15131
919.383	15211
919.494	15363
919.604	15545
919.715	15359
919.826	15294
919.936	15260
920.047	15340
920.157	15359
920.267	15477
920.378	15272
920.488	15176
920.598	15397
920.708	15694
920.818	15397
920.928	15462
921.038	15564
921.148	15500
921.258	15291
921.368	15074
921.477	15001
921.587	14967
921.697	14819
921.806	14963
921.916	14868
922.025	14705
922.134	14583
922.244	14610
922.353	14701
922.462	14625
922.571	14461
922.68	14301
922.789	14377
922.898	14259
923.007	14256
923.116	14275
923.224	14317
923.333	14271
923.442	14103
923.55	14107
923.659	14225
923.767	14164
923.876	14088
923.984	14126
924.092	13947
924.201	14050
924.309	13978
924.417	14027
924.525	13936
924.633	13944
924.741	14914
924.849	13738
924.956	13849
925.064	13647
925.172	13674
925.279	13662
925.387	13647
925.494	13514
925.602	13833
925.709	13662
925.816	13628
925.924	13533
926.031	13704
926.138	13491
926.245	13597
926.352	13495
926.459	13651
926.566	13624
926.673	13506
926.779	13396
926.886	13346
926.993	13183
927.099	13190
927.206	13285
927.312	13107
927.419	13175
927.525	13202
927.631	13160
927.737	13019
927.843	12973
927.95	12932
928.056	13019
928.162	12989
928.267	13103
928.373	13696
928.479	13057
928.585	12798
928.69	12905
928.796	12943
928.901	12905
929.007	12669
929.112	12817
929.218	12795
929.323	12806
929.428	12669
929.533	12829
929.638	12566
929.743	12715
929.848	12669
929.953	12593
930.058	12544
930.163	12300
930.267	12410
930.372	12525
930.477	12258
930.581	12555
930.685	12391
930.79	12254
930.894	12296
930.998	12232
931.103	12399
931.207	12053
931.311	11847
931.415	11798
931.519	11589
931.623	11596
