Data from test_V78500241_3526.txt Node
Date: Fri Mar 25 16:06:13 CST 2022
User: usil
Spectrometer: V785-0024
Trigger mode: 0
Integration Time (sec): 4.000000E-1
Scans to average: 1
Nonlinearity correction enabled: false
Boxcar width: 0
Storing dark spectrum: false
XAxis mode: Wavelengths
Number of Pixels in Spectrum: 1024
>>>>>Begin Spectral Data<<<<<
801.071	29109
801.214	28965
801.356	28679
801.499	28622
801.641	28455
801.783	28611
801.926	28656
802.068	28516
802.211	28554
802.353	28428
802.496	28386
802.638	28314
802.78	28280
802.923	28120
803.065	28215
803.208	28268
803.35	28265
803.492	28516
803.635	28485
803.777	28280
803.919	28401
804.061	28839
804.204	28618
804.346	28352
804.488	28500
804.63	28497
804.773	28447
804.915	28611
805.057	28653
805.199	28538
805.341	28694
805.483	28615
805.626	28679
805.768	28668
805.91	28725
806.052	28759
806.194	28641
806.336	28698
806.478	28740
806.62	28733
806.762	28778
806.904	28904
807.046	29181
807.188	29083
807.33	29143
807.472	29151
807.614	29136
807.756	29083
807.898	29098
808.04	28908
808.182	28873
808.324	28995
808.465	29132
808.607	29261
808.749	29440
808.891	29482
809.033	29592
809.174	29490
809.316	29242
809.458	29425
809.6	29383
809.741	29471
809.883	29596
810.025	29653
810.166	29722
810.308	29691
810.45	29573
810.591	29581
810.733	29353
810.875	29436
811.016	29410
811.158	29246
811.299	29455
811.441	29623
811.582	29547
811.724	29379
811.865	29307
812.007	29414
812.148	29467
812.29	29452
812.431	29608
812.573	29699
812.714	29836
812.855	29923
812.997	30106
813.138	30057
813.279	30003
813.421	29946
813.562	30045
813.703	29604
813.845	29729
813.986	29524
814.127	29155
814.268	29132
814.41	29246
814.551	29029
814.692	29330
814.833	29102
814.974	29010
815.115	29162
815.256	28999
815.397	29094
815.539	28862
815.68	28888
815.821	28896
815.962	28934
816.103	28908
816.244	28835
816.385	28854
816.526	28672
816.666	28664
816.807	28455
816.948	28569
817.089	28561
817.23	28531
817.371	28421
817.512	28508
817.653	28390
817.793	28455
817.934	28493
818.075	28489
818.216	28542
818.356	28474
818.497	28424
818.638	28162
818.778	28181
818.919	28192
819.06	28306
819.2	28440
819.341	28337
819.481	28424
819.622	28618
819.762	28771
819.903	28919
820.043	28786
820.184	28725
820.324	28717
820.465	28687
820.605	28618
820.746	28580
820.886	28577
821.026	28489
821.167	28630
821.307	28645
821.447	28443
821.588	28306
821.728	28257
821.868	28143
822.008	28070
822.149	28044
822.289	27903
822.429	27583
822.569	27595
822.709	27519
822.849	27545
822.99	27496
823.13	27473
823.27	27374
823.41	27386
823.55	27245
823.69	27359
823.83	27268
823.97	27260
824.11	27039
824.25	27058
824.389	27070
824.529	27150
824.669	27096
824.809	27386
824.949	27150
825.089	27161
825.228	27211
825.368	26979
825.508	26960
825.648	27081
825.787	26925
825.927	27066
826.067	26948
826.206	26963
826.346	27138
826.485	27207
826.625	26906
826.765	27089
826.904	27116
827.044	26785
827.183	26746
827.323	26792
827.462	26811
827.601	26826
827.741	26617
827.88	26800
828.02	26602
828.159	26678
828.298	26796
828.437	26762
828.577	26602
828.716	26739
828.855	26636
828.994	26434
829.134	26427
829.273	26453
829.412	26450
829.551	26385
829.69	26396
829.829	26381
829.968	26434
830.107	26393
830.246	26355
830.385	26317
830.524	26278
830.663	26233
830.802	26126
830.941	26103
831.08	25993
831.219	26073
831.357	26054
831.496	26256
831.635	25966
831.774	25959
831.913	25925
832.051	25799
832.19	25696
832.329	25845
832.467	25719
832.606	25704
832.744	25624
832.883	25594
833.022	25677
833.16	25670
833.299	25807
833.437	25700
833.576	25883
833.714	25776
833.852	25791
833.991	25753
834.129	25955
834.267	25856
834.406	25704
834.544	25826
834.682	25677
834.821	25864
834.959	25978
835.097	25696
835.235	25784
835.373	25753
835.511	25830
835.65	25643
835.788	25613
835.926	25537
836.064	25324
836.202	25479
836.34	25578
836.478	25700
836.615	25407
836.753	25693
836.891	25594
837.029	25578
837.167	25590
837.305	25358
837.443	25403
837.58	25411
837.718	25468
837.856	25285
837.993	25285
838.131	25411
838.269	25240
838.406	25358
838.544	25240
838.681	25069
838.819	24996
838.956	24779
839.094	24966
839.231	25015
839.369	25008
839.506	25198
839.643	25145
839.781	24947
839.918	24829
840.055	24939
840.193	24913
840.33	24779
840.467	24741
840.604	24787
840.742	25183
840.879	24593
841.016	24772
841.153	24745
841.29	24840
841.427	24840
841.564	24722
841.701	24817
841.838	24814
841.975	24700
842.112	24753
842.249	24570
842.385	24498
842.522	24749
842.659	24627
842.796	24452
842.933	24665
843.069	24391
843.206	24395
843.343	24528
843.479	24620
843.616	24566
843.752	24342
843.889	24403
844.025	24330
844.162	24277
844.298	24403
844.435	24334
844.571	24201
844.708	24384
844.844	24361
844.98	24399
845.117	24327
845.253	24083
845.389	24239
845.525	24011
845.661	24144
845.798	24072
845.934	24064
846.07	23992
846.206	24034
846.342	24159
846.478	24003
846.614	23870
846.75	23741
846.886	23756
847.022	23767
847.158	23832
847.294	23786
847.429	23866
847.565	23775
847.701	23988
847.837	23501
847.972	23452
848.108	23638
848.244	23512
848.379	23391
848.515	23318
848.65	23395
848.786	23356
848.921	23414
849.057	23360
849.192	23452
849.328	23372
849.463	23368
849.598	23277
849.734	23239
849.869	23143
850.004	23189
850.14	23083
850.275	23231
850.41	23014
850.545	23052
850.68	22927
850.815	23254
850.95	23143
851.085	23414
851.22	23094
851.355	23155
851.49	23033
851.625	23014
851.76	23094
851.895	22991
852.03	23018
852.165	23037
852.299	22999
852.434	23227
852.569	23121
852.703	23109
852.838	23193
852.973	23147
853.107	23311
853.242	23041
853.376	22889
853.511	22805
853.645	22839
853.78	22999
853.914	22961
854.048	22968
854.183	22873
854.317	23018
854.451	23166
854.585	22919
854.72	22927
854.854	23014
854.988	22843
855.122	22869
855.256	22748
855.39	22915
855.524	22984
855.658	22999
855.792	22968
855.926	23025
856.06	22976
856.194	22991
856.327	22854
856.461	22843
856.595	22873
856.729	22866
856.862	23010
856.996	23010
857.13	22965
857.263	23151
857.397	22968
857.53	22866
857.664	22987
857.797	22942
857.931	22957
858.064	22847
858.197	23044
858.331	23029
858.464	22862
858.597	22801
858.731	22873
858.864	22896
858.997	22824
859.13	22850
859.263	22987
859.396	23014
859.529	22843
859.662	22896
859.795	22824
859.928	23071
860.061	23014
860.194	23155
860.327	22919
860.46	22957
860.592	23056
860.725	23124
860.858	23083
860.99	23033
861.123	22782
861.256	22873
861.388	22946
861.521	23573
861.653	22778
861.786	22698
861.918	22763
862.05	22797
862.183	22911
862.315	23006
862.447	22850
862.58	22831
862.712	22603
862.844	22763
862.976	22698
863.108	22607
863.24	23041
863.372	22561
863.504	22763
863.636	22592
863.768	22653
863.9	22698
864.032	22500
864.164	22649
864.296	22641
864.428	22736
864.559	22641
864.691	22721
864.823	22443
864.954	22592
865.086	22618
865.217	22573
865.349	22428
865.48	22577
865.612	22459
865.743	22630
865.875	22474
866.006	22516
866.137	22459
866.269	22538
866.4	22664
866.531	22474
866.662	22455
866.793	22474
866.924	22360
867.055	22455
867.186	22527
867.317	22306
867.448	22459
867.579	22295
867.71	22428
867.841	22303
867.972	22436
868.103	22478
868.233	22344
868.364	22413
868.495	22554
868.625	22672
868.756	22786
868.886	22752
869.017	22641
869.147	22721
869.278	22752
869.408	22668
869.539	22634
869.669	22748
869.799	22691
869.929	22733
870.06	22797
870.19	22938
870.32	22877
870.45	23098
870.58	23056
870.71	23109
870.84	23178
870.97	22972
871.1	23143
871.23	23204
871.36	23223
871.489	23132
871.619	23166
871.749	23250
871.879	23292
872.008	23391
872.138	23155
872.267	23318
872.397	23048
872.526	23075
872.656	23147
872.785	23044
872.915	23246
873.044	23337
873.173	23254
873.303	23326
873.432	23318
873.561	23387
873.69	23189
873.819	23280
873.948	23360
874.077	23330
874.206	23288
874.335	23307
874.464	23337
874.593	23668
874.722	23604
874.851	23570
874.979	23478
875.108	23722
875.237	23406
875.365	23444
875.494	23436
875.623	23596
875.751	23646
875.88	23421
876.008	23661
876.136	23585
876.265	23961
876.393	24091
876.521	23889
876.65	24003
876.778	23988
876.906	23851
877.034	23805
877.162	23767
877.29	23703
877.418	23817
877.546	23809
877.674	23805
877.802	23946
877.93	23836
878.058	23817
878.185	23821
878.313	23824
878.441	23729
878.568	23707
878.696	23737
878.824	23843
878.951	23954
879.079	23927
879.206	24034
879.333	23958
879.461	23726
879.588	23912
879.715	24030
879.842	24057
879.97	23771
880.097	23627
880.224	23676
880.351	23805
880.478	23630
880.605	23604
880.732	23589
880.859	23809
880.986	23600
881.112	23813
881.239	23558
881.366	23524
881.493	23345
881.619	23307
881.746	23174
881.872	23162
881.999	23147
882.125	23102
882.252	23181
882.378	23235
882.505	23288
882.631	23006
882.757	22930
882.883	23006
883.01	22999
883.136	22805
883.262	22725
883.388	22599
883.514	22885
883.64	23006
883.766	22820
883.892	22580
884.018	22725
884.143	22915
884.269	22911
884.395	22626
884.52	22489
884.646	22485
884.772	22363
884.897	22455
885.023	22542
885.148	22386
885.274	22744
885.399	22592
885.524	22363
885.65	22561
885.775	22577
885.9	22557
886.025	22542
886.15	22592
886.275	22542
886.4	22386
886.525	22546
886.65	22413
886.775	22512
886.9	22603
887.025	22607
887.149	22417
887.274	22272
887.399	22238
887.523	22219
887.648	22147
887.773	22120
887.897	22253
888.021	22204
888.146	22090
888.27	22299
888.395	22356
888.519	22211
888.643	22299
888.767	22287
888.891	22166
889.015	21983
889.139	22112
889.263	22093
889.387	22192
889.511	22284
889.635	22109
889.759	22128
889.883	21994
890.006	22063
890.13	22276
890.254	21998
890.377	22017
890.501	21766
890.624	21736
890.748	21846
890.871	21671
890.995	21500
891.118	21549
891.241	21568
891.364	21637
891.488	21667
891.611	21542
891.734	21534
891.857	21564
891.98	21595
892.103	21652
892.226	21496
892.349	21504
892.471	21355
892.594	21435
892.717	21648
892.839	21401
892.962	21599
893.085	21504
893.207	21587
893.33	21389
893.452	21435
893.575	21534
893.697	21454
893.819	21466
893.941	21743
894.064	21515
894.186	21336
894.308	21298
894.43	21606
894.552	21656
894.674	21542
894.796	21310
894.918	21275
895.04	21389
895.161	21534
895.283	21462
895.405	21416
895.526	21431
895.648	21397
895.769	21583
895.891	21378
896.012	21538
896.134	21378
896.255	21405
896.376	21405
896.498	21447
896.619	21469
896.74	21389
896.861	21466
896.982	21770
897.103	21915
897.224	21759
897.345	21778
897.466	21561
897.587	21644
897.708	21739
897.828	21713
897.949	21473
898.07	21439
898.19	21507
898.311	21797
898.431	21557
898.552	21644
898.672	21599
898.792	21686
898.913	21591
899.033	21549
899.153	21412
899.273	21199
899.393	21336
899.513	21359
899.633	21256
899.753	21431
899.873	21351
899.993	21363
900.113	21249
900.232	21264
900.352	21252
900.472	21123
900.591	21127
900.711	21116
900.83	21062
900.95	21192
901.069	21116
901.189	21089
901.308	20849
901.427	20720
901.546	20670
901.665	20765
901.784	20724
901.904	20526
902.023	20427
902.141	20172
902.26	20199
902.379	20290
902.498	20225
902.617	20202
902.735	20195
902.854	20092
902.973	20084
903.091	19799
903.21	19860
903.328	19742
903.446	19635
903.565	19689
903.683	19727
903.801	19457
903.919	19597
904.038	19525
904.156	19400
904.274	19457
904.392	19274
904.51	19464
904.627	19304
904.745	19358
904.863	19365
904.981	19190
905.098	18916
905.216	18954
905.334	19156
905.451	19061
905.569	19057
905.686	19187
905.803	18962
905.921	18768
906.038	18852
906.155	18749
906.272	18711
906.389	18658
906.506	18616
906.623	18639
906.74	18509
906.857	18422
906.974	18578
907.091	18631
907.208	18650
907.324	18536
907.441	18422
907.557	18433
907.674	18205
907.79	18209
907.907	18129
908.023	18311
908.139	18350
908.256	18228
908.372	18296
908.488	18098
908.604	18041
908.72	18041
908.836	18057
908.952	18060
909.068	18083
909.184	18144
909.3	17920
909.415	18091
909.531	17988
909.647	17699
909.762	17684
909.878	17646
909.993	17676
910.108	17668
910.224	17779
910.339	17764
910.454	17608
910.57	17463
910.685	17448
910.8	17798
910.915	17764
911.03	17512
911.145	17425
911.259	17387
911.374	17254
911.489	17242
911.604	17094
911.718	16972
911.833	17090
911.947	16923
912.062	16900
912.176	17041
912.291	17102
912.405	16995
912.519	17185
912.633	17067
912.748	17071
912.862	16987
912.976	16869
913.09	16820
913.204	16831
913.318	16831
913.431	16927
913.545	16831
913.659	16904
913.772	16847
913.886	16687
914	16656
914.113	16725
914.226	16733
914.34	16778
914.453	16504
914.566	16634
914.68	16489
914.793	16402
914.906	16390
915.019	16177
915.132	16310
915.245	16181
915.358	16280
915.47	16177
915.583	16234
915.696	16276
915.809	16268
915.921	16337
916.034	16158
916.146	16135
916.259	16044
916.371	16135
916.483	16120
916.595	15975
916.708	16090
916.82	16013
916.932	15991
917.044	15975
917.156	15880
917.268	15838
917.38	15915
917.491	15751
917.603	15793
917.715	15823
917.826	15922
917.938	15838
918.049	15603
918.161	15724
918.272	15873
918.384	15781
918.495	15736
918.606	15591
918.717	15660
918.828	15534
918.939	15622
919.05	15405
919.161	15618
919.272	15336
919.383	15370
919.494	15492
919.604	15739
919.715	15526
919.826	15435
919.936	15405
920.047	15515
920.157	15534
920.267	15599
920.378	15507
920.488	15462
920.598	15614
920.708	15816
920.818	15701
920.928	15686
921.038	15778
921.148	15705
921.258	15477
921.368	15412
921.477	15230
921.587	15226
921.697	15043
921.806	15291
921.916	15055
922.025	14910
922.134	14842
922.244	14849
922.353	14941
922.462	14743
922.571	14716
922.68	14412
922.789	14511
922.898	14484
923.007	14427
923.116	14454
923.224	14461
923.333	14450
923.442	14377
923.55	14237
923.659	14320
923.767	14229
923.876	14248
923.984	14366
924.092	14134
924.201	14218
924.309	14172
924.417	14290
924.525	14027
924.633	14024
924.741	15165
924.849	13841
924.956	14096
925.064	13830
925.172	13788
925.279	13769
925.387	13890
925.494	13772
925.602	13955
925.709	13822
925.816	13677
925.924	13814
926.031	13928
926.138	13803
926.245	13780
926.352	13636
926.459	13734
926.566	13822
926.673	13693
926.779	13533
926.886	13499
926.993	13460
927.099	13434
927.206	13358
927.312	13453
927.419	13388
927.525	13396
927.631	13373
927.737	13194
927.843	13240
927.95	13031
928.056	13232
928.162	13217
928.267	13217
928.373	13875
928.479	13308
928.585	13023
928.69	13038
928.796	13198
928.901	13012
929.007	12867
929.112	12920
929.218	12924
929.323	12867
929.428	12894
929.533	13031
929.638	12867
929.743	12863
929.848	12859
929.953	12844
930.058	12673
930.163	12601
930.267	12563
930.372	12620
930.477	12570
930.581	12669
930.685	12582
930.79	12372
930.894	12429
930.998	12407
931.103	12585
931.207	12197
931.311	12110
931.415	12064
931.519	11802
931.623	11832
