Data from test_V78500241_2847.txt Node
Date: Fri Mar 25 16:01:31 CST 2022
User: usil
Spectrometer: V785-0024
Trigger mode: 0
Integration Time (sec): 4.000000E-1
Scans to average: 1
Nonlinearity correction enabled: false
Boxcar width: 0
Storing dark spectrum: false
XAxis mode: Wavelengths
Number of Pixels in Spectrum: 1024
>>>>>Begin Spectral Data<<<<<
801.071	28991
801.214	29003
801.356	28812
801.499	28733
801.641	28531
801.783	28660
801.926	28607
802.068	28599
802.211	28523
802.353	28538
802.496	28436
802.638	28337
802.78	28291
802.923	28162
803.065	28139
803.208	28284
803.35	28291
803.492	28493
803.635	28550
803.777	28287
803.919	28462
804.061	28820
804.204	28596
804.346	28565
804.488	28508
804.63	28550
804.773	28500
804.915	28599
805.057	28565
805.199	28508
805.341	28596
805.483	28592
805.626	28752
805.768	28622
805.91	28649
806.052	28721
806.194	28702
806.336	28927
806.478	28668
806.62	28698
806.762	28816
806.904	29143
807.046	29155
807.188	29227
807.33	29181
807.472	29143
807.614	29064
807.756	29105
807.898	29064
808.04	28987
808.182	28934
808.324	28942
808.465	29052
808.607	29254
808.749	29414
808.891	29387
809.033	29463
809.174	29398
809.316	29341
809.458	29429
809.6	29383
809.741	29562
809.883	29634
810.025	29585
810.166	29756
810.308	29665
810.45	29596
810.591	29573
810.733	29448
810.875	29330
811.016	29368
811.158	29231
811.299	29687
811.441	29691
811.582	29570
811.724	29459
811.865	29326
812.007	29360
812.148	29455
812.29	29551
812.431	29482
812.573	29687
812.714	29897
812.855	29946
812.997	29973
813.138	30159
813.279	30060
813.421	29927
813.562	29870
813.703	29687
813.845	29676
813.986	29482
814.127	29170
814.268	29140
814.41	29197
814.551	29235
814.692	29204
814.833	29052
814.974	29136
815.115	29189
815.256	29044
815.397	28927
815.539	29029
815.68	28900
815.821	28877
815.962	28930
816.103	28812
816.244	28755
816.385	28706
816.526	28786
816.666	28462
816.807	28493
816.948	28478
817.089	28706
817.23	28443
817.371	28352
817.512	28592
817.653	28322
817.793	28230
817.934	28459
818.075	28371
818.216	28474
818.356	28466
818.497	28436
818.638	28226
818.778	28166
818.919	28211
819.06	28310
819.2	28478
819.341	28371
819.481	28535
819.622	28557
819.762	28755
819.903	28752
820.043	28622
820.184	28683
820.324	28637
820.465	28694
820.605	28668
820.746	28417
820.886	28329
821.026	28447
821.167	28462
821.307	28630
821.447	28683
821.588	28405
821.728	28223
821.868	28124
822.008	27781
822.149	27869
822.289	27827
822.429	27701
822.569	27599
822.709	27606
822.849	27523
822.99	27439
823.13	27443
823.27	27393
823.41	27294
823.55	27222
823.69	27306
823.83	27275
823.97	27329
824.11	27298
824.25	27184
824.389	26929
824.529	27195
824.669	27077
824.809	27036
824.949	27138
825.089	27279
825.228	27093
825.368	26952
825.508	26979
825.648	26944
825.787	27013
825.927	27013
826.067	27051
826.206	27017
826.346	26971
826.485	27058
826.625	26899
826.765	27081
826.904	27127
827.044	26853
827.183	26842
827.323	26697
827.462	26693
827.601	26872
827.741	26674
827.88	26716
828.02	26549
828.159	26689
828.298	26708
828.437	26823
828.577	26632
828.716	26762
828.855	26511
828.994	26358
829.134	26389
829.273	26412
829.412	26434
829.551	26225
829.69	26347
829.829	26412
829.968	26488
830.107	26313
830.246	26613
830.385	26187
830.524	26259
830.663	26157
830.802	26103
830.941	26062
831.08	25978
831.219	26126
831.357	26134
831.496	26237
831.635	26008
831.774	25845
831.913	25856
832.051	25986
832.19	25689
832.329	25727
832.467	25643
832.606	25597
832.744	25590
832.883	25681
833.022	25594
833.16	25616
833.299	25620
833.437	25674
833.576	25750
833.714	25693
833.852	25761
833.991	25845
834.129	25864
834.267	25776
834.406	25742
834.544	25868
834.682	25681
834.821	25658
834.959	25811
835.097	25708
835.235	25750
835.373	25643
835.511	25784
835.65	25677
835.788	25704
835.926	25430
836.064	25312
836.202	25415
836.34	25506
836.478	25472
836.615	25567
836.753	25613
836.891	25609
837.029	25578
837.167	25495
837.305	25495
837.443	25563
837.58	25312
837.718	25419
837.856	25282
837.993	25400
838.131	25346
838.269	25209
838.406	25335
838.544	25072
838.681	25069
838.819	24985
838.956	24753
839.094	24787
839.231	24970
839.369	25107
839.506	25179
839.643	25107
839.781	24787
839.918	24825
840.055	24947
840.193	24669
840.33	24844
840.467	24772
840.604	24783
840.742	25141
840.879	24544
841.016	24700
841.153	24726
841.29	24734
841.427	24684
841.564	24719
841.701	24760
841.838	24730
841.975	24620
842.112	24642
842.249	24578
842.385	24448
842.522	24734
842.659	24555
842.796	24452
842.933	24589
843.069	24445
843.206	24452
843.343	24559
843.479	24589
843.616	24521
843.752	24285
843.889	24254
844.025	24410
844.162	24228
844.298	24365
844.435	24410
844.571	24258
844.708	24254
844.844	24433
844.98	24365
845.117	24357
845.253	24243
845.389	24239
845.525	24167
845.661	23973
845.798	24026
845.934	24030
846.07	23980
846.206	24003
846.342	24194
846.478	24018
846.614	23847
846.75	23608
846.886	23729
847.022	23737
847.158	23855
847.294	23676
847.429	23707
847.565	23745
847.701	23878
847.837	23379
847.972	23455
848.108	23554
848.244	23589
848.379	23410
848.515	23208
848.65	23261
848.786	23410
848.921	23303
849.057	23474
849.192	23478
849.328	23326
849.463	23261
849.598	23330
849.734	23231
849.869	23200
850.004	23269
850.14	23105
850.275	23136
850.41	22987
850.545	23010
850.68	23155
850.815	23102
850.95	23208
851.085	23345
851.22	23189
851.355	23052
851.49	23094
851.625	23044
851.76	23060
851.895	23037
852.03	23132
852.165	23071
852.299	23052
852.434	23208
852.569	23273
852.703	22991
852.838	23025
852.973	23208
853.107	23242
853.242	22896
853.376	22927
853.511	22904
853.645	22858
853.78	22942
853.914	22831
854.048	22881
854.183	22927
854.317	22889
854.451	23086
854.585	22790
854.72	22904
854.854	22843
854.988	22809
855.122	22839
855.256	22801
855.39	22919
855.524	22869
855.658	22972
855.792	22824
855.926	22862
856.06	22995
856.194	23010
856.327	22984
856.461	22953
856.595	22752
856.729	22881
856.862	22911
856.996	22934
857.13	23003
857.263	22980
857.397	23029
857.53	22911
857.664	22885
857.797	23121
857.931	22942
858.064	23033
858.197	23117
858.331	22980
858.464	22904
858.597	22892
858.731	22869
858.864	22957
858.997	22828
859.13	22919
859.263	22976
859.396	22987
859.529	22839
859.662	22786
859.795	22866
859.928	22839
860.061	23109
860.194	23121
860.327	23071
860.46	22774
860.592	22953
860.725	23075
860.858	22995
860.99	22835
861.123	22771
861.256	22706
861.388	22771
861.521	23577
861.653	22793
861.786	22839
861.918	22645
862.05	22725
862.183	22900
862.315	22881
862.447	22965
862.58	22702
862.712	22512
862.844	22569
862.976	22649
863.108	22759
863.24	23048
863.372	22447
863.504	22519
863.636	22577
863.768	22565
863.9	22554
864.032	22687
864.164	22535
864.296	22660
864.428	22599
864.559	22675
864.691	22630
864.823	22664
864.954	22607
865.086	22531
865.217	22535
865.349	22455
865.48	22447
865.612	22508
865.743	22592
865.875	22577
866.006	22462
866.137	22386
866.269	22527
866.4	22341
866.531	22333
866.662	22409
866.793	22466
866.924	22508
867.055	22493
867.186	22478
867.317	22371
867.448	22322
867.579	22455
867.71	22207
867.841	22318
867.972	22394
868.103	22329
868.233	22436
868.364	22428
868.495	22516
868.625	22615
868.756	22691
868.886	22493
869.017	22607
869.147	22717
869.278	22698
869.408	22778
869.539	22500
869.669	22736
869.799	22561
869.929	22771
870.06	22816
870.19	22953
870.32	22892
870.45	23056
870.58	23102
870.71	23121
870.84	23025
870.97	23037
871.1	23022
871.23	23242
871.36	23178
871.489	23185
871.619	23269
871.749	23227
871.879	23292
872.008	23345
872.138	23261
872.267	23303
872.397	23033
872.526	23094
872.656	23083
872.785	23037
872.915	23220
873.044	23261
873.173	23239
873.303	23353
873.432	23440
873.561	23440
873.69	23216
873.819	23307
873.948	23337
874.077	23353
874.206	23159
874.335	23360
874.464	23273
874.593	23482
874.722	23497
874.851	23531
874.979	23558
875.108	23547
875.237	23440
875.365	23288
875.494	23368
875.623	23577
875.751	23414
875.88	23467
876.008	23596
876.136	23646
876.265	23817
876.393	23946
876.521	23927
876.65	23653
876.778	23942
876.906	23813
877.034	23714
877.162	23893
877.29	23752
877.418	23752
877.546	23786
877.674	23775
877.802	23843
877.93	23764
878.058	23923
878.185	23672
878.313	23764
878.441	23611
878.568	23691
878.696	23703
878.824	23874
878.951	23882
879.079	23939
879.206	24091
879.333	23961
879.461	23813
879.588	23927
879.715	23790
879.842	24098
879.97	23775
880.097	23623
880.224	23691
880.351	23634
880.478	23668
880.605	23661
880.732	23638
880.859	23813
880.986	23714
881.112	23722
881.239	23448
881.366	23330
881.493	23284
881.619	23220
881.746	23208
881.872	23227
881.999	23235
882.125	23258
882.252	23166
882.378	23136
882.505	23242
882.631	23006
882.757	22866
882.883	22873
883.01	22847
883.136	22809
883.262	22694
883.388	22649
883.514	22862
883.64	22930
883.766	22710
883.892	22554
884.018	22698
884.143	22786
884.269	22824
884.395	22573
884.52	22409
884.646	22550
884.772	22421
884.897	22280
885.023	22596
885.148	22447
885.274	22500
885.399	22478
885.524	22538
885.65	22565
885.775	22527
885.9	22485
886.025	22561
886.15	22656
886.275	22421
886.4	22322
886.525	22459
886.65	22500
886.775	22291
886.9	22561
887.025	22824
887.149	22417
887.274	22371
887.399	22234
887.523	22169
887.648	22379
887.773	22090
887.897	22287
888.021	22158
888.146	22147
888.27	22356
888.395	22295
888.519	22329
888.643	22185
888.767	22318
888.891	22196
889.015	22082
889.139	22078
889.263	21979
889.387	22120
889.511	22261
889.635	22181
889.759	21991
889.883	21915
890.006	22059
890.13	21979
890.254	21918
890.377	22006
890.501	21854
890.624	21846
890.748	21903
890.871	21595
890.995	21637
891.118	21519
891.241	21481
891.364	21648
891.488	21625
891.611	21515
891.734	21534
891.857	21656
891.98	21534
892.103	21542
892.226	21557
892.349	21523
892.471	21329
892.594	21428
892.717	21564
892.839	21428
892.962	21416
893.085	21564
893.207	21523
893.33	21188
893.452	21382
893.575	21545
893.697	21424
893.819	21618
893.941	21622
894.064	21625
894.186	21492
894.308	21382
894.43	21469
894.552	21481
894.674	21488
894.796	21382
894.918	21412
895.04	21420
895.161	21416
895.283	21523
895.405	21458
895.526	21443
895.648	21378
895.769	21367
895.891	21523
896.012	21507
896.134	21439
896.255	21435
896.376	21424
896.498	21393
896.619	21382
896.74	21408
896.861	21424
896.982	21789
897.103	21838
897.224	21816
897.345	21572
897.466	21671
897.587	21603
897.708	21736
897.828	21713
897.949	21561
898.07	21332
898.19	21564
898.311	21679
898.431	21606
898.552	21576
898.672	21701
898.792	21705
898.913	21568
899.033	21538
899.153	21542
899.273	21268
899.393	21313
899.513	21340
899.633	21439
899.753	21428
899.873	21226
899.993	21241
900.113	21233
900.232	21264
900.352	21252
900.472	21298
900.591	20948
900.711	21123
900.83	21055
900.95	21123
901.069	21173
901.189	20941
901.308	20724
901.427	20640
901.546	20579
901.665	20583
901.784	20682
901.904	20507
902.023	20488
902.141	20317
902.26	20180
902.379	20199
902.498	20103
902.617	20119
902.735	20199
902.854	20145
902.973	20039
903.091	19860
903.21	19765
903.328	19856
903.446	19746
903.565	19624
903.683	19594
903.801	19521
903.919	19552
904.038	19460
904.156	19373
904.274	19586
904.392	19301
904.51	19350
904.627	19369
904.745	19525
904.863	19502
904.981	19160
905.098	18989
905.216	19046
905.334	19038
905.451	18932
905.569	19015
905.686	19076
905.803	19027
905.921	18863
906.038	18996
906.155	18962
906.272	18802
906.389	18798
906.506	18612
906.623	18593
906.74	18532
906.857	18380
906.974	18323
907.091	18681
907.208	18597
907.324	18547
907.441	18483
907.557	18216
907.674	18258
907.79	18057
907.907	18304
908.023	18251
908.139	18152
908.256	18072
908.372	18167
908.488	18140
908.604	17992
908.72	17882
908.836	17969
908.952	17996
909.068	17999
909.184	17935
909.3	17988
909.415	17912
909.531	17874
909.647	17729
909.762	17611
909.878	17577
909.993	17646
910.108	17604
910.224	17600
910.339	17661
910.454	17490
910.57	17383
910.685	17299
910.8	17699
910.915	17608
911.03	17490
911.145	17265
911.259	17212
911.374	17117
911.489	17181
911.604	17025
911.718	16942
911.833	16942
911.947	16930
912.062	16824
912.176	16915
912.291	17064
912.405	17006
912.519	17132
912.633	17140
912.748	16980
912.862	16942
912.976	16774
913.09	16660
913.204	16763
913.318	16801
913.431	16908
913.545	16816
913.659	16896
913.772	16809
913.886	16615
914	16611
914.113	16649
914.226	16615
914.34	16558
914.453	16481
914.566	16626
914.68	16489
914.793	16421
914.906	16131
915.019	16078
915.132	16063
915.245	16131
915.358	16162
915.47	16143
915.583	16097
915.696	16200
915.809	16139
915.921	16211
916.034	16105
916.146	16048
916.259	16044
916.371	16219
916.483	16051
916.595	16040
916.708	15975
916.82	15892
916.932	15880
917.044	15987
917.156	15899
917.268	15774
917.38	15804
917.491	15808
917.603	15785
917.715	15903
917.826	15922
917.938	15701
918.049	15557
918.161	15690
918.272	15850
918.384	15800
918.495	15724
918.606	15618
918.717	15504
918.828	15538
918.939	15587
919.05	15458
919.161	15405
919.272	15203
919.383	15325
919.494	15507
919.604	15637
919.715	15428
919.826	15336
919.936	15382
920.047	15587
920.157	15561
920.267	15675
920.378	15405
920.488	15317
920.598	15679
920.708	15709
920.818	15641
920.928	15599
921.038	15736
921.148	15724
921.258	15321
921.368	15321
921.477	15256
921.587	15173
921.697	14994
921.806	15192
921.916	15032
922.025	14914
922.134	14815
922.244	14781
922.353	14815
922.462	14651
922.571	14667
922.68	14389
922.789	14560
922.898	14366
923.007	14355
923.116	14385
923.224	14438
923.333	14385
923.442	14351
923.55	14278
923.659	14233
923.767	14263
923.876	14138
923.984	14294
924.092	14168
924.201	14180
924.309	14164
924.417	14225
924.525	14081
924.633	14130
924.741	14994
924.849	14035
924.956	14020
925.064	13826
925.172	13738
925.279	13753
925.387	13746
925.494	13788
925.602	13830
925.709	13765
925.816	13723
925.924	13708
926.031	13860
926.138	13715
926.245	13807
926.352	13613
926.459	13723
926.566	13791
926.673	13658
926.779	13540
926.886	13556
926.993	13285
927.099	13335
927.206	13308
927.312	13232
927.419	13480
927.525	13324
927.631	13335
927.737	13179
927.843	13133
927.95	13118
928.056	13149
928.162	13099
928.267	13164
928.373	13742
928.479	13304
928.585	12981
928.69	13179
928.796	13118
928.901	12939
929.007	12920
929.112	12996
929.218	13004
929.323	12810
929.428	12863
929.533	13008
929.638	12764
929.743	12753
929.848	12795
929.953	12856
930.058	12787
930.163	12521
930.267	12517
930.372	12760
930.477	12452
930.581	12654
930.685	12479
930.79	12414
930.894	12395
930.998	12346
931.103	12502
931.207	12144
931.311	11950
931.415	11965
931.519	11760
931.623	11703
