Data from test_V78500241_738.txt Node
Date: Fri Mar 25 15:46:54 CST 2022
User: usil
Spectrometer: V785-0024
Trigger mode: 0
Integration Time (sec): 4.000000E-1
Scans to average: 1
Nonlinearity correction enabled: false
Boxcar width: 0
Storing dark spectrum: false
XAxis mode: Wavelengths
Number of Pixels in Spectrum: 1024
>>>>>Begin Spectral Data<<<<<
801.071	27903
801.214	27793
801.356	27599
801.499	27549
801.641	27420
801.783	27439
801.926	27496
802.068	27344
802.211	27329
802.353	27302
802.496	27131
802.638	27081
802.78	27157
802.923	27066
803.065	27058
803.208	27043
803.35	27275
803.492	27287
803.635	27287
803.777	27207
803.919	27382
804.061	27644
804.204	27401
804.346	27184
804.488	27237
804.63	27188
804.773	27298
804.915	27302
805.057	27519
805.199	27435
805.341	27298
805.483	27393
805.626	27481
805.768	27351
805.91	27397
806.052	27485
806.194	27351
806.336	27797
806.478	27610
806.62	27408
806.762	27713
806.904	27785
807.046	27991
807.188	27949
807.33	27884
807.472	27930
807.614	27945
807.756	27793
807.898	27842
808.04	27644
808.182	27720
808.324	27682
808.465	27766
808.607	28006
808.749	28086
808.891	28070
809.033	28291
809.174	28257
809.316	28181
809.458	28078
809.6	28070
809.741	28261
809.883	28314
810.025	28462
810.166	28409
810.308	28523
810.45	28398
810.591	28295
810.733	28067
810.875	28131
811.016	28002
811.158	28109
811.299	28337
811.441	28367
811.582	28333
811.724	28207
811.865	28177
812.007	27953
812.148	28063
812.29	28261
812.431	28379
812.573	28462
812.714	28531
812.855	28542
812.997	28660
813.138	28873
813.279	28744
813.421	28759
813.562	28557
813.703	28489
813.845	28386
813.986	28116
814.127	27865
814.268	27785
814.41	27899
814.551	27739
814.692	27914
814.833	27747
814.974	27705
815.115	28029
815.256	27648
815.397	27656
815.539	27751
815.68	27682
815.821	27587
815.962	27587
816.103	27679
816.244	27500
816.385	27405
816.526	27412
816.666	27245
816.807	27062
816.948	27195
817.089	27192
817.23	27214
817.371	27096
817.512	27051
817.653	27074
817.793	27081
817.934	27077
818.075	27180
818.216	27241
818.356	26918
818.497	27032
818.638	26823
818.778	26899
818.919	26887
819.06	27024
819.2	26967
819.341	27249
819.481	27127
819.622	27203
819.762	27397
819.903	27192
820.043	27245
820.184	27214
820.324	27211
820.465	27325
820.605	27165
820.746	27241
820.886	27036
821.026	27241
821.167	27058
821.307	27055
821.447	27207
821.588	26895
821.728	27009
821.868	26678
822.008	26750
822.149	26522
822.289	26609
822.429	26400
822.569	26142
822.709	26320
822.849	26248
822.99	26138
823.13	26145
823.27	26062
823.41	25795
823.55	25849
823.69	25906
823.83	25860
823.97	25917
824.11	25655
824.25	25685
824.389	25738
824.529	25875
824.669	25738
824.809	25795
824.949	25845
825.089	25772
825.228	25833
825.368	25590
825.508	25601
825.648	25582
825.787	25677
825.927	25693
826.067	25495
826.206	25559
826.346	25715
826.485	25540
826.625	25586
826.765	25708
826.904	25704
827.044	25384
827.183	25202
827.323	25358
827.462	25381
827.601	25183
827.741	25358
827.88	25426
828.02	25225
828.159	25221
828.298	25415
828.437	25381
828.577	25320
828.716	25434
828.855	25247
828.994	24962
829.134	25156
829.273	24958
829.412	25072
829.551	25023
829.69	25050
829.829	24977
829.968	25148
830.107	25107
830.246	25019
830.385	24951
830.524	24920
830.663	24882
830.802	24738
830.941	24661
831.08	24582
831.219	24681
831.357	24566
831.496	24696
831.635	24555
831.774	24570
831.913	24517
832.051	24525
832.19	24437
832.329	24376
832.467	24311
832.606	24228
832.744	24243
832.883	24228
833.022	24247
833.16	24289
833.299	24369
833.437	24441
833.576	24338
833.714	24327
833.852	24319
833.991	24448
834.129	24388
834.267	24380
834.406	24376
834.544	24338
834.682	24319
834.821	24174
834.959	24338
835.097	24194
835.235	24289
835.373	24323
835.511	24338
835.65	24277
835.788	24201
835.926	24079
836.064	24068
836.202	24045
836.34	24167
836.478	24350
836.615	24140
836.753	24148
836.891	24273
837.029	24060
837.167	24095
837.305	24018
837.443	24072
837.58	23950
837.718	24064
837.856	23992
837.993	23927
838.131	23920
838.269	23870
838.406	23969
838.544	23870
838.681	23722
838.819	23668
838.956	23501
839.094	23493
839.231	23539
839.369	23665
839.506	23923
839.643	23760
839.781	23490
839.918	23379
840.055	23360
840.193	23402
840.33	23581
840.467	23391
840.604	23459
840.742	23649
840.879	23200
841.016	23334
841.153	23349
841.29	23493
841.427	23471
841.564	23452
841.701	23444
841.838	23440
841.975	23227
842.112	23280
842.249	23261
842.385	23140
842.522	23376
842.659	23299
842.796	23060
842.933	23155
843.069	23041
843.206	23140
843.343	23102
843.479	23147
843.616	23113
843.752	22843
843.889	22968
844.025	22965
844.162	22854
844.298	22953
844.435	22873
844.571	22923
844.708	22999
844.844	23102
844.98	23086
845.117	23056
845.253	22793
845.389	22881
845.525	22801
845.661	22778
845.798	22660
845.934	22839
846.07	22618
846.206	22744
846.342	22599
846.478	22538
846.614	22440
846.75	22360
846.886	22375
847.022	22527
847.158	22470
847.294	22497
847.429	22409
847.565	22329
847.701	22516
847.837	22131
847.972	22112
848.108	22192
848.244	22246
848.379	21884
848.515	22002
848.65	21968
848.786	21983
848.921	21987
849.057	22051
849.192	22017
849.328	22002
849.463	21926
849.598	21949
849.734	21694
849.869	21747
850.004	21789
850.14	21797
850.275	21808
850.41	21595
850.545	21644
850.68	21755
850.815	21819
850.95	21728
851.085	21884
851.22	21888
851.355	21736
851.49	21606
851.625	21739
851.76	21629
851.895	21743
852.03	21625
852.165	21789
852.299	21774
852.434	21880
852.569	21812
852.703	21701
852.838	21739
852.973	21846
853.107	21812
853.242	21717
853.376	21542
853.511	21568
853.645	21576
853.78	21629
853.914	21603
854.048	21553
854.183	21572
854.317	21519
854.451	21743
854.585	21542
854.72	21450
854.854	21705
854.988	21458
855.122	21599
855.256	21519
855.39	21500
855.524	21538
855.658	21595
855.792	21591
855.926	21587
856.06	21568
856.194	21622
856.327	21549
856.461	21412
856.595	21492
856.729	21515
856.862	21591
856.996	21599
857.13	21603
857.263	21789
857.397	21591
857.53	21682
857.664	21660
857.797	21663
857.931	21713
858.064	21629
858.197	21557
858.331	21549
858.464	21587
858.597	21466
858.731	21507
858.864	21568
858.997	21507
859.13	21679
859.263	21614
859.396	21583
859.529	21660
859.662	21458
859.795	21545
859.928	21511
860.061	21739
860.194	21739
860.327	21614
860.46	21682
860.592	21564
860.725	21648
860.858	21675
860.99	21557
861.123	21466
861.256	21454
861.388	21363
861.521	22333
861.653	21397
861.786	21469
861.918	21363
862.05	21344
862.183	21420
862.315	21431
862.447	21526
862.58	21504
862.712	21401
862.844	21260
862.976	21279
863.108	21268
863.24	21838
863.372	21150
863.504	21222
863.636	21260
863.768	21344
863.9	21329
864.032	21218
864.164	21272
864.296	21294
864.428	21439
864.559	21496
864.691	21294
864.823	21291
864.954	21226
865.086	21184
865.217	21237
865.349	21017
865.48	21233
865.612	21062
865.743	21351
865.875	21188
866.006	21165
866.137	21150
866.269	21104
866.4	21161
866.531	21036
866.662	21043
866.793	21108
866.924	21074
867.055	21074
867.186	21047
867.317	21039
867.448	21032
867.579	21112
867.71	20895
867.841	20990
867.972	21036
868.103	20967
868.233	21112
868.364	21104
868.495	21108
868.625	21291
868.756	21283
868.886	21355
869.017	21252
869.147	21492
869.278	21454
869.408	21500
869.539	21283
869.669	21473
869.799	21393
869.929	21473
870.06	21454
870.19	21644
870.32	21652
870.45	21728
870.58	21804
870.71	21823
870.84	21876
870.97	21743
871.1	21739
871.23	21861
871.36	21892
871.489	21854
871.619	21888
871.749	21838
871.879	21884
872.008	22082
872.138	21949
872.267	21884
872.397	21762
872.526	21686
872.656	21603
872.785	21755
872.915	21930
873.044	21998
873.173	21937
873.303	21964
873.432	21953
873.561	22139
873.69	21899
873.819	22086
873.948	21998
874.077	22078
874.206	21983
874.335	21926
874.464	22055
874.593	22097
874.722	22101
874.851	22131
874.979	22249
875.108	22234
875.237	22086
875.365	21994
875.494	22055
875.623	22299
875.751	22097
875.88	22086
876.008	22367
876.136	22436
876.265	22516
876.393	22645
876.521	22557
876.65	22649
876.778	22637
876.906	22455
877.034	22417
877.162	22481
877.29	22432
877.418	22421
877.546	22577
877.674	22436
877.802	22489
877.93	22440
878.058	22485
878.185	22333
878.313	22531
878.441	22618
878.568	22295
878.696	22295
878.824	22459
878.951	22481
879.079	22618
879.206	22904
879.333	22683
879.461	22592
879.588	22630
879.715	22645
879.842	22824
879.97	22611
880.097	22352
880.224	22303
880.351	22360
880.478	22382
880.605	22181
880.732	22432
880.859	22557
880.986	22310
881.112	22329
881.239	22128
881.366	22055
881.493	22128
881.619	21876
881.746	21991
881.872	21789
881.999	21865
882.125	21808
882.252	21994
882.378	21880
882.505	22029
882.631	21713
882.757	21622
882.883	21679
883.01	21595
883.136	21561
883.262	21504
883.388	21564
883.514	21618
883.64	21633
883.766	21549
883.892	21302
884.018	21329
884.143	21481
884.269	21534
884.395	21351
884.52	21214
884.646	21218
884.772	21165
884.897	21207
885.023	21222
885.148	21325
885.274	21374
885.399	21428
885.524	21252
885.65	21180
885.775	21241
885.9	21207
886.025	21340
886.15	21291
886.275	21176
886.4	21062
886.525	21252
886.65	21131
886.775	21157
886.9	21294
887.025	21412
887.149	21188
887.274	21096
887.399	20883
887.523	20990
887.648	21028
887.773	20834
887.897	21131
888.021	21135
888.146	20895
888.27	21135
888.395	21051
888.519	21089
888.643	21142
888.767	20963
888.891	21036
889.015	20838
889.139	20853
889.263	20804
889.387	20823
889.511	21028
889.635	20952
889.759	20857
889.883	20872
890.006	20815
890.13	21020
890.254	20731
890.377	20788
890.501	20499
890.624	20476
890.748	20651
890.871	20514
890.995	20298
891.118	20263
891.241	20434
891.364	20377
891.488	20434
891.611	20385
891.734	20393
891.857	20400
891.98	20336
892.103	20400
892.226	20374
892.349	20290
892.471	20195
892.594	20400
892.717	20381
892.839	20259
892.962	20298
893.085	20320
893.207	20237
893.33	20122
893.452	20225
893.575	20377
893.697	20206
893.819	20484
893.941	20415
894.064	20358
894.186	20286
894.308	20195
894.43	20374
894.552	20282
894.674	20320
894.796	20157
894.918	20267
895.04	20168
895.161	20282
895.283	20320
895.405	20149
895.526	20275
895.648	20221
895.769	20290
895.891	20259
896.012	20263
896.134	20267
896.255	20317
896.376	20183
896.498	20240
896.619	20275
896.74	20336
896.861	20320
896.982	20636
897.103	20625
897.224	20583
897.345	20522
897.466	20400
897.587	20377
897.708	20693
897.828	20598
897.949	20389
898.07	20317
898.19	20396
898.311	20492
898.431	20419
898.552	20461
898.672	20526
898.792	20484
898.913	20488
899.033	20484
899.153	20221
899.273	20115
899.393	20233
899.513	20278
899.633	20180
899.753	20218
899.873	20153
899.993	20218
900.113	20172
900.232	20157
900.352	20229
900.472	20027
900.591	20005
900.711	20073
900.83	19967
900.95	20130
901.069	20077
901.189	19917
901.308	19632
901.427	19628
901.546	19548
901.665	19635
901.784	19548
901.904	19449
902.023	19377
902.141	19293
902.26	19061
902.379	19175
902.498	19202
902.617	19038
902.735	19168
902.854	19042
902.973	19061
903.091	18852
903.21	18738
903.328	18783
903.446	18658
903.565	18627
903.683	18547
903.801	18540
903.919	18589
904.038	18414
904.156	18384
904.274	18380
904.392	18277
904.51	18220
904.627	18289
904.745	18304
904.863	18384
904.981	18083
905.098	18003
905.216	17980
905.334	18049
905.451	17954
905.569	17954
905.686	18049
905.803	18011
905.921	17840
906.038	17889
906.155	17897
906.272	17695
906.389	17722
906.506	17661
906.623	17467
906.74	17471
906.857	17452
906.974	17360
907.091	17562
907.208	17661
907.324	17581
907.441	17444
907.557	17303
907.674	17216
907.79	17250
907.907	17105
908.023	17307
908.139	17189
908.256	17303
908.372	17181
908.488	17124
908.604	17006
908.72	16965
908.836	16961
908.952	16972
909.068	17102
909.184	17003
909.3	16942
909.415	17003
909.531	16839
909.647	16736
909.762	16729
909.878	16618
909.993	16710
910.108	16637
910.224	16573
910.339	16713
910.454	16516
910.57	16497
910.685	16428
910.8	16656
910.915	16691
911.03	16447
911.145	16287
911.259	16356
911.374	16211
911.489	16223
911.604	16097
911.718	15960
911.833	15945
911.947	15998
912.062	15956
912.176	16044
912.291	16059
912.405	15979
912.519	16196
912.633	16200
912.748	16025
912.862	15918
912.976	15808
913.09	15717
913.204	15835
913.318	15759
913.431	15937
913.545	15876
913.659	15907
913.772	15698
913.886	15637
914	15580
914.113	15637
914.226	15724
914.34	15652
914.453	15542
914.566	15671
914.68	15485
914.793	15447
914.906	15374
915.019	15268
915.132	15085
915.245	15138
915.358	15226
915.47	15233
915.583	15226
915.696	15226
915.809	15287
915.921	15378
916.034	15233
916.146	15218
916.259	15135
916.371	15165
916.483	15146
916.595	15093
916.708	14994
916.82	15036
916.932	14967
917.044	14925
917.156	14956
917.268	14952
917.38	14944
917.491	14861
917.603	14944
917.715	15039
917.826	14975
917.938	14750
918.049	14674
918.161	14880
918.272	14891
918.384	14937
918.495	14750
918.606	14583
918.717	14438
918.828	14655
918.939	14731
919.05	14564
919.161	14575
919.272	14454
919.383	14545
919.494	14705
919.604	14826
919.715	14541
919.826	14484
919.936	14625
920.047	14610
920.157	14689
920.267	14746
920.378	14537
920.488	14583
920.598	14731
920.708	14819
920.818	14754
920.928	14720
921.038	14914
921.148	14872
921.258	14518
921.368	14351
921.477	14317
921.587	14362
921.697	14206
921.806	14282
921.916	14183
922.025	14020
922.134	13951
922.244	14065
922.353	13955
922.462	13959
922.571	13761
922.68	13651
922.789	13636
922.898	13708
923.007	13632
923.116	13632
923.224	13552
923.333	13674
923.442	13472
923.55	13468
923.659	13506
923.767	13556
923.876	13335
923.984	13521
924.092	13369
924.201	13403
924.309	13373
924.417	13369
924.525	13255
924.633	13240
924.741	14180
924.849	13012
924.956	13152
925.064	13084
925.172	13072
925.279	12977
925.387	13160
925.494	13019
925.602	13168
925.709	13103
925.816	12951
925.924	12962
926.031	13069
926.138	13046
926.245	13038
926.352	12848
926.459	13000
926.566	13061
926.673	12962
926.779	12787
926.886	12840
926.993	12601
927.099	12620
927.206	12475
927.312	12646
927.419	12692
927.525	12646
927.631	12578
927.737	12467
927.843	12479
927.95	12308
928.056	12388
928.162	12330
928.267	12544
928.373	13175
928.479	12490
928.585	12239
928.69	12384
928.796	12475
928.901	12228
929.007	12140
929.112	12350
929.218	12186
929.323	12224
929.428	12209
929.533	12251
929.638	12003
929.743	12087
929.848	12121
929.953	12148
930.058	11988
930.163	11843
930.267	11859
930.372	11969
930.477	11802
930.581	12026
930.685	11908
930.79	11710
930.894	11695
930.998	11710
931.103	11836
931.207	11501
931.311	11467
931.415	11356
931.519	11124
931.623	11048
