Data from test_V78500241_1171.txt Node
Date: Fri Mar 25 15:49:54 CST 2022
User: usil
Spectrometer: V785-0024
Trigger mode: 0
Integration Time (sec): 4.000000E-1
Scans to average: 1
Nonlinearity correction enabled: false
Boxcar width: 0
Storing dark spectrum: false
XAxis mode: Wavelengths
Number of Pixels in Spectrum: 1024
>>>>>Begin Spectral Data<<<<<
801.071	28295
801.214	28169
801.356	28017
801.499	27892
801.641	27819
801.783	27899
801.926	27979
802.068	28013
802.211	27789
802.353	27705
802.496	27576
802.638	27701
802.78	27481
802.923	27443
803.065	27450
803.208	27561
803.35	27557
803.492	27671
803.635	27663
803.777	27660
803.919	27781
804.061	28143
804.204	27831
804.346	27778
804.488	27682
804.63	27743
804.773	27561
804.915	27694
805.057	27857
805.199	27648
805.341	27728
805.483	27937
805.626	27892
805.768	27854
805.91	27945
806.052	27975
806.194	27899
806.336	28166
806.478	28074
806.62	27861
806.762	28147
806.904	28112
807.046	28573
807.188	28333
807.33	28333
807.472	28421
807.614	28257
807.756	28261
807.898	28322
808.04	28188
808.182	28166
808.324	28310
808.465	28322
808.607	28451
808.749	28778
808.891	28736
809.033	28740
809.174	28649
809.316	28542
809.458	28702
809.6	28603
809.741	28771
809.883	28622
810.025	28972
810.166	28908
810.308	28927
810.45	28930
810.591	28744
810.733	28702
810.875	28542
811.016	28478
811.158	28565
811.299	28721
811.441	28854
811.582	28790
811.724	28755
811.865	28546
812.007	28531
812.148	28634
812.29	28752
812.431	28824
812.573	29037
812.714	29010
812.855	29250
812.997	29220
813.138	29375
813.279	29250
813.421	29079
813.562	29136
813.703	28828
813.845	28980
813.986	28615
814.127	28474
814.268	28371
814.41	28207
814.551	28390
814.692	28363
814.833	28344
814.974	28143
815.115	28401
815.256	28303
815.397	28185
815.539	28329
815.68	28120
815.821	27884
815.962	28120
816.103	28166
816.244	28032
816.385	27991
816.526	27888
816.666	27869
816.807	27401
816.948	27739
817.089	27732
817.23	27709
817.371	27778
817.512	27557
817.653	27500
817.793	27507
817.934	27534
818.075	27667
818.216	27637
818.356	27568
818.497	27572
818.638	27477
818.778	27344
818.919	27488
819.06	27492
819.2	27488
819.341	27728
819.481	27591
819.622	27911
819.762	27960
819.903	27903
820.043	27819
820.184	27648
820.324	27660
820.465	27827
820.605	27690
820.746	27831
820.886	27663
821.026	27690
821.167	27564
821.307	27850
821.447	27671
821.588	27530
821.728	27370
821.868	27222
822.008	27043
822.149	27142
822.289	27089
822.429	26826
822.569	26735
822.709	26777
822.849	26571
822.99	26724
823.13	26530
823.27	26663
823.41	26651
823.55	26351
823.69	26495
823.83	26537
823.97	26492
824.11	26282
824.25	26225
824.389	26202
824.529	26396
824.669	26172
824.809	26347
824.949	26347
825.089	26317
825.228	26267
825.368	26073
825.508	26210
825.648	26202
825.787	26202
825.927	26195
826.067	26149
826.206	26039
826.346	26164
826.485	26229
826.625	26043
826.765	26309
826.904	26164
827.044	25887
827.183	26039
827.323	25860
827.462	25879
827.601	25860
827.741	25780
827.88	25982
828.02	25742
828.159	25928
828.298	25947
828.437	25890
828.577	25655
828.716	25963
828.855	25727
828.994	25514
829.134	25620
829.273	25453
829.412	25605
829.551	25499
829.69	25559
829.829	25533
829.968	25590
830.107	25525
830.246	25533
830.385	25430
830.524	25476
830.663	25266
830.802	25255
830.941	25221
831.08	25187
831.219	25148
831.357	25240
831.496	25339
831.635	25080
831.774	24992
831.913	25088
832.051	24867
832.19	24939
832.329	24989
832.467	24856
832.606	24863
832.744	24802
832.883	24817
833.022	24802
833.16	24661
833.299	24817
833.437	24837
833.576	25031
833.714	24966
833.852	24985
833.991	24981
834.129	24981
834.267	24985
834.406	24901
834.544	24932
834.682	24890
834.821	24905
834.959	25015
835.097	24840
835.235	24795
835.373	24973
835.511	24852
835.65	24798
835.788	24745
835.926	24574
836.064	24471
836.202	24604
836.34	24719
836.478	24837
836.615	24741
836.753	24578
836.891	24749
837.029	24730
837.167	24642
837.305	24707
837.443	24559
837.58	24460
837.718	24639
837.856	24563
837.993	24509
838.131	24578
838.269	24460
838.406	24479
838.544	24365
838.681	24197
838.819	24213
838.956	23786
839.094	23965
839.231	23996
839.369	24125
839.506	24464
839.643	24247
839.781	24038
839.918	24007
840.055	23996
840.193	23992
840.33	23961
840.467	23984
840.604	23965
840.742	24319
840.879	23703
841.016	23790
841.153	23790
841.29	24095
841.427	23855
841.564	24022
841.701	23958
841.838	23999
841.975	23866
842.112	23863
842.249	23615
842.385	23592
842.522	23935
842.659	23843
842.796	23596
842.933	23703
843.069	23630
843.206	23676
843.343	23741
843.479	23619
843.616	23741
843.752	23452
843.889	23531
844.025	23592
844.162	23387
844.298	23531
844.435	23497
844.571	23433
844.708	23425
844.844	23634
844.98	23623
845.117	23551
845.253	23376
845.389	23296
845.525	23391
845.661	23235
845.798	23250
845.934	23296
846.07	23235
846.206	23178
846.342	23258
846.478	23155
846.614	22968
846.75	22881
846.886	22885
847.022	22961
847.158	22938
847.294	22885
847.429	22930
847.565	22919
847.701	23170
847.837	22725
847.972	22561
848.108	22790
848.244	22668
848.379	22580
848.515	22497
848.65	22466
848.786	22478
848.921	22493
849.057	22626
849.192	22504
849.328	22565
849.463	22451
849.598	22390
849.734	22508
849.869	22318
850.004	22230
850.14	22284
850.275	22287
850.41	22287
850.545	22147
850.68	22207
850.815	22223
850.95	22249
851.085	22459
851.22	22322
851.355	22181
851.49	22291
851.625	22150
851.76	22207
851.895	22124
852.03	22090
852.165	22291
852.299	22291
852.434	22322
852.569	22344
852.703	22177
852.838	22367
852.973	22348
853.107	22333
853.242	22204
853.376	22116
853.511	21949
853.645	21975
853.78	22090
853.914	22082
854.048	21998
854.183	22128
854.317	22154
854.451	22371
854.585	22131
854.72	22204
854.854	22128
854.988	22128
855.122	21941
855.256	21926
855.39	22040
855.524	21991
855.658	22154
855.792	22097
855.926	22059
856.06	22188
856.194	22253
856.327	22006
856.461	21918
856.595	22105
856.729	22090
856.862	22158
856.996	22120
857.13	22131
857.263	22185
857.397	22097
857.53	22154
857.664	22112
857.797	22238
857.931	22230
858.064	22097
858.197	22166
858.331	22196
858.464	22086
858.597	22051
858.731	22051
858.864	22067
858.997	21949
859.13	22044
859.263	22017
859.396	22162
859.529	22051
859.662	22082
859.795	22002
859.928	22063
860.061	22223
860.194	22177
860.327	22219
860.46	22154
860.592	22291
860.725	22333
860.858	22154
860.99	22067
861.123	21915
861.256	22074
861.388	22120
861.521	22835
861.653	21895
861.786	21941
861.918	21907
862.05	21895
862.183	21934
862.315	21991
862.447	22158
862.58	22067
862.712	21701
862.844	21797
862.976	21823
863.108	21895
863.24	22394
863.372	21728
863.504	21808
863.636	21781
863.768	21835
863.9	21949
864.032	21751
864.164	21720
864.296	21808
864.428	21835
864.559	21846
864.691	21728
864.823	21781
864.954	21728
865.086	21736
865.217	21690
865.349	21595
865.48	21736
865.612	21675
865.743	21793
865.875	21682
866.006	21663
866.137	21629
866.269	21743
866.4	21633
866.531	21580
866.662	21637
866.793	21553
866.924	21663
867.055	21637
867.186	21709
867.317	21625
867.448	21469
867.579	21580
867.71	21462
867.841	21549
867.972	21671
868.103	21534
868.233	21622
868.364	21641
868.495	21663
868.625	21823
868.756	21926
868.886	21781
869.017	21880
869.147	22040
869.278	21861
869.408	21865
869.539	21945
869.669	21934
869.799	21789
869.929	21987
870.06	21911
870.19	22181
870.32	22219
870.45	22158
870.58	22188
870.71	22299
870.84	22344
870.97	22101
871.1	22204
871.23	22322
871.36	22447
871.489	22337
871.619	22470
871.749	22413
871.879	22466
872.008	22554
872.138	22402
872.267	22337
872.397	22352
872.526	22196
872.656	22158
872.785	22284
872.915	22538
873.044	22588
873.173	22402
873.303	22527
873.432	22561
873.561	22550
873.69	22421
873.819	22470
873.948	22599
874.077	22447
874.206	22443
874.335	22493
874.464	22554
874.593	22698
874.722	22630
874.851	22736
874.979	22725
875.108	22702
875.237	22588
875.365	22637
875.494	22607
875.623	22664
875.751	22557
875.88	22790
876.008	22748
876.136	23006
876.265	23044
876.393	23193
876.521	23155
876.65	23235
876.778	23018
876.906	23022
877.034	22968
877.162	22961
877.29	23052
877.418	22987
877.546	23018
877.674	22957
877.802	23067
877.93	22949
878.058	23025
878.185	22972
878.313	23025
878.441	23064
878.568	22847
878.696	22980
878.824	23090
878.951	23124
879.079	23197
879.206	23296
879.333	23136
879.461	22957
879.588	23079
879.715	23193
879.842	23284
879.97	23136
880.097	22835
880.224	22847
880.351	22763
880.478	22828
880.605	22862
880.732	22793
880.859	23056
880.986	22839
881.112	22850
881.239	22672
881.366	22679
881.493	22493
881.619	22451
881.746	22436
881.872	22394
881.999	22303
882.125	22322
882.252	22424
882.378	22310
882.505	22440
882.631	22211
882.757	22044
882.883	22090
883.01	22074
883.136	22017
883.262	21968
883.388	21956
883.514	21960
883.64	21968
883.766	22101
883.892	21846
884.018	22032
884.143	22055
884.269	22021
884.395	21800
884.52	21671
884.646	21766
884.772	21656
884.897	21591
885.023	21850
885.148	21880
885.274	21869
885.399	21808
885.524	21705
885.65	21827
885.775	21690
885.9	21595
886.025	21873
886.15	21785
886.275	21690
886.4	21671
886.525	21637
886.65	21633
886.775	21595
886.9	21854
887.025	21911
887.149	21629
887.274	21534
887.399	21534
887.523	21420
887.648	21287
887.773	21359
887.897	21686
888.021	21496
888.146	21485
888.27	21549
888.395	21549
888.519	21606
888.643	21469
888.767	21603
888.891	21469
889.015	21310
889.139	21408
889.263	21275
889.387	21382
889.511	21431
889.635	21428
889.759	21150
889.883	21287
890.006	21203
890.13	21302
890.254	21245
890.377	21123
890.501	21032
890.624	20944
890.748	20994
890.871	20887
890.995	20899
891.118	20777
891.241	20998
891.364	20864
891.488	20963
891.611	20853
891.734	20796
891.857	20906
891.98	20872
892.103	20800
892.226	20872
892.349	20701
892.471	20602
892.594	20857
892.717	20815
892.839	20716
892.962	20716
893.085	20701
893.207	20705
893.33	20587
893.452	20613
893.575	20720
893.697	20746
893.819	20902
893.941	21062
894.064	20762
894.186	20609
894.308	20590
894.43	20815
894.552	20895
894.674	20826
894.796	20667
894.918	20682
895.04	20609
895.161	20842
895.283	20864
895.405	20678
895.526	20785
895.648	20689
895.769	20819
895.891	20735
896.012	20727
896.134	20758
896.255	20739
896.376	20636
896.498	20705
896.619	20644
896.74	20602
896.861	20739
896.982	21047
897.103	21230
897.224	21070
897.345	20883
897.466	20815
897.587	20952
897.708	21039
897.828	20921
897.949	20845
898.07	20743
898.19	20811
898.311	20941
898.431	20800
898.552	20979
898.672	21051
898.792	20910
898.913	20857
899.033	20785
899.153	20769
899.273	20609
899.393	20667
899.513	20659
899.633	20594
899.753	20598
899.873	20659
899.993	20686
900.113	20533
900.232	20560
900.352	20552
900.472	20457
900.591	20347
900.711	20454
900.83	20507
900.95	20526
901.069	20465
901.189	20237
901.308	20084
901.427	19898
901.546	20035
901.665	20035
901.784	19925
901.904	19837
902.023	19723
902.141	19586
902.26	19445
902.379	19651
902.498	19521
902.617	19472
902.735	19491
902.854	19495
902.973	19434
903.091	19209
903.21	19236
903.328	19084
903.446	19084
903.565	18920
903.683	18977
903.801	18833
903.919	18894
904.038	18867
904.156	18730
904.274	18768
904.392	18715
904.51	18616
904.627	18642
904.745	18810
904.863	18814
904.981	18490
905.098	18452
905.216	18338
905.334	18464
905.451	18460
905.569	18254
905.686	18407
905.803	18315
905.921	18239
906.038	18445
906.155	18247
906.272	18171
906.389	18136
906.506	17874
906.623	18003
906.74	17897
906.857	17798
906.974	17889
907.091	17942
907.208	17961
907.324	17954
907.441	17840
907.557	17726
907.674	17634
907.79	17554
907.907	17623
908.023	17729
908.139	17680
908.256	17573
908.372	17539
908.488	17562
908.604	17364
908.72	17402
908.836	17372
908.952	17280
909.068	17341
909.184	17440
909.3	17296
909.415	17452
909.531	17318
909.647	17060
909.762	17102
909.878	16995
909.993	17075
910.108	17037
910.224	16923
910.339	16946
910.454	16889
910.57	16824
910.685	16805
910.8	17132
910.915	16976
911.03	16873
911.145	16736
911.259	16603
911.374	16664
911.489	16519
911.604	16481
911.718	16440
911.833	16341
911.947	16310
912.062	16215
912.176	16329
912.291	16470
912.405	16382
912.519	16592
912.633	16607
912.748	16390
912.862	16386
912.976	16162
913.09	16116
913.204	16055
913.318	16173
913.431	16265
913.545	16246
913.659	16268
913.772	16090
913.886	15994
914	15979
914.113	16002
914.226	16021
914.34	16063
914.453	15785
914.566	16086
914.68	15888
914.793	15850
914.906	15576
915.019	15492
915.132	15568
915.245	15561
915.358	15614
915.47	15584
915.583	15595
915.696	15614
915.809	15717
915.921	15709
916.034	15485
916.146	15496
916.259	15435
916.371	15568
916.483	15485
916.595	15416
916.708	15492
916.82	15401
916.932	15378
917.044	15382
917.156	15393
917.268	15180
917.38	15283
917.491	15161
917.603	15146
917.715	15207
917.826	15310
917.938	15062
918.049	14990
918.161	15047
918.272	15249
918.384	15230
918.495	15127
918.606	14956
918.717	14887
918.828	14956
918.939	15058
919.05	14804
919.161	14944
919.272	14765
919.383	14857
919.494	14998
919.604	15100
919.715	14963
919.826	14929
919.936	14948
920.047	14967
920.157	14944
920.267	15089
920.378	14838
920.488	14887
920.598	14967
920.708	15211
920.818	15032
920.928	15112
921.038	15211
921.148	15154
921.258	14887
921.368	14887
921.477	14667
921.587	14617
921.697	14530
921.806	14636
921.916	14545
922.025	14282
922.134	14320
922.244	14237
922.353	14286
922.462	14263
922.571	14149
922.68	13974
922.789	13989
922.898	13932
923.007	13830
923.116	13917
923.224	13837
923.333	13860
923.442	13765
923.55	13795
923.659	13807
923.767	13799
923.876	13753
923.984	13830
924.092	13658
924.201	13651
924.309	13643
924.417	13624
924.525	13662
924.633	13666
924.741	14370
924.849	13472
924.956	13521
925.064	13304
925.172	13259
925.279	13251
925.387	13335
925.494	13320
925.602	13460
925.709	13396
925.816	13236
925.924	13206
926.031	13316
926.138	13282
926.245	13255
926.352	13187
926.459	13327
926.566	13274
926.673	13194
926.779	13076
926.886	13012
926.993	12920
927.099	12817
927.206	12833
927.312	12878
927.419	12901
927.525	12802
927.631	12798
927.737	12738
927.843	12684
927.95	12627
928.056	12696
928.162	12692
928.267	12673
928.373	13422
928.479	12814
928.585	12391
928.69	12696
928.796	12654
928.901	12502
929.007	12414
929.112	12597
929.218	12506
929.323	12388
929.428	12410
929.533	12494
929.638	12342
929.743	12300
929.848	12338
929.953	12300
930.058	12228
930.163	12110
930.267	12136
930.372	12239
930.477	12015
930.581	12308
930.685	12125
930.79	11923
930.894	11965
930.998	11908
931.103	12079
931.207	11764
931.311	11604
931.415	11589
931.519	11406
931.623	11296
