Data from test_V78500241_3711.txt Node
Date: Fri Mar 25 16:07:30 CST 2022
User: usil
Spectrometer: V785-0024
Trigger mode: 0
Integration Time (sec): 4.000000E-1
Scans to average: 1
Nonlinearity correction enabled: false
Boxcar width: 0
Storing dark spectrum: false
XAxis mode: Wavelengths
Number of Pixels in Spectrum: 1024
>>>>>Begin Spectral Data<<<<<
801.071	28329
801.214	28059
801.356	27968
801.499	27857
801.641	27804
801.783	27705
801.926	27808
802.068	27899
802.211	27873
802.353	27751
802.496	27637
802.638	27519
802.78	27359
802.923	27443
803.065	27397
803.208	27393
803.35	27515
803.492	27500
803.635	27690
803.777	27637
803.919	27713
804.061	28036
804.204	27842
804.346	27648
804.488	27462
804.63	27591
804.773	27454
804.915	27816
805.057	27720
805.199	27785
805.341	27857
805.483	27823
805.626	27789
805.768	27751
805.91	27846
806.052	27850
806.194	27759
806.336	28006
806.478	27808
806.62	27835
806.762	27998
806.904	28093
807.046	28306
807.188	28318
807.33	28291
807.472	28379
807.614	28223
807.756	28268
807.898	28188
808.04	27994
808.182	28074
808.324	28181
808.465	28344
808.607	28329
808.749	28634
808.891	28637
809.033	28733
809.174	28664
809.316	28550
809.458	28440
809.6	28481
809.741	28508
809.883	28546
810.025	28877
810.166	28869
810.308	28763
810.45	28634
810.591	28672
810.733	28611
810.875	28462
811.016	28424
811.158	28341
811.299	28531
811.441	28649
811.582	28698
811.724	28421
811.865	28512
812.007	28421
812.148	28607
812.29	28531
812.431	28660
812.573	28729
812.714	28843
812.855	29128
812.997	29041
813.138	29197
813.279	29231
813.421	28957
813.562	28873
813.703	28713
813.845	28778
813.986	28485
814.127	28306
814.268	28211
814.41	28318
814.551	28112
814.692	28489
814.833	28154
814.974	28143
815.115	28379
815.256	27994
815.397	28086
815.539	28112
815.68	28086
815.821	27941
815.962	27941
816.103	27945
816.244	27781
816.385	27903
816.526	27564
816.666	27637
816.807	27405
816.948	27671
817.089	27804
817.23	27496
817.371	27454
817.512	27595
817.653	27507
817.793	27549
817.934	27523
818.075	27412
818.216	27393
818.356	27458
818.497	27401
818.638	27222
818.778	27378
818.919	27313
819.06	27252
819.2	27443
819.341	27412
819.481	27511
819.622	27576
819.762	27831
819.903	27819
820.043	27762
820.184	27606
820.324	27675
820.465	27564
820.605	27728
820.746	27618
820.886	27348
821.026	27606
821.167	27667
821.307	27675
821.447	27412
821.588	27336
821.728	27298
821.868	27138
822.008	26952
822.149	26910
822.289	27028
822.429	26819
822.569	26613
822.709	26762
822.849	26606
822.99	26511
823.13	26552
823.27	26480
823.41	26278
823.55	26237
823.69	26298
823.83	26256
823.97	26237
824.11	26240
824.25	26199
824.389	26062
824.529	26275
824.669	26172
824.809	26320
824.949	26305
825.089	26210
825.228	26202
825.368	26035
825.508	26001
825.648	25940
825.787	26122
825.927	26119
826.067	26058
826.206	25989
826.346	26168
826.485	26180
826.625	25928
826.765	25989
826.904	26183
827.044	25712
827.183	25731
827.323	25696
827.462	25826
827.601	25776
827.741	25628
827.88	25845
828.02	25609
828.159	25696
828.298	25616
828.437	25807
828.577	25734
828.716	25845
828.855	25571
828.994	25445
829.134	25415
829.273	25453
829.412	25411
829.551	25331
829.69	25438
829.829	25392
829.968	25407
830.107	25457
830.246	25441
830.385	25362
830.524	25293
830.663	25270
830.802	25148
830.941	25057
831.08	25050
831.219	25152
831.357	25118
831.496	25221
831.635	24924
831.774	24829
831.913	24772
832.051	24829
832.19	24798
832.329	24871
832.467	24776
832.606	24525
832.744	24677
832.883	24646
833.022	24730
833.16	24642
833.299	24726
833.437	24783
833.576	24825
833.714	24738
833.852	24829
833.991	24658
834.129	24882
834.267	24989
834.406	24654
834.544	24772
834.682	24806
834.821	24745
834.959	24909
835.097	24677
835.235	24719
835.373	24749
835.511	24730
835.65	24532
835.788	24692
835.926	24448
836.064	24376
836.202	24513
836.34	24642
836.478	24665
836.615	24505
836.753	24585
836.891	24635
837.029	24570
837.167	24608
837.305	24551
837.443	24536
837.58	24395
837.718	24555
837.856	24433
837.993	24323
838.131	24407
838.269	24273
838.406	24285
838.544	24182
838.681	24083
838.819	24106
838.956	23893
839.094	23908
839.231	23969
839.369	24011
839.506	24334
839.643	24106
839.781	23874
839.918	23912
840.055	23969
840.193	23904
840.33	23672
840.467	23832
840.604	23809
840.742	24026
840.879	23554
841.016	23714
841.153	23687
841.29	23870
841.427	23821
841.564	23687
841.701	23889
841.838	23722
841.975	23703
842.112	23573
842.249	23623
842.385	23611
842.522	23832
842.659	23684
842.796	23585
842.933	23630
843.069	23604
843.206	23520
843.343	23779
843.479	23665
843.616	23554
843.752	23402
843.889	23433
844.025	23448
844.162	23284
844.298	23421
844.435	23349
844.571	23360
844.708	23379
844.844	23581
844.98	23604
845.117	23356
845.253	23189
845.389	23067
845.525	23242
845.661	23155
845.798	23102
845.934	23018
846.07	23094
846.206	23189
846.342	23269
846.478	23025
846.614	22968
846.75	22812
846.886	22698
847.022	22911
847.158	22767
847.294	22877
847.429	22854
847.565	22858
847.701	23018
847.837	22767
847.972	22432
848.108	22580
848.244	22607
848.379	22417
848.515	22337
848.65	22382
848.786	22421
848.921	22386
849.057	22478
849.192	22577
849.328	22440
849.463	22382
849.598	22318
849.734	22303
849.869	22135
850.004	22124
850.14	22196
850.275	22150
850.41	22101
850.545	22124
850.68	22124
850.815	22276
850.95	22139
851.085	22242
851.22	22314
851.355	22242
851.49	22257
851.625	22128
851.76	22166
851.895	22074
852.03	22025
852.165	22211
852.299	22200
852.434	22215
852.569	22116
852.703	22090
852.838	22215
852.973	22265
853.107	22284
853.242	22048
853.376	21994
853.511	21819
853.645	21755
853.78	22162
853.914	21975
854.048	21987
854.183	21892
854.317	22040
854.451	22154
854.585	21911
854.72	22093
854.854	22158
854.988	21930
855.122	21991
855.256	21819
855.39	21873
855.524	22055
855.658	22029
855.792	21991
855.926	22017
856.06	22025
856.194	22055
856.327	21960
856.461	21926
856.595	21983
856.729	22067
856.862	22116
856.996	21975
857.13	22048
857.263	22147
857.397	22051
857.53	22059
857.664	22105
857.797	22120
857.931	22109
858.064	22040
858.197	22090
858.331	22029
858.464	21945
858.597	21774
858.731	21941
858.864	21930
858.997	21823
859.13	22029
859.263	22048
859.396	22025
859.529	22002
859.662	21816
859.795	22025
859.928	22006
860.061	22169
860.194	22257
860.327	22059
860.46	22082
860.592	22010
860.725	22116
860.858	22169
860.99	22006
861.123	21755
861.256	21892
861.388	22044
861.521	22478
861.653	21827
861.786	21835
861.918	21861
862.05	21884
862.183	21983
862.315	21956
862.447	21926
862.58	21945
862.712	21633
862.844	21698
862.976	21770
863.108	21827
863.24	22257
863.372	21797
863.504	21812
863.636	21698
863.768	21732
863.9	21603
864.032	21690
864.164	21644
864.296	21717
864.428	21884
864.559	21865
864.691	21759
864.823	21694
864.954	21709
865.086	21648
865.217	21507
865.349	21481
865.48	21523
865.612	21561
865.743	21739
865.875	21618
866.006	21450
866.137	21717
866.269	21572
866.4	21496
866.531	21511
866.662	21572
866.793	21488
866.924	21363
867.055	21587
867.186	21523
867.317	21629
867.448	21351
867.579	21534
867.71	21313
867.841	21435
867.972	21458
868.103	21428
868.233	21504
868.364	21534
868.495	21447
868.625	21781
868.756	21778
868.886	21587
869.017	21614
869.147	21930
869.278	21937
869.408	21774
869.539	21663
869.669	21755
869.799	21876
869.929	21892
870.06	21880
870.19	22040
870.32	22078
870.45	22051
870.58	22067
870.71	22204
870.84	22280
870.97	22143
871.1	22128
871.23	22371
871.36	22390
871.489	22226
871.619	22409
871.749	22390
871.879	22356
872.008	22409
872.138	22287
872.267	22341
872.397	22276
872.526	22154
872.656	22154
872.785	22169
872.915	22363
873.044	22459
873.173	22379
873.303	22440
873.432	22508
873.561	22546
873.69	22287
873.819	22382
873.948	22500
874.077	22360
874.206	22333
874.335	22249
874.464	22531
874.593	22577
874.722	22592
874.851	22527
874.979	22664
875.108	22653
875.237	22443
875.365	22497
875.494	22580
875.623	22573
875.751	22535
875.88	22653
876.008	22828
876.136	22843
876.265	23117
876.393	22949
876.521	23121
876.65	23136
876.778	22927
876.906	22976
877.034	22820
877.162	23014
877.29	22900
877.418	22866
877.546	22972
877.674	22820
877.802	22824
877.93	22877
878.058	22915
878.185	22877
878.313	22949
878.441	22824
878.568	22755
878.696	22828
878.824	22953
878.951	22934
879.079	23269
879.206	23280
879.333	23064
879.461	22908
879.588	23071
879.715	23048
879.842	23330
879.97	23071
880.097	22717
880.224	22831
880.351	22889
880.478	22877
880.605	22683
880.732	22729
880.859	23010
880.986	22778
881.112	22740
881.239	22615
881.366	22519
881.493	22478
881.619	22337
881.746	22398
881.872	22356
881.999	22280
882.125	22177
882.252	22287
882.378	22352
882.505	22348
882.631	22185
882.757	22021
882.883	22116
883.01	22082
883.136	22059
883.262	21941
883.388	21808
883.514	21983
883.64	22032
883.766	21918
883.892	21789
884.018	21831
884.143	21960
884.269	22048
884.395	21732
884.52	21728
884.646	21667
884.772	21595
884.897	21587
885.023	21652
885.148	21800
885.274	21808
885.399	21641
885.524	21739
885.65	21656
885.775	21724
885.9	21568
886.025	21804
886.15	21686
886.275	21660
886.4	21583
886.525	21629
886.65	21599
886.775	21614
886.9	21781
887.025	21903
887.149	21599
887.274	21428
887.399	21511
887.523	21408
887.648	21439
887.773	21332
887.897	21477
888.021	21439
888.146	21329
888.27	21348
888.395	21492
888.519	21306
888.643	21416
888.767	21443
888.891	21428
889.015	21306
889.139	21249
889.263	21306
889.387	21298
889.511	21439
889.635	21393
889.759	21188
889.883	21302
890.006	21226
890.13	21135
890.254	21199
890.377	21142
890.501	20925
890.624	20971
890.748	20990
890.871	20853
890.995	20804
891.118	20731
891.241	20758
891.364	20807
891.488	20773
891.611	20785
891.734	20804
891.857	20765
891.98	20758
892.103	20876
892.226	20686
892.349	20708
892.471	20617
892.594	20750
892.717	20773
892.839	20712
892.962	20724
893.085	20758
893.207	20663
893.33	20621
893.452	20552
893.575	20693
893.697	20648
893.819	20777
893.941	20838
894.064	20883
894.186	20655
894.308	20507
894.43	20727
894.552	20826
894.674	20872
894.796	20602
894.918	20564
895.04	20724
895.161	20716
895.283	20708
895.405	20545
895.526	20724
895.648	20712
895.769	20674
895.891	20731
896.012	20674
896.134	20689
896.255	20720
896.376	20541
896.498	20670
896.619	20651
896.74	20625
896.861	20727
896.982	20956
897.103	21024
897.224	20853
897.345	20834
897.466	20880
897.587	20918
897.708	20899
897.828	20887
897.949	20933
898.07	20746
898.19	20834
898.311	20918
898.431	20720
898.552	20800
898.672	20895
898.792	20842
898.913	20952
899.033	20686
899.153	20670
899.273	20602
899.393	20640
899.513	20602
899.633	20575
899.753	20807
899.873	20545
899.993	20617
900.113	20579
900.232	20625
900.352	20442
900.472	20419
900.591	20275
900.711	20317
900.83	20393
900.95	20423
901.069	20480
901.189	20301
901.308	20012
901.427	19925
901.546	19974
901.665	19868
901.784	19951
901.904	19799
902.023	19761
902.141	19525
902.26	19510
902.379	19712
902.498	19487
902.617	19430
902.735	19407
902.854	19491
902.973	19377
903.091	19156
903.21	19126
903.328	19171
903.446	19012
903.565	19027
903.683	18890
903.801	18905
903.919	18875
904.038	18776
904.156	18711
904.274	18749
904.392	18597
904.51	18696
904.627	18715
904.745	18681
904.863	18711
904.981	18506
905.098	18350
905.216	18338
905.334	18445
905.451	18460
905.569	18369
905.686	18270
905.803	18311
905.921	18117
906.038	18285
906.155	18091
906.272	18022
906.389	18091
906.506	17977
906.623	17931
906.74	17813
906.857	17748
906.974	17866
907.091	17935
907.208	18003
907.324	17935
907.441	17722
907.557	17554
907.674	17592
907.79	17528
907.907	17497
908.023	17627
908.139	17634
908.256	17558
908.372	17486
908.488	17402
908.604	17250
908.72	17258
908.836	17307
908.952	17330
909.068	17269
909.184	17337
909.3	17330
909.415	17261
909.531	17261
909.647	17083
909.762	17083
909.878	17052
909.993	17086
910.108	17178
910.224	16881
910.339	16957
910.454	16984
910.57	16824
910.685	16786
910.8	17102
910.915	16965
911.03	16816
911.145	16565
911.259	16615
911.374	16592
911.489	16577
911.604	16478
911.718	16303
911.833	16360
911.947	16196
912.062	16265
912.176	16318
912.291	16421
912.405	16329
912.519	16527
912.633	16637
912.748	16344
912.862	16360
912.976	16097
913.09	16090
913.204	16093
913.318	16181
913.431	16215
913.545	16207
913.659	16230
913.772	16067
913.886	15949
914	16025
914.113	16017
914.226	15972
914.34	16029
914.453	15895
914.566	15975
914.68	15819
914.793	15785
914.906	15580
915.019	15545
915.132	15549
915.245	15553
915.358	15561
915.47	15473
915.583	15557
915.696	15564
915.809	15682
915.921	15564
916.034	15523
916.146	15363
916.259	15397
916.371	15538
916.483	15523
916.595	15386
916.708	15416
916.82	15359
916.932	15275
917.044	15260
917.156	15245
917.268	15100
917.38	15241
917.491	15272
917.603	15226
917.715	15214
917.826	15275
917.938	15135
918.049	15032
918.161	15112
918.272	15199
918.384	15298
918.495	15104
918.606	15028
918.717	14918
918.828	14933
918.939	14941
919.05	14876
919.161	14937
919.272	14773
919.383	14811
919.494	15017
919.604	15138
919.715	14804
919.826	14914
919.936	14925
920.047	14880
920.157	14910
920.267	15108
920.378	14800
920.488	14834
920.598	15017
920.708	15104
920.818	15013
920.928	14979
921.038	15218
921.148	15146
921.258	14811
921.368	14727
921.477	14655
921.587	14648
921.697	14484
921.806	14610
921.916	14358
922.025	14294
922.134	14202
922.244	14214
922.353	14225
922.462	14176
922.571	14062
922.68	13928
922.789	13909
922.898	13947
923.007	13875
923.116	13925
923.224	13830
923.333	13849
923.442	13731
923.55	13689
923.659	13723
923.767	13674
923.876	13590
923.984	13742
924.092	13681
924.201	13616
924.309	13639
924.417	13594
924.525	13525
924.633	13575
924.741	14355
924.849	13388
924.956	13468
925.064	13365
925.172	13270
925.279	13270
925.387	13327
925.494	13244
925.602	13495
925.709	13369
925.816	13183
925.924	13133
926.031	13316
926.138	13236
926.245	13206
926.352	13118
926.459	13285
926.566	13263
926.673	13194
926.779	13065
926.886	13057
926.993	12897
927.099	12833
927.206	12814
927.312	12787
927.419	12897
927.525	12806
927.631	12810
927.737	12795
927.843	12620
927.95	12597
928.056	12521
928.162	12646
928.267	12719
928.373	13228
928.479	12696
928.585	12551
928.69	12646
928.796	12563
928.901	12486
929.007	12315
929.112	12479
929.218	12525
929.323	12365
929.428	12353
929.533	12498
929.638	12403
929.743	12289
929.848	12399
929.953	12361
930.058	12194
930.163	11988
930.267	12064
930.372	12228
930.477	12079
930.581	12224
930.685	12178
930.79	11984
930.894	11954
930.998	11923
931.103	12011
931.207	11695
931.311	11581
931.415	11512
931.519	11322
931.623	11284
