Data from test_V78500241_3671.txt Node
Date: Fri Mar 25 16:07:13 CST 2022
User: usil
Spectrometer: V785-0024
Trigger mode: 0
Integration Time (sec): 4.000000E-1
Scans to average: 1
Nonlinearity correction enabled: false
Boxcar width: 0
Storing dark spectrum: false
XAxis mode: Wavelengths
Number of Pixels in Spectrum: 1024
>>>>>Begin Spectral Data<<<<<
801.071	28348
801.214	28200
801.356	28154
801.499	27911
801.641	28067
801.783	27941
801.926	27941
802.068	27934
802.211	28002
802.353	27850
802.496	27682
802.638	27625
802.78	27523
802.923	27625
803.065	27622
803.208	27561
803.35	27542
803.492	27686
803.635	27941
803.777	27793
803.919	27823
804.061	28051
804.204	27846
804.346	27835
804.488	27720
804.63	27789
804.773	27789
804.915	27911
805.057	27987
805.199	27785
805.341	27888
805.483	27975
805.626	27968
805.768	27953
805.91	28067
806.052	28006
806.194	27819
806.336	28158
806.478	27960
806.62	28036
806.762	28173
806.904	28284
807.046	28588
807.188	28443
807.33	28348
807.472	28561
807.614	28401
807.756	28432
807.898	28394
808.04	28238
808.182	28265
808.324	28310
808.465	28219
808.607	28466
808.749	28691
808.891	28805
809.033	28866
809.174	28698
809.316	28573
809.458	28717
809.6	28577
809.741	28698
809.883	28736
810.025	28953
810.166	29033
810.308	29155
810.45	28843
810.591	29037
810.733	28721
810.875	28839
811.016	28649
811.158	28569
811.299	28634
811.441	28896
811.582	28763
811.724	28497
811.865	28675
812.007	28744
812.148	28592
812.29	28771
812.431	28873
812.573	29044
812.714	29155
812.855	29246
812.997	29246
813.138	29490
813.279	29299
813.421	29273
813.562	29162
813.703	29071
813.845	28976
813.986	28523
814.127	28348
814.268	28337
814.41	28424
814.551	28352
814.692	28371
814.833	28234
814.974	28234
815.115	28432
815.256	28299
815.397	28352
815.539	28219
815.68	28230
815.821	28124
815.962	28215
816.103	28261
816.244	28223
816.385	27979
816.526	27960
816.666	27789
816.807	27648
816.948	27648
817.089	27766
817.23	27842
817.371	27606
817.512	27869
817.653	27618
817.793	27762
817.934	27675
818.075	27892
818.216	27572
818.356	27762
818.497	27606
818.638	27386
818.778	27485
818.919	27412
819.06	27519
819.2	27542
819.341	27686
819.481	27743
819.622	27774
819.762	28097
819.903	27937
820.043	27945
820.184	27717
820.324	27808
820.465	27911
820.605	27736
820.746	27838
820.886	27492
821.026	27759
821.167	27785
821.307	27709
821.447	27652
821.588	27576
821.728	27427
821.868	27397
822.008	27104
822.149	27173
822.289	26967
822.429	26830
822.569	26731
822.709	26811
822.849	26758
822.99	26754
823.13	26868
823.27	26655
823.41	26568
823.55	26298
823.69	26453
823.83	26381
823.97	26453
824.11	26328
824.25	26168
824.389	26195
824.529	26313
824.669	26339
824.809	26541
824.949	26476
825.089	26377
825.228	26339
825.368	26229
825.508	26153
825.648	26294
825.787	26225
825.927	26244
826.067	26115
826.206	26202
826.346	26142
826.485	26267
826.625	26199
826.765	26290
826.904	26259
827.044	26031
827.183	25974
827.323	25864
827.462	26020
827.601	26020
827.741	25860
827.88	25951
828.02	25723
828.159	25879
828.298	25963
828.437	26024
828.577	25890
828.716	25928
828.855	25795
828.994	25750
829.134	25521
829.273	25693
829.412	25479
829.551	25540
829.69	25635
829.829	25693
829.968	25670
830.107	25476
830.246	25594
830.385	25632
830.524	25453
830.663	25460
830.802	25346
830.941	25183
831.08	25129
831.219	25171
831.357	25312
831.496	25521
831.635	25259
831.774	25114
831.913	25027
832.051	24996
832.19	25050
832.329	25091
832.467	24848
832.606	24878
832.744	24821
832.883	24878
833.022	24897
833.16	24817
833.299	24920
833.437	24973
833.576	24810
833.714	24928
833.852	25034
833.991	25015
834.129	24817
834.267	25034
834.406	24977
834.544	25019
834.682	24985
834.821	24973
834.959	25050
835.097	25034
835.235	24909
835.373	24863
835.511	24867
835.65	24791
835.788	24886
835.926	24681
836.064	24559
836.202	24566
836.34	24745
836.478	24840
836.615	24745
836.753	24749
836.891	24749
837.029	24798
837.167	24829
837.305	24616
837.443	24673
837.58	24658
837.718	24654
837.856	24753
837.993	24540
838.131	24559
838.269	24395
838.406	24540
838.544	24429
838.681	24171
838.819	24197
838.956	24049
839.094	24060
839.231	24152
839.369	24232
839.506	24601
839.643	24384
839.781	24030
839.918	23946
840.055	24041
840.193	23935
840.33	24015
840.467	23935
840.604	24030
840.742	24277
840.879	23885
841.016	24015
841.153	23920
841.29	24083
841.427	23916
841.564	23996
841.701	23931
841.838	23882
841.975	23874
842.112	23866
842.249	23840
842.385	23752
842.522	24018
842.659	23695
842.796	23783
842.933	23573
843.069	23661
843.206	23634
843.343	23783
843.479	23767
843.616	23729
843.752	23592
843.889	23509
844.025	23661
844.162	23444
844.298	23512
844.435	23452
844.571	23543
844.708	23509
844.844	23665
844.98	23695
845.117	23551
845.253	23417
845.389	23474
845.525	23463
845.661	23345
845.798	23258
845.934	23315
846.07	23170
846.206	23223
846.342	23395
846.478	23254
846.614	23071
846.75	22889
846.886	23010
847.022	23174
847.158	22961
847.294	22961
847.429	22896
847.565	23029
847.701	23189
847.837	22828
847.972	22698
848.108	22847
848.244	22740
848.379	22649
848.515	22634
848.65	22497
848.786	22538
848.921	22721
849.057	22664
849.192	22698
849.328	22481
849.463	22622
849.598	22611
849.734	22466
849.869	22508
850.004	22253
850.14	22295
850.275	22295
850.41	22265
850.545	22371
850.68	22325
850.815	22306
850.95	22348
851.085	22413
851.22	22382
851.355	22409
851.49	22333
851.625	22287
851.76	22314
851.895	22314
852.03	22310
852.165	22322
852.299	22428
852.434	22379
852.569	22409
852.703	22333
852.838	22303
852.973	22455
853.107	22402
853.242	22360
853.376	22166
853.511	22124
853.645	22109
853.78	22196
853.914	22055
854.048	22120
854.183	22040
854.317	22131
854.451	22402
854.585	22211
854.72	22067
854.854	22306
854.988	22086
855.122	22070
855.256	21960
855.39	22223
855.524	22166
855.658	22135
855.792	22268
855.926	22177
856.06	22143
856.194	22276
856.327	22196
856.461	22010
856.595	22112
856.729	22051
856.862	22249
856.996	22246
857.13	22124
857.263	22207
857.397	22230
857.53	22017
857.664	22173
857.797	22253
857.931	22234
858.064	22181
858.197	22363
858.331	22082
858.464	22044
858.597	22112
858.731	22166
858.864	22128
858.997	22086
859.13	22188
859.263	22276
859.396	22166
859.529	22082
859.662	22188
859.795	22166
859.928	22173
860.061	22306
860.194	22440
860.327	22196
860.46	22215
860.592	22188
860.725	22253
860.858	22318
860.99	22078
861.123	21960
861.256	22147
861.388	22185
861.521	22873
861.653	22177
861.786	21865
861.918	21922
862.05	22124
862.183	22044
862.315	22196
862.447	22120
862.58	21994
862.712	21842
862.844	21850
862.976	22010
863.108	21926
863.24	22337
863.372	21850
863.504	21911
863.636	21884
863.768	21911
863.9	21873
864.032	21778
864.164	21869
864.296	21895
864.428	21903
864.559	21934
864.691	21857
864.823	21774
864.954	21781
865.086	21736
865.217	21648
865.349	21705
865.48	21759
865.612	21682
865.743	21819
865.875	21835
866.006	21720
866.137	21857
866.269	21728
866.4	21819
866.531	21720
866.662	21652
866.793	21755
866.924	21618
867.055	21739
867.186	21614
867.317	21568
867.448	21603
867.579	21610
867.71	21614
867.841	21644
867.972	21610
868.103	21580
868.233	21652
868.364	21701
868.495	21800
868.625	21884
868.756	22093
868.886	21835
869.017	21892
869.147	21956
869.278	21975
869.408	21827
869.539	21960
869.669	22120
869.799	21934
869.929	21987
870.06	22055
870.19	22200
870.32	22070
870.45	22356
870.58	22253
870.71	22322
870.84	22413
870.97	22356
871.1	22303
871.23	22592
871.36	22569
871.489	22436
871.619	22481
871.749	22421
871.879	22512
872.008	22691
872.138	22519
872.267	22519
872.397	22462
872.526	22348
872.656	22360
872.785	22398
872.915	22459
873.044	22569
873.173	22557
873.303	22573
873.432	22508
873.561	22622
873.69	22546
873.819	22455
873.948	22683
874.077	22573
874.206	22596
874.335	22485
874.464	22740
874.593	22691
874.722	22569
874.851	22694
874.979	22831
875.108	22843
875.237	22641
875.365	22702
875.494	22694
875.623	22793
875.751	22702
875.88	22755
876.008	22881
876.136	22987
876.265	23162
876.393	23166
876.521	23216
876.65	23296
876.778	23193
876.906	23056
877.034	23124
877.162	23162
877.29	23037
877.418	23147
877.546	23041
877.674	23075
877.802	23151
877.93	23071
878.058	22908
878.185	22892
878.313	23029
878.441	23155
878.568	22850
878.696	22995
878.824	23151
878.951	23322
879.079	23318
879.206	23269
879.333	23227
879.461	23113
879.588	23212
879.715	23360
879.842	23433
879.97	23223
880.097	22915
880.224	22915
880.351	22839
880.478	22984
880.605	22858
880.732	22949
880.859	23155
880.986	22908
881.112	22900
881.239	22812
881.366	22752
881.493	22672
881.619	22546
881.746	22611
881.872	22527
881.999	22523
882.125	22402
882.252	22550
882.378	22493
882.505	22443
882.631	22348
882.757	22166
882.883	22238
883.01	22181
883.136	22124
883.262	21937
883.388	22067
883.514	22154
883.64	22200
883.766	22131
883.892	21880
884.018	21994
884.143	22082
884.269	22131
884.395	21892
884.52	21785
884.646	21846
884.772	21800
884.897	21743
885.023	21880
885.148	21937
885.274	21899
885.399	21937
885.524	21937
885.65	21838
885.775	21793
885.9	21880
886.025	21895
886.15	21903
886.275	21728
886.4	21755
886.525	21686
886.65	21682
886.775	21759
886.9	21831
887.025	22010
887.149	21747
887.274	21603
887.399	21462
887.523	21515
887.648	21450
887.773	21488
887.897	21648
888.021	21564
888.146	21485
888.27	21633
888.395	21633
888.519	21553
888.643	21625
888.767	21603
888.891	21583
889.015	21435
889.139	21344
889.263	21275
889.387	21492
889.511	21515
889.635	21477
889.759	21245
889.883	21287
890.006	21325
890.13	21477
890.254	21275
890.377	21382
890.501	21085
890.624	21154
890.748	21180
890.871	20891
890.995	20975
891.118	20868
891.241	20975
891.364	20864
891.488	21047
891.611	20956
891.734	20891
891.857	21066
891.98	20872
892.103	20918
892.226	20982
892.349	20712
892.471	20739
892.594	20887
892.717	20906
892.839	20678
892.962	20864
893.085	20876
893.207	20727
893.33	20754
893.452	20735
893.575	20826
893.697	20720
893.819	20937
893.941	21039
894.064	20925
894.186	20762
894.308	20750
894.43	20872
894.552	20956
894.674	20834
894.796	20686
894.918	20834
895.04	20800
895.161	20834
895.283	20857
895.405	20636
895.526	20849
895.648	20823
895.769	20689
895.891	20849
896.012	20830
896.134	20880
896.255	20864
896.376	20777
896.498	20811
896.619	20849
896.74	20781
896.861	20788
896.982	21150
897.103	21176
897.224	21024
897.345	21074
897.466	20941
897.587	20982
897.708	21119
897.828	20963
897.949	20960
898.07	20800
898.19	20891
898.311	20990
898.431	20998
898.552	20990
898.672	21085
898.792	21051
898.913	21089
899.033	20967
899.153	20853
899.273	20724
899.393	20678
899.513	20769
899.633	20842
899.753	20891
899.873	20708
899.993	20788
900.113	20701
900.232	20735
900.352	20678
900.472	20560
900.591	20473
900.711	20450
900.83	20290
900.95	20617
901.069	20465
901.189	20309
901.308	20233
901.427	20077
901.546	20176
901.665	20039
901.784	20138
901.904	20012
902.023	19909
902.141	19704
902.26	19605
902.379	19696
902.498	19685
902.617	19575
902.735	19590
902.854	19518
902.973	19537
903.091	19270
903.21	19285
903.328	19221
903.446	19179
903.565	19072
903.683	19042
903.801	18890
903.919	19008
904.038	19008
904.156	18913
904.274	18852
904.392	18760
904.51	18658
904.627	18814
904.745	18875
904.863	18848
904.981	18490
905.098	18517
905.216	18448
905.334	18506
905.451	18433
905.569	18414
905.686	18506
905.803	18437
905.921	18346
906.038	18289
906.155	18262
906.272	18209
906.389	18194
906.506	18022
906.623	18049
906.74	17961
906.857	17920
906.974	17950
907.091	17965
907.208	18022
907.324	17999
907.441	17897
907.557	17771
907.674	17783
907.79	17714
907.907	17714
908.023	17665
908.139	17813
908.256	17562
908.372	17539
908.488	17589
908.604	17482
908.72	17391
908.836	17459
908.952	17383
909.068	17402
909.184	17520
909.3	17379
909.415	17425
909.531	17391
909.647	17250
909.762	17162
909.878	17147
909.993	17025
910.108	17162
910.224	17003
910.339	17128
910.454	16999
910.57	16972
910.685	16831
910.8	17117
910.915	17113
911.03	16961
911.145	16782
911.259	16778
911.374	16790
911.489	16736
911.604	16592
911.718	16466
911.833	16363
911.947	16325
912.062	16162
912.176	16352
912.291	16363
912.405	16402
912.519	16607
912.633	16645
912.748	16405
912.862	16405
912.976	16363
913.09	16124
913.204	16177
913.318	16204
913.431	16375
913.545	16318
913.659	16333
913.772	16276
913.886	16154
914	15994
914.113	16215
914.226	16162
914.34	16124
914.453	16051
914.566	16067
914.68	15934
914.793	15911
914.906	15755
915.019	15629
915.132	15648
915.245	15553
915.358	15652
915.47	15671
915.583	15720
915.696	15728
915.809	15781
915.921	15816
916.034	15542
916.146	15447
916.259	15511
916.371	15542
916.483	15557
916.595	15515
916.708	15477
916.82	15523
916.932	15481
917.044	15363
917.156	15424
917.268	15344
917.38	15233
917.491	15207
917.603	15287
917.715	15367
917.826	15431
917.938	15363
918.049	15051
918.161	15283
918.272	15370
918.384	15355
918.495	15256
918.606	14925
918.717	14906
918.828	15058
918.939	15112
919.05	14929
919.161	15077
919.272	14815
919.383	14941
919.494	15020
919.604	15218
919.715	15036
919.826	14883
919.936	15013
920.047	15005
920.157	14956
920.267	15097
920.378	15085
920.488	14948
920.598	15135
920.708	15150
920.818	15108
920.928	15032
921.038	15218
921.148	15237
921.258	14937
921.368	14880
921.477	14727
921.587	14590
921.697	14606
921.806	14762
921.916	14556
922.025	14374
922.134	14385
922.244	14301
922.353	14385
922.462	14320
922.571	14161
922.68	13906
922.789	14027
922.898	14012
923.007	13902
923.116	13902
923.224	14035
923.333	13970
923.442	13883
923.55	13921
923.659	13928
923.767	13913
923.876	13734
923.984	13765
924.092	13723
924.201	13616
924.309	13693
924.417	13662
924.525	13514
924.633	13723
924.741	14606
924.849	13468
924.956	13586
925.064	13400
925.172	13331
925.279	13392
925.387	13400
925.494	13350
925.602	13544
925.709	13381
925.816	13251
925.924	13320
926.031	13502
926.138	13289
926.245	13415
926.352	13312
926.459	13369
926.566	13324
926.673	13289
926.779	13012
926.886	13122
926.993	12947
927.099	12920
927.206	12894
927.312	12829
927.419	13042
927.525	12905
927.631	12878
927.737	12833
927.843	12806
927.95	12620
928.056	12817
928.162	12783
928.267	12821
928.373	13396
928.479	12764
928.585	12616
928.69	12783
928.796	12722
928.901	12650
929.007	12502
929.112	12570
929.218	12555
929.323	12479
929.428	12399
929.533	12623
929.638	12399
929.743	12464
929.848	12376
929.953	12410
930.058	12270
930.163	12224
930.267	12167
930.372	12167
930.477	12026
930.581	12338
930.685	12095
930.79	12030
930.894	11977
930.998	11908
931.103	12117
931.207	11878
931.311	11684
931.415	11539
931.519	11364
931.623	11387
