Data from test_V78500241_744.txt Node
Date: Fri Mar 25 15:46:57 CST 2022
User: usil
Spectrometer: V785-0024
Trigger mode: 0
Integration Time (sec): 4.000000E-1
Scans to average: 1
Nonlinearity correction enabled: false
Boxcar width: 0
Storing dark spectrum: false
XAxis mode: Wavelengths
Number of Pixels in Spectrum: 1024
>>>>>Begin Spectral Data<<<<<
801.071	27991
801.214	27960
801.356	27515
801.499	27599
801.641	27420
801.783	27523
801.926	27572
802.068	27431
802.211	27332
802.353	27302
802.496	27256
802.638	27017
802.78	27252
802.923	27119
803.065	27074
803.208	27218
803.35	27116
803.492	27203
803.635	27279
803.777	27241
803.919	27408
804.061	27747
804.204	27321
804.346	27370
804.488	27332
804.63	27325
804.773	27218
804.915	27401
805.057	27500
805.199	27412
805.341	27431
805.483	27450
805.626	27454
805.768	27370
805.91	27294
806.052	27568
806.194	27530
806.336	27698
806.478	27625
806.62	27416
806.762	27568
806.904	27762
807.046	27964
807.188	27991
807.33	27854
807.472	27937
807.614	27941
807.756	27914
807.898	27739
808.04	27743
808.182	27736
808.324	27747
808.465	27797
808.607	27895
808.749	28154
808.891	28265
809.033	28440
809.174	28291
809.316	28124
809.458	28109
809.6	28295
809.741	28314
809.883	28143
810.025	28375
810.166	28481
810.308	28455
810.45	28398
810.591	28329
810.733	28215
810.875	28158
811.016	28109
811.158	28032
811.299	28265
811.441	28310
811.582	28249
811.724	28200
811.865	28048
812.007	28147
812.148	28112
812.29	28249
812.431	28379
812.573	28386
812.714	28523
812.855	28717
812.997	28755
813.138	28877
813.279	28816
813.421	28752
813.562	28729
813.703	28531
813.845	28462
813.986	28032
814.127	27930
814.268	27675
814.41	27850
814.551	27781
814.692	28036
814.833	27827
814.974	27903
815.115	27774
815.256	27736
815.397	27797
815.539	27743
815.68	27800
815.821	27515
815.962	27652
816.103	27519
816.244	27416
816.385	27427
816.526	27321
816.666	27260
816.807	27051
816.948	27199
817.089	27294
817.23	27157
817.371	27119
817.512	27268
817.653	27062
817.793	27036
817.934	27256
818.075	27055
818.216	27093
818.356	27039
818.497	27024
818.638	26906
818.778	26918
818.919	27043
819.06	27131
819.2	27089
819.341	27104
819.481	27070
819.622	27055
819.762	27473
819.903	27427
820.043	27405
820.184	27237
820.324	27161
820.465	27329
820.605	27272
820.746	27207
820.886	27081
821.026	27241
821.167	27218
821.307	27313
821.447	27055
821.588	27104
821.728	26861
821.868	26819
822.008	26667
822.149	26549
822.289	26663
822.429	26252
822.569	26404
822.709	26332
822.849	26248
822.99	26084
823.13	26073
823.27	26252
823.41	25993
823.55	25932
823.69	26088
823.83	26001
823.97	25898
824.11	25700
824.25	25780
824.389	25811
824.529	25818
824.669	25704
824.809	25902
824.949	25791
825.089	25811
825.228	25814
825.368	25784
825.508	25620
825.648	25761
825.787	25742
825.927	25788
826.067	25639
826.206	25518
826.346	25677
826.485	25769
826.625	25670
826.765	25662
826.904	25799
827.044	25419
827.183	25476
827.323	25270
827.462	25476
827.601	25308
827.741	25346
827.88	25445
828.02	25251
828.159	25183
828.298	25415
828.437	25495
828.577	25225
828.716	25449
828.855	25255
828.994	25053
829.134	24951
829.273	25118
829.412	25034
829.551	25038
829.69	24962
829.829	25114
829.968	25091
830.107	25084
830.246	25053
830.385	25076
830.524	24962
830.663	24886
830.802	24749
830.941	24673
831.08	24760
831.219	24772
831.357	24604
831.496	24844
831.635	24646
831.774	24597
831.913	24681
832.051	24505
832.19	24388
832.329	24502
832.467	24460
832.606	24186
832.744	24304
832.883	24429
833.022	24369
833.16	24369
833.299	24445
833.437	24403
833.576	24395
833.714	24357
833.852	24330
833.991	24525
834.129	24502
834.267	24517
834.406	24418
834.544	24426
834.682	24479
834.821	24452
834.959	24536
835.097	24357
835.235	24311
835.373	24365
835.511	24273
835.65	24258
835.788	24266
835.926	24159
836.064	23901
836.202	24041
836.34	24357
836.478	24418
836.615	24201
836.753	24327
836.891	24319
837.029	24121
837.167	24190
837.305	24110
837.443	24076
837.58	23946
837.718	24068
837.856	24072
837.993	24148
838.131	24045
838.269	23912
838.406	23980
838.544	23882
838.681	23718
838.819	23691
838.956	23596
839.094	23490
839.231	23570
839.369	23726
839.506	23882
839.643	23764
839.781	23376
839.918	23429
840.055	23577
840.193	23425
840.33	23463
840.467	23391
840.604	23630
840.742	23859
840.879	23436
841.016	23398
841.153	23318
841.29	23452
841.427	23627
841.564	23398
841.701	23497
841.838	23406
841.975	23417
842.112	23520
842.249	23162
842.385	23242
842.522	23493
842.659	23273
842.796	23200
842.933	23261
843.069	23250
843.206	23094
843.343	23242
843.479	23197
843.616	23246
843.752	22900
843.889	22866
844.025	23064
844.162	22995
844.298	23048
844.435	22987
844.571	22850
844.708	23166
844.844	23132
844.98	23147
845.117	22976
845.253	22904
845.389	22904
845.525	22786
845.661	22812
845.798	22637
845.934	22752
846.07	22626
846.206	22736
846.342	22790
846.478	22790
846.614	22413
846.75	22398
846.886	22363
847.022	22546
847.158	22371
847.294	22489
847.429	22394
847.565	22333
847.701	22717
847.837	22230
847.972	22226
848.108	22150
848.244	22196
848.379	22010
848.515	22048
848.65	22002
848.786	21968
848.921	22059
849.057	22120
849.192	22154
849.328	22002
849.463	22025
849.598	22029
849.734	21888
849.869	21781
850.004	21842
850.14	21850
850.275	21720
850.41	21644
850.545	21736
850.68	21717
850.815	21698
850.95	21739
851.085	21907
851.22	21953
851.355	21789
851.49	21770
851.625	21736
851.76	21823
851.895	21671
852.03	21606
852.165	21736
852.299	21785
852.434	21873
852.569	21812
852.703	21762
852.838	21724
852.973	21926
853.107	21861
853.242	21660
853.376	21698
853.511	21481
853.645	21599
853.78	21846
853.914	21637
854.048	21466
854.183	21530
854.317	21679
854.451	21854
854.585	21667
854.72	21667
854.854	21789
854.988	21526
855.122	21583
855.256	21416
855.39	21557
855.524	21690
855.658	21713
855.792	21629
855.926	21618
856.06	21675
856.194	21625
856.327	21519
856.461	21496
856.595	21534
856.729	21614
856.862	21759
856.996	21701
857.13	21694
857.263	21766
857.397	21671
857.53	21713
857.664	21713
857.797	21568
857.931	21633
858.064	21663
858.197	21861
858.331	21637
858.464	21599
858.597	21603
858.731	21614
858.864	21644
858.997	21663
859.13	21686
859.263	21561
859.396	21652
859.529	21671
859.662	21572
859.795	21644
859.928	21656
860.061	21755
860.194	21804
860.327	21622
860.46	21572
860.592	21747
860.725	21766
860.858	21873
860.99	21580
861.123	21504
861.256	21599
861.388	21515
861.521	22367
861.653	21496
861.786	21408
861.918	21367
862.05	21534
862.183	21428
862.315	21583
862.447	21667
862.58	21485
862.712	21264
862.844	21355
862.976	21374
863.108	21374
863.24	21835
863.372	21195
863.504	21310
863.636	21386
863.768	21389
863.9	21306
864.032	21268
864.164	21393
864.296	21302
864.428	21545
864.559	21393
864.691	21367
864.823	21268
864.954	21329
865.086	21401
865.217	21226
865.349	21214
865.48	21226
865.612	21245
865.743	21416
865.875	21218
866.006	21180
866.137	21214
866.269	21184
866.4	21173
866.531	21123
866.662	21066
866.793	21230
866.924	21192
867.055	21135
867.186	21142
867.317	21173
867.448	21055
867.579	21051
867.71	21123
867.841	21017
867.972	21184
868.103	21112
868.233	21127
868.364	21127
868.495	21157
868.625	21359
868.756	21408
868.886	21310
869.017	21462
869.147	21564
869.278	21523
869.408	21397
869.539	21408
869.669	21408
869.799	21348
869.929	21561
870.06	21420
870.19	21759
870.32	21675
870.45	21679
870.58	21846
870.71	21937
870.84	21812
870.97	21823
871.1	21781
871.23	21979
871.36	22010
871.489	21846
871.619	21823
871.749	22040
871.879	21991
872.008	22067
872.138	21922
872.267	22025
872.397	21819
872.526	21819
872.656	21842
872.785	21831
872.915	22040
873.044	22070
873.173	22010
873.303	22120
873.432	21998
873.561	22120
873.69	22021
873.819	22101
873.948	22177
874.077	21926
874.206	21945
874.335	21975
874.464	22086
874.593	22253
874.722	22226
874.851	22367
874.979	22162
875.108	22185
875.237	22226
875.365	22219
875.494	22287
875.623	22185
875.751	22173
875.88	22265
876.008	22322
876.136	22322
876.265	22630
876.393	22786
876.521	22630
876.65	22675
876.778	22512
876.906	22489
877.034	22440
877.162	22675
877.29	22493
877.418	22538
877.546	22573
877.674	22542
877.802	22504
877.93	22550
878.058	22538
878.185	22485
878.313	22531
878.441	22527
878.568	22367
878.696	22592
878.824	22611
878.951	22733
879.079	22618
879.206	22824
879.333	22767
879.461	22531
879.588	22607
879.715	22683
879.842	22866
879.97	22584
880.097	22352
880.224	22318
880.351	22459
880.478	22356
880.605	22306
880.732	22344
880.859	22500
880.986	22421
881.112	22466
881.239	22272
881.366	22070
881.493	22147
881.619	21846
881.746	21918
881.872	22044
881.999	22006
882.125	21956
882.252	21968
882.378	21972
882.505	22109
882.631	21838
882.757	21781
882.883	21724
883.01	21648
883.136	21519
883.262	21542
883.388	21405
883.514	21698
883.64	21682
883.766	21583
883.892	21443
884.018	21378
884.143	21625
884.269	21660
884.395	21428
884.52	21264
884.646	21298
884.772	21150
884.897	21176
885.023	21321
885.148	21363
885.274	21435
885.399	21458
885.524	21214
885.65	21344
885.775	21252
885.9	21268
886.025	21294
886.15	21389
886.275	21218
886.4	21142
886.525	21237
886.65	21279
886.775	21146
886.9	21298
887.025	21420
887.149	21241
887.274	21081
887.399	21214
887.523	21085
887.648	21089
887.773	20956
887.897	21051
888.021	21074
888.146	21009
888.27	21142
888.395	21013
888.519	21192
888.643	21077
888.767	21127
888.891	20887
889.015	20864
889.139	20921
889.263	20830
889.387	20952
889.511	21108
889.635	20899
889.759	20762
889.883	20861
890.006	20796
890.13	20830
890.254	20849
890.377	20826
890.501	20659
890.624	20583
890.748	20609
890.871	20511
890.995	20412
891.118	20347
891.241	20507
891.364	20469
891.488	20381
891.611	20503
891.734	20423
891.857	20381
891.98	20499
892.103	20484
892.226	20469
892.349	20495
892.471	20214
892.594	20248
892.717	20412
892.839	20400
892.962	20389
893.085	20404
893.207	20263
893.33	20210
893.452	20183
893.575	20309
893.697	20332
893.819	20419
893.941	20583
894.064	20347
894.186	20259
894.308	20252
894.43	20393
894.552	20419
894.674	20412
894.796	20374
894.918	20320
895.04	20328
895.161	20309
895.283	20438
895.405	20282
895.526	20164
895.648	20298
895.769	20438
895.891	20332
896.012	20438
896.134	20385
896.255	20142
896.376	20336
896.498	20244
896.619	20351
896.74	20256
896.861	20355
896.982	20697
897.103	20705
897.224	20571
897.345	20575
897.466	20408
897.587	20594
897.708	20682
897.828	20552
897.949	20518
898.07	20339
898.19	20484
898.311	20571
898.431	20431
898.552	20423
898.672	20518
898.792	20590
898.913	20556
899.033	20469
899.153	20355
899.273	20298
899.393	20343
899.513	20385
899.633	20389
899.753	20298
899.873	20328
899.993	20271
900.113	20134
900.232	20294
900.352	20138
900.472	20081
900.591	20046
900.711	20115
900.83	20035
900.95	20069
901.069	20096
901.189	20024
901.308	19852
901.427	19693
901.546	19655
901.665	19647
901.784	19597
901.904	19628
902.023	19449
902.141	19232
902.26	19259
902.379	19187
902.498	19137
902.617	19171
902.735	19198
902.854	19240
902.973	19038
903.091	18905
903.21	18764
903.328	18806
903.446	18844
903.565	18642
903.683	18635
903.801	18498
903.919	18578
904.038	18585
904.156	18509
904.274	18509
904.392	18330
904.51	18388
904.627	18395
904.745	18369
904.863	18437
904.981	18121
905.098	18064
905.216	18110
905.334	17977
905.451	17927
905.569	17927
905.686	18015
905.803	17927
905.921	17843
906.038	17992
906.155	17923
906.272	17630
906.389	17832
906.506	17619
906.623	17562
906.74	17592
906.857	17482
906.974	17452
907.091	17627
907.208	17627
907.324	17589
907.441	17501
907.557	17277
907.674	17318
907.79	17269
907.907	17288
908.023	17280
908.139	17303
908.256	17197
908.372	17208
908.488	17197
908.604	17140
908.72	17033
908.836	17083
908.952	17056
909.068	17014
909.184	17102
909.3	17025
909.415	17048
909.531	16980
909.647	16740
909.762	16759
909.878	16847
909.993	16713
910.108	16713
910.224	16694
910.339	16702
910.454	16470
910.57	16493
910.685	16424
910.8	16763
910.915	16596
911.03	16497
911.145	16310
911.259	16086
911.374	16303
911.489	16196
911.604	16162
911.718	15972
911.833	16013
911.947	16055
912.062	15964
912.176	15953
912.291	16196
912.405	16128
912.519	16280
912.633	16329
912.748	16090
912.862	16067
912.976	15918
913.09	15770
913.204	15835
913.318	15808
913.431	15983
913.545	15873
913.659	15960
913.772	15842
913.886	15732
914	15637
914.113	15800
914.226	15785
914.34	15610
914.453	15542
914.566	15682
914.68	15622
914.793	15545
914.906	15431
915.019	15344
915.132	15192
915.245	15317
915.358	15237
915.47	15336
915.583	15348
915.696	15355
915.809	15397
915.921	15340
916.034	15226
916.146	15195
916.259	15245
916.371	15199
916.483	15241
916.595	15146
916.708	15077
916.82	15127
916.932	15169
917.044	15043
917.156	15028
917.268	14906
917.38	14963
917.491	14960
917.603	14971
917.715	14990
917.826	15074
917.938	14880
918.049	14785
918.161	14883
918.272	15005
918.384	14933
918.495	14921
918.606	14686
918.717	14636
918.828	14674
918.939	14705
919.05	14613
919.161	14667
919.272	14465
919.383	14514
919.494	14731
919.604	14838
919.715	14739
919.826	14556
919.936	14625
920.047	14651
920.157	14674
920.267	14849
920.378	14659
920.488	14556
920.598	14872
920.708	14963
920.818	14838
920.928	14697
921.038	14967
921.148	14952
921.258	14590
921.368	14457
921.477	14412
921.587	14362
921.697	14233
921.806	14343
921.916	14229
922.025	14115
922.134	14027
922.244	13940
922.353	14062
922.462	13909
922.571	13818
922.68	13609
922.789	13586
922.898	13658
923.007	13605
923.116	13715
923.224	13647
923.333	13609
923.442	13575
923.55	13400
923.659	13510
923.767	13575
923.876	13365
923.984	13529
924.092	13430
924.201	13445
924.309	13362
924.417	13388
924.525	13301
924.633	13350
924.741	14286
924.849	13149
924.956	13228
925.064	13152
925.172	12954
925.279	13156
925.387	13110
925.494	13038
925.602	13179
925.709	13179
925.816	12985
925.924	13034
926.031	13126
926.138	13057
926.245	13072
926.352	12905
926.459	13103
926.566	13107
926.673	12993
926.779	12814
926.886	12795
926.993	12631
927.099	12639
927.206	12555
927.312	12547
927.419	12646
927.525	12620
927.631	12536
927.737	12540
927.843	12486
927.95	12372
928.056	12441
928.162	12483
928.267	12403
928.373	13133
928.479	12540
928.585	12357
928.69	12319
928.796	12460
928.901	12304
929.007	12178
929.112	12311
929.218	12273
929.323	12148
929.428	12251
929.533	12296
929.638	12102
929.743	12197
929.848	12129
929.953	12148
930.058	12083
930.163	11939
930.267	11836
930.372	12011
930.477	11752
930.581	12030
930.685	11885
930.79	11726
930.894	11783
930.998	11794
931.103	11863
931.207	11539
931.311	11433
931.415	11410
931.519	11151
931.623	11136
