Data from test_V78500241_1381.txt Node
Date: Fri Mar 25 15:51:22 CST 2022
User: usil
Spectrometer: V785-0024
Trigger mode: 0
Integration Time (sec): 4.000000E-1
Scans to average: 1
Nonlinearity correction enabled: false
Boxcar width: 0
Storing dark spectrum: false
XAxis mode: Wavelengths
Number of Pixels in Spectrum: 1024
>>>>>Begin Spectral Data<<<<<
801.071	27241
801.214	27252
801.356	26975
801.499	27028
801.641	26853
801.783	26834
801.926	26823
802.068	26701
802.211	26594
802.353	26659
802.496	26431
802.638	26488
802.78	26229
802.923	26442
803.065	26457
803.208	26419
803.35	26377
803.492	26526
803.635	26484
803.777	26495
803.919	26518
804.061	26918
804.204	26788
804.346	26613
804.488	26545
804.63	26560
804.773	26575
804.915	26705
805.057	26708
805.199	26602
805.341	26602
805.483	26762
805.626	26697
805.768	26606
805.91	26781
806.052	26697
806.194	26530
806.336	26769
806.478	26727
806.62	26674
806.762	26853
806.904	27070
807.046	27157
807.188	27127
807.33	27100
807.472	27161
807.614	27043
807.756	27077
807.898	26876
808.04	26982
808.182	27047
808.324	27096
808.465	27062
808.607	27211
808.749	27378
808.891	27401
809.033	27519
809.174	27500
809.316	27211
809.458	27351
809.6	27329
809.741	27473
809.883	27595
810.025	27580
810.166	27633
810.308	27622
810.45	27587
810.591	27435
810.733	27252
810.875	27344
811.016	27169
811.158	27268
811.299	27317
811.441	27553
811.582	27523
811.724	27264
811.865	27275
812.007	27192
812.148	27169
812.29	27279
812.431	27469
812.573	27618
812.714	27762
812.855	27800
812.997	27899
813.138	28055
813.279	27876
813.421	27880
813.562	27778
813.703	27644
813.845	27553
813.986	27237
814.127	26948
814.268	26998
814.41	27074
814.551	26944
814.692	27089
814.833	26921
814.974	26979
815.115	26979
815.256	26872
815.397	26891
815.539	26853
815.68	26796
815.821	26636
815.962	26724
816.103	26667
816.244	26507
816.385	26457
816.526	26484
816.666	26389
816.807	26035
816.948	26309
817.089	26476
817.23	26275
817.371	26221
817.512	26275
817.653	26206
817.793	26218
817.934	26282
818.075	26275
818.216	26199
818.356	26081
818.497	26096
818.638	26035
818.778	25997
818.919	26077
819.06	26119
819.2	26149
819.341	26153
819.481	26252
819.622	26263
819.762	26457
819.903	26423
820.043	26480
820.184	26355
820.324	26229
820.465	26446
820.605	26358
820.746	26248
820.886	26202
821.026	26278
821.167	26221
821.307	26347
821.447	26282
821.588	26214
821.728	25906
821.868	25917
822.008	25761
822.149	25635
822.289	25769
822.429	25613
822.569	25278
822.709	25449
822.849	25206
822.99	25194
823.13	25270
823.27	25187
823.41	25008
823.55	24951
823.69	24996
823.83	25076
823.97	24973
824.11	24795
824.25	24875
824.389	24833
824.529	24973
824.669	24863
824.809	24901
824.949	25061
825.089	24901
825.228	24875
825.368	24757
825.508	24654
825.648	24631
825.787	24768
825.927	24757
826.067	24665
826.206	24738
826.346	24779
826.485	24616
826.625	24521
826.765	24696
826.904	24791
827.044	24483
827.183	24498
827.323	24330
827.462	24479
827.601	24308
827.741	24380
827.88	24426
828.02	24216
828.159	24319
828.298	24437
828.437	24551
828.577	24315
828.716	24467
828.855	24315
828.994	24190
829.134	24186
829.273	24155
829.412	24083
829.551	24064
829.69	24022
829.829	24174
829.968	24213
830.107	24197
830.246	24228
830.385	24068
830.524	24007
830.663	23973
830.802	23836
830.941	23668
831.08	23577
831.219	23813
831.357	23771
831.496	23908
831.635	23570
831.774	23581
831.913	23543
832.051	23493
832.19	23611
832.329	23539
832.467	23318
832.606	23296
832.744	23284
832.883	23254
833.022	23410
833.16	23364
833.299	23509
833.437	23395
833.576	23471
833.714	23512
833.852	23440
833.991	23448
834.129	23535
834.267	23391
834.406	23440
834.544	23425
834.682	23486
834.821	23398
834.959	23592
835.097	23425
835.235	23524
835.373	23410
835.511	23410
835.65	23322
835.788	23315
835.926	23147
836.064	23052
836.202	23124
836.34	23261
836.478	23376
836.615	23189
836.753	23349
836.891	23330
837.029	23334
837.167	23235
837.305	23185
837.443	23200
837.58	23174
837.718	23204
837.856	23200
837.993	22980
838.131	23140
838.269	23003
838.406	23006
838.544	23056
838.681	22687
838.819	22786
838.956	22535
839.094	22577
839.231	22561
839.369	22805
839.506	22949
839.643	22854
839.781	22672
839.918	22527
840.055	22569
840.193	22573
840.33	22500
840.467	22493
840.604	22512
840.742	22771
840.879	22310
841.016	22443
841.153	22318
841.29	22649
841.427	22512
841.564	22588
841.701	22573
841.838	22375
841.975	22356
842.112	22394
842.249	22379
842.385	22257
842.522	22596
842.659	22344
842.796	22341
842.933	22341
843.069	22109
843.206	22303
843.343	22390
843.479	22234
843.616	22348
843.752	22109
843.889	22101
844.025	22261
844.162	22055
844.298	22204
844.435	22124
844.571	21953
844.708	22173
844.844	22261
844.98	22192
845.117	22070
845.253	21892
845.389	21861
845.525	21994
845.661	21854
845.798	21869
845.934	21861
846.07	21709
846.206	21717
846.342	21899
846.478	21838
846.614	21663
846.75	21469
846.886	21355
847.022	21576
847.158	21553
847.294	21576
847.429	21572
847.565	21538
847.701	21781
847.837	21313
847.972	21256
848.108	21401
848.244	21405
848.379	21344
848.515	21268
848.65	21093
848.786	21256
848.921	21100
849.057	21195
849.192	21310
849.328	21165
849.463	21176
849.598	21093
849.734	20883
849.869	21047
850.004	20876
850.14	21062
850.275	20853
850.41	20906
850.545	20868
850.68	20891
850.815	20861
850.95	21024
851.085	21112
851.22	21028
851.355	21001
851.49	21005
851.625	20861
851.76	20963
851.895	20811
852.03	20743
852.165	20925
852.299	21036
852.434	20952
852.569	20990
852.703	20895
852.838	20941
852.973	21013
853.107	21077
853.242	20887
853.376	20811
853.511	20674
853.645	20686
853.78	20823
853.914	20678
854.048	20773
854.183	20727
854.317	20754
854.451	20979
854.585	20834
854.72	20781
854.854	20918
854.988	20598
855.122	20781
855.256	20598
855.39	20720
855.524	20819
855.658	20777
855.792	20762
855.926	20727
856.06	20876
856.194	20823
856.327	20594
856.461	20670
856.595	20720
856.729	20773
856.862	20750
856.996	20880
857.13	20804
857.263	20929
857.397	20804
857.53	20686
857.664	20682
857.797	20773
857.931	20800
858.064	20735
858.197	20838
858.331	20708
858.464	20686
858.597	20632
858.731	20701
858.864	20663
858.997	20621
859.13	20720
859.263	20769
859.396	20921
859.529	20708
859.662	20754
859.795	20678
859.928	20769
860.061	20941
860.194	20952
860.327	20849
860.46	20857
860.592	20868
860.725	20807
860.858	20845
860.99	20716
861.123	20625
861.256	20621
861.388	20697
861.521	21332
861.653	20705
861.786	20560
861.918	20617
862.05	20606
862.183	20609
862.315	20762
862.447	20811
862.58	20697
862.712	20442
862.844	20332
862.976	20446
863.108	20571
863.24	20941
863.372	20434
863.504	20461
863.636	20450
863.768	20530
863.9	20309
864.032	20252
864.164	20328
864.296	20446
864.428	20545
864.559	20511
864.691	20568
864.823	20480
864.954	20469
865.086	20412
865.217	20514
865.349	20183
865.48	20419
865.612	20381
865.743	20590
865.875	20393
866.006	20374
866.137	20385
866.269	20549
866.4	20381
866.531	20248
866.662	20259
866.793	20301
866.924	20275
867.055	20336
867.186	20408
867.317	20195
867.448	20259
867.579	20259
867.71	20252
867.841	20290
867.972	20336
868.103	20229
868.233	20298
868.364	20244
868.495	20393
868.625	20564
868.756	20731
868.886	20461
869.017	20507
869.147	20640
869.278	20674
869.408	20644
869.539	20613
869.669	20579
869.799	20648
869.929	20640
870.06	20762
870.19	20876
870.32	20857
870.45	20883
870.58	20853
870.71	21036
870.84	21116
870.97	20849
871.1	20975
871.23	21100
871.36	21272
871.489	21062
871.619	21173
871.749	21154
871.879	21161
872.008	21287
872.138	21161
872.267	21161
872.397	21081
872.526	20910
872.656	20963
872.785	20982
872.915	21116
873.044	21173
873.173	21165
873.303	21104
873.432	21222
873.561	21214
873.69	21275
873.819	21146
873.948	21272
874.077	21283
874.206	21150
874.335	21230
874.464	21302
874.593	21344
874.722	21367
874.851	21469
874.979	21538
875.108	21523
875.237	21351
875.365	21298
875.494	21412
875.623	21507
875.751	21370
875.88	21458
876.008	21526
876.136	21663
876.265	21823
876.393	21991
876.521	21861
876.65	21945
876.778	21755
876.906	21770
877.034	21720
877.162	21816
877.29	21736
877.418	21781
877.546	21675
877.674	21747
877.802	21671
877.93	21698
878.058	21739
878.185	21564
878.313	21622
878.441	21808
878.568	21564
878.696	21652
878.824	21732
878.951	21751
879.079	21899
879.206	21937
879.333	22051
879.461	21717
879.588	21895
879.715	21915
879.842	22025
879.97	21800
880.097	21614
880.224	21667
880.351	21648
880.478	21652
880.605	21549
880.732	21724
880.859	21812
880.986	21675
881.112	21595
881.239	21469
881.366	21332
881.493	21195
881.619	21260
881.746	21176
881.872	21157
881.999	21195
882.125	21047
882.252	21074
882.378	21218
882.505	21344
882.631	21066
882.757	20906
882.883	20975
883.01	20944
883.136	20689
883.262	20686
883.388	20731
883.514	20914
883.64	20864
883.766	20880
883.892	20632
884.018	20571
884.143	20857
884.269	20849
884.395	20564
884.52	20514
884.646	20632
884.772	20503
884.897	20446
885.023	20499
885.148	20648
885.274	20758
885.399	20617
885.524	20507
885.65	20583
885.775	20549
885.9	20507
886.025	20568
886.15	20564
886.275	20480
886.4	20507
886.525	20499
886.65	20358
886.775	20366
886.9	20602
887.025	20765
887.149	20457
887.274	20259
887.399	20225
887.523	20256
887.648	20301
887.773	20225
887.897	20362
888.021	20320
888.146	20263
888.27	20396
888.395	20434
888.519	20328
888.643	20332
888.767	20317
888.891	20275
889.015	20084
889.139	20161
889.263	20043
889.387	20168
889.511	20457
889.635	20229
889.759	20081
889.883	20065
890.006	20191
890.13	20176
890.254	19986
890.377	19947
890.501	19818
890.624	19955
890.748	19913
890.871	19841
890.995	19540
891.118	19559
891.241	19628
891.364	19750
891.488	19765
891.611	19826
891.734	19734
891.857	19681
891.98	19696
892.103	19791
892.226	19681
892.349	19632
892.471	19518
892.594	19609
892.717	19575
892.839	19609
892.962	19601
893.085	19651
893.207	19620
893.33	19590
893.452	19514
893.575	19643
893.697	19635
893.819	19837
893.941	19795
894.064	19734
894.186	19495
894.308	19548
894.43	19620
894.552	19780
894.674	19734
894.796	19540
894.918	19514
895.04	19502
895.161	19552
895.283	19822
895.405	19525
895.526	19639
895.648	19670
895.769	19609
895.891	19681
896.012	19696
896.134	19685
896.255	19601
896.376	19571
896.498	19586
896.619	19590
896.74	19666
896.861	19780
896.982	19951
897.103	20096
897.224	19742
897.345	19761
897.466	19769
897.587	19864
897.708	19982
897.828	19803
897.949	19784
898.07	19822
898.19	19772
898.311	19902
898.431	19712
898.552	19875
898.672	19909
898.792	19898
898.913	19852
899.033	19685
899.153	19655
899.273	19506
899.393	19540
899.513	19643
899.633	19559
899.753	19696
899.873	19643
899.993	19651
900.113	19544
900.232	19548
900.352	19651
900.472	19556
900.591	19358
900.711	19441
900.83	19449
900.95	19449
901.069	19487
901.189	19316
901.308	19103
901.427	19091
901.546	19038
901.665	19027
901.784	18958
901.904	18958
902.023	18886
902.141	18665
902.26	18555
902.379	18696
902.498	18547
902.617	18346
902.735	18604
902.854	18407
902.973	18471
903.091	18254
903.21	18136
903.328	18228
903.446	18163
903.565	17931
903.683	18007
903.801	17931
903.919	18030
904.038	17859
904.156	17764
904.274	17752
904.392	17653
904.51	17767
904.627	17710
904.745	17718
904.863	17760
904.981	17543
905.098	17505
905.216	17459
905.334	17356
905.451	17482
905.569	17353
905.686	17421
905.803	17372
905.921	17220
906.038	17364
906.155	17181
906.272	17162
906.389	17204
906.506	16965
906.623	17014
906.74	16976
906.857	16900
906.974	16919
907.091	16976
907.208	17124
907.324	17014
907.441	16831
907.557	16793
907.674	16672
907.79	16668
907.907	16634
908.023	16599
908.139	16698
908.256	16706
908.372	16675
908.488	16615
908.604	16523
908.72	16356
908.836	16413
908.952	16272
909.068	16360
909.184	16432
909.3	16474
909.415	16341
909.531	16512
909.647	16131
909.762	16234
909.878	16082
909.993	16059
910.108	16097
910.224	16013
910.339	16063
910.454	16143
910.57	16021
910.685	15926
910.8	16055
910.915	16006
911.03	15831
911.145	15743
911.259	15739
911.374	15770
911.489	15641
911.604	15599
911.718	15488
911.833	15523
911.947	15317
912.062	15382
912.176	15408
912.291	15431
912.405	15416
912.519	15660
912.633	15584
912.748	15485
912.862	15435
912.976	15275
913.09	15146
913.204	15207
913.318	15260
913.431	15458
913.545	15310
913.659	15321
913.772	15207
913.886	15108
914	15070
914.113	15207
914.226	15199
914.34	15157
914.453	14990
914.566	15119
914.68	15097
914.793	14960
914.906	14792
915.019	14648
915.132	14651
915.245	14712
915.358	14762
915.47	14735
915.583	14750
915.696	14724
915.809	14842
915.921	14864
916.034	14705
916.146	14670
916.259	14537
916.371	14629
916.483	14571
916.595	14526
916.708	14484
916.82	14533
916.932	14503
917.044	14583
917.156	14431
917.268	14358
917.38	14446
917.491	14492
917.603	14381
917.715	14446
917.826	14476
917.938	14294
918.049	14176
918.161	14374
918.272	14537
918.384	14442
918.495	14362
918.606	14145
918.717	14214
918.828	14229
918.939	14218
919.05	14046
919.161	14119
919.272	13921
919.383	14016
919.494	14347
919.604	14324
919.715	14164
919.826	14172
919.936	14168
920.047	14267
920.157	14164
920.267	14347
920.378	14134
920.488	14050
920.598	14476
920.708	14469
920.818	14286
920.928	14259
921.038	14469
921.148	14465
921.258	14130
921.368	13947
921.477	13921
921.587	13932
921.697	13837
921.806	13902
921.916	13845
922.025	13670
922.134	13605
922.244	13468
922.353	13616
922.462	13377
922.571	13407
922.68	13225
922.789	13266
922.898	13107
923.007	13160
923.116	13190
923.224	13141
923.333	13228
923.442	13126
923.55	13019
923.659	13008
923.767	13122
923.876	13004
923.984	13091
924.092	12928
924.201	12958
924.309	12954
924.417	12962
924.525	12871
924.633	12852
924.741	13799
924.849	12631
924.956	12806
925.064	12681
925.172	12559
925.279	12608
925.387	12825
925.494	12563
925.602	12764
925.709	12646
925.816	12532
925.924	12654
926.031	12665
926.138	12597
926.245	12635
926.352	12410
926.459	12608
926.566	12612
926.673	12494
926.779	12395
926.886	12289
926.993	12300
927.099	12254
927.206	12144
927.312	12163
927.419	12186
927.525	12262
927.631	12220
927.737	12041
927.843	12053
927.95	11923
928.056	12030
928.162	11969
928.267	12133
928.373	12654
928.479	12106
928.585	11870
928.69	12003
928.796	11980
928.901	11942
929.007	11760
929.112	11908
929.218	11973
929.323	11802
929.428	11786
929.533	11847
929.638	11722
929.743	11680
929.848	11703
929.953	11748
930.058	11638
930.163	11364
930.267	11383
930.372	11570
930.477	11296
930.581	11684
930.685	11436
930.79	11402
930.894	11429
930.998	11353
931.103	11463
931.207	11052
931.311	11037
931.415	10961
931.519	10755
931.623	10755
