Data from test_V78500241_1880.txt Node
Date: Fri Mar 25 15:54:49 CST 2022
User: usil
Spectrometer: V785-0024
Trigger mode: 0
Integration Time (sec): 4.000000E-1
Scans to average: 1
Nonlinearity correction enabled: false
Boxcar width: 0
Storing dark spectrum: false
XAxis mode: Wavelengths
Number of Pixels in Spectrum: 1024
>>>>>Begin Spectral Data<<<<<
801.071	28390
801.214	28238
801.356	27979
801.499	28006
801.641	27816
801.783	27823
801.926	27941
802.068	27831
802.211	27854
802.353	27842
802.496	27580
802.638	27591
802.78	27568
802.923	27526
803.065	27412
803.208	27530
803.35	27564
803.492	27709
803.635	27713
803.777	27599
803.919	27774
804.061	28067
804.204	27835
804.346	27895
804.488	27747
804.63	27682
804.773	27785
804.915	27759
805.057	28002
805.199	27854
805.341	27857
805.483	27994
805.626	27861
805.768	27903
805.91	27846
806.052	28059
806.194	27964
806.336	28196
806.478	27960
806.62	27968
806.762	28082
806.904	28112
807.046	28440
807.188	28386
807.33	28284
807.472	28459
807.614	28421
807.756	28367
807.898	28181
808.04	28268
808.182	28261
808.324	28097
808.465	28268
808.607	28428
808.749	28523
808.891	28596
809.033	28725
809.174	28767
809.316	28596
809.458	28607
809.6	28500
809.741	28645
809.883	28664
810.025	28748
810.166	28843
810.308	28805
810.45	28881
810.591	28706
810.733	28778
810.875	28630
811.016	28474
811.158	28447
811.299	28694
811.441	28946
811.582	28824
811.724	28630
811.865	28618
812.007	28599
812.148	28580
812.29	28546
812.431	28592
812.573	28949
812.714	28896
812.855	28991
812.997	29280
813.138	29284
813.279	29280
813.421	29041
813.562	29162
813.703	28934
813.845	28946
813.986	28508
814.127	28413
814.268	28344
814.41	28360
814.551	28360
814.692	28417
814.833	28207
814.974	28192
815.115	28341
815.256	28261
815.397	28162
815.539	28249
815.68	28131
815.821	27873
815.962	28093
816.103	28173
816.244	27888
816.385	27895
816.526	27797
816.666	27728
816.807	27564
816.948	27622
817.089	27675
817.23	27709
817.371	27633
817.512	27603
817.653	27568
817.793	27576
817.934	27595
818.075	27580
818.216	27610
818.356	27408
818.497	27435
818.638	27272
818.778	27275
818.919	27237
819.06	27378
819.2	27576
819.341	27534
819.481	27557
819.622	27629
819.762	27884
819.903	27797
820.043	27667
820.184	27690
820.324	27755
820.465	27781
820.605	27698
820.746	27743
820.886	27572
821.026	27724
821.167	27599
821.307	27778
821.447	27667
821.588	27568
821.728	27447
821.868	27256
822.008	27062
822.149	27036
822.289	27131
822.429	26933
822.569	26689
822.709	26739
822.849	26568
822.99	26568
823.13	26686
823.27	26450
823.41	26313
823.55	26263
823.69	26278
823.83	26473
823.97	26317
824.11	26218
824.25	26168
824.389	26225
824.529	26317
824.669	26271
824.809	26313
824.949	26389
825.089	26301
825.228	26252
825.368	25959
825.508	26043
825.648	26100
825.787	26138
825.927	26229
826.067	26035
826.206	26164
826.346	26134
826.485	26081
826.625	25951
826.765	26381
826.904	26126
827.044	25830
827.183	25814
827.323	25662
827.462	25761
827.601	25898
827.741	25765
827.88	25784
828.02	25689
828.159	25715
828.298	25837
828.437	25887
828.577	25616
828.716	25830
828.855	25731
828.994	25464
829.134	25453
829.273	25601
829.412	25487
829.551	25499
829.69	25525
829.829	25457
829.968	25499
830.107	25537
830.246	25597
830.385	25339
830.524	25354
830.663	25209
830.802	25263
830.941	24996
831.08	25072
831.219	25137
831.357	25027
831.496	25327
831.635	25038
831.774	24989
831.913	24905
832.051	24867
832.19	24856
832.329	24837
832.467	24764
832.606	24715
832.744	24658
832.883	24696
833.022	24734
833.16	24681
833.299	24810
833.437	24749
833.576	24795
833.714	24897
833.852	24711
833.991	24966
834.129	24863
834.267	24985
834.406	24871
834.544	24787
834.682	24886
834.821	24798
834.959	25053
835.097	24772
835.235	24916
835.373	24825
835.511	24897
835.65	24684
835.788	24639
835.926	24639
836.064	24464
836.202	24547
836.34	24779
836.478	24795
836.615	24616
836.753	24696
836.891	24658
837.029	24711
837.167	24684
837.305	24585
837.443	24513
837.58	24433
837.718	24517
837.856	24570
837.993	24498
838.131	24365
838.269	24315
838.406	24437
838.544	24239
838.681	24289
838.819	24064
838.956	23889
839.094	23885
839.231	23889
839.369	24114
839.506	24247
839.643	24254
839.781	23893
839.918	23870
840.055	23977
840.193	23851
840.33	23809
840.467	23904
840.604	23950
840.742	23992
840.879	23668
841.016	23828
841.153	23821
841.29	23950
841.427	23703
841.564	23824
841.701	23722
841.838	23824
841.975	23741
842.112	23745
842.249	23611
842.385	23577
842.522	23786
842.659	23737
842.796	23531
842.933	23573
843.069	23512
843.206	23611
843.343	23733
843.479	23634
843.616	23520
843.752	23360
843.889	23448
844.025	23471
844.162	23280
844.298	23543
844.435	23459
844.571	23421
844.708	23493
844.844	23436
844.98	23665
845.117	23414
845.253	23299
845.389	23273
845.525	23239
845.661	23200
845.798	23124
845.934	23208
846.07	23018
846.206	23098
846.342	23277
846.478	22991
846.614	23094
846.75	22965
846.886	22862
847.022	22904
847.158	22828
847.294	22778
847.429	22854
847.565	22713
847.701	23033
847.837	22497
847.972	22402
848.108	22554
848.244	22588
848.379	22489
848.515	22447
848.65	22367
848.786	22451
848.921	22375
849.057	22550
849.192	22436
849.328	22497
849.463	22428
849.598	22257
849.734	22230
849.869	22268
850.004	22185
850.14	22265
850.275	22192
850.41	22116
850.545	22109
850.68	22166
850.815	22147
850.95	22173
851.085	22318
851.22	22333
851.355	22207
851.49	22120
851.625	22158
851.76	22223
851.895	22048
852.03	22173
852.165	22226
852.299	22280
852.434	22348
852.569	22314
852.703	22188
852.838	22166
852.973	22204
853.107	22299
853.242	22013
853.376	22040
853.511	21991
853.645	22002
853.78	22226
853.914	22059
854.048	21850
854.183	22036
854.317	21964
854.451	22207
854.585	21960
854.72	21941
854.854	22135
854.988	21937
855.122	21918
855.256	21835
855.39	22021
855.524	22013
855.658	22044
855.792	21983
855.926	21949
856.06	21960
856.194	22059
856.327	21911
856.461	21968
856.595	21903
856.729	22112
856.862	22128
856.996	22013
857.13	22021
857.263	22131
857.397	22082
857.53	22002
857.664	22112
857.797	22112
857.931	22074
858.064	21911
858.197	22139
858.331	22036
858.464	21903
858.597	21861
858.731	21930
858.864	22021
858.997	22017
859.13	22154
859.263	21960
859.396	22067
859.529	21937
859.662	21918
859.795	21949
859.928	22059
860.061	22158
860.194	22200
860.327	22021
860.46	22051
860.592	22109
860.725	22204
860.858	22192
860.99	22090
861.123	21915
861.256	21934
861.388	22010
861.521	22797
861.653	21899
861.786	21724
861.918	21869
862.05	21895
862.183	21835
862.315	21991
862.447	22029
862.58	21972
862.712	21515
862.844	21770
862.976	21778
863.108	21739
863.24	22162
863.372	21709
863.504	21774
863.636	21622
863.768	21747
863.9	21755
864.032	21641
864.164	21542
864.296	21759
864.428	21728
864.559	21641
864.691	21846
864.823	21736
864.954	21728
865.086	21751
865.217	21625
865.349	21496
865.48	21545
865.612	21671
865.743	21774
865.875	21663
866.006	21622
866.137	21576
866.269	21557
866.4	21587
866.531	21530
866.662	21370
866.793	21450
866.924	21557
867.055	21583
867.186	21549
867.317	21557
867.448	21439
867.579	21500
867.71	21416
867.841	21466
867.972	21416
868.103	21492
868.233	21538
868.364	21549
868.495	21739
868.625	21797
868.756	21694
868.886	21751
869.017	21865
869.147	21953
869.278	21854
869.408	21930
869.539	21793
869.669	21797
869.799	21857
869.929	21861
870.06	21926
870.19	22135
870.32	22086
870.45	22055
870.58	22211
870.71	22303
870.84	22367
870.97	22196
871.1	22147
871.23	22360
871.36	22356
871.489	22318
871.619	22303
871.749	22280
871.879	22417
872.008	22500
872.138	22379
872.267	22428
872.397	22238
872.526	22086
872.656	22314
872.785	22158
872.915	22462
873.044	22535
873.173	22379
873.303	22394
873.432	22440
873.561	22527
873.69	22474
873.819	22417
873.948	22466
874.077	22424
874.206	22318
874.335	22447
874.464	22550
874.593	22634
874.722	22508
874.851	22672
874.979	22733
875.108	22618
875.237	22565
875.365	22459
875.494	22565
875.623	22679
875.751	22523
875.88	22592
876.008	22759
876.136	22850
876.265	23006
876.393	23143
876.521	23083
876.65	23098
876.778	23079
876.906	22881
877.034	22987
877.162	22862
877.29	22877
877.418	22953
877.546	22942
877.674	22885
877.802	22839
877.93	22858
878.058	22904
878.185	22755
878.313	22866
878.441	22968
878.568	22869
878.696	22923
878.824	22961
878.951	22965
879.079	23075
879.206	23334
879.333	23003
879.461	23029
879.588	22957
879.715	23151
879.842	23109
879.97	23086
880.097	22691
880.224	22752
880.351	22824
880.478	22877
880.605	22607
880.732	22672
880.859	23102
880.986	22889
881.112	22736
881.239	22653
881.366	22512
881.493	22531
881.619	22413
881.746	22409
881.872	22325
881.999	22276
882.125	22268
882.252	22424
882.378	22329
882.505	22322
882.631	22207
882.757	22059
882.883	21987
883.01	21994
883.136	21998
883.262	21949
883.388	21831
883.514	21979
883.64	22067
883.766	21945
883.892	21739
884.018	21941
884.143	22059
884.269	22082
884.395	21816
884.52	21587
884.646	21679
884.772	21663
884.897	21591
885.023	21553
885.148	21759
885.274	21713
885.399	21774
885.524	21587
885.65	21743
885.775	21587
885.9	21610
886.025	21793
886.15	21751
886.275	21690
886.4	21511
886.525	21610
886.65	21542
886.775	21606
886.9	21800
887.025	21884
887.149	21637
887.274	21477
887.399	21496
887.523	21416
887.648	21321
887.773	21359
887.897	21500
888.021	21355
888.146	21389
888.27	21507
888.395	21583
888.519	21549
888.643	21428
888.767	21340
888.891	21363
889.015	21165
889.139	21157
889.263	21245
889.387	21481
889.511	21481
889.635	21321
889.759	21218
889.883	21169
890.006	21195
890.13	21260
890.254	21192
890.377	21188
890.501	20952
890.624	20823
890.748	20899
890.871	20743
890.995	20804
891.118	20667
891.241	20796
891.364	20796
891.488	20921
891.611	20746
891.734	20712
891.857	20864
891.98	20826
892.103	20838
892.226	20602
892.349	20705
892.471	20499
892.594	20705
892.717	20693
892.839	20693
892.962	20564
893.085	20659
893.207	20632
893.33	20480
893.452	20663
893.575	20731
893.697	20602
893.819	20876
893.941	20769
894.064	20804
894.186	20640
894.308	20526
894.43	20727
894.552	20883
894.674	20762
894.796	20488
894.918	20731
895.04	20758
895.161	20686
895.283	20800
895.405	20640
895.526	20609
895.648	20667
895.769	20674
895.891	20575
896.012	20705
896.134	20720
896.255	20712
896.376	20533
896.498	20629
896.619	20617
896.74	20526
896.861	20701
896.982	21043
897.103	21184
897.224	20941
897.345	20975
897.466	20727
897.587	20811
897.708	20937
897.828	20948
897.949	20800
898.07	20701
898.19	20796
898.311	20899
898.431	20788
898.552	20891
898.672	20868
898.792	20937
898.913	20864
899.033	20746
899.153	20629
899.273	20549
899.393	20632
899.513	20606
899.633	20659
899.753	20609
899.873	20434
899.993	20613
900.113	20613
900.232	20575
900.352	20541
900.472	20434
900.591	20339
900.711	20381
900.83	20313
900.95	20495
901.069	20389
901.189	20229
901.308	20039
901.427	19951
901.546	19997
901.665	19997
901.784	19913
901.904	19769
902.023	19708
902.141	19510
902.26	19563
902.379	19578
902.498	19365
902.617	19407
902.735	19460
902.854	19335
902.973	19487
903.091	19053
903.21	19209
903.328	19164
903.446	18989
903.565	18943
903.683	18909
903.801	18837
903.919	18806
904.038	18901
904.156	18802
904.274	18779
904.392	18650
904.51	18730
904.627	18669
904.745	18677
904.863	18658
904.981	18486
905.098	18342
905.216	18426
905.334	18327
905.451	18384
905.569	18239
905.686	18369
905.803	18258
905.921	18159
906.038	18327
906.155	18197
906.272	17996
906.389	18057
906.506	17885
906.623	17855
906.74	18003
906.857	17786
906.974	17828
907.091	17859
907.208	18011
907.324	17878
907.441	17775
907.557	17615
907.674	17562
907.79	17551
907.907	17573
908.023	17627
908.139	17421
908.256	17535
908.372	17440
908.488	17471
908.604	17311
908.72	17250
908.836	17292
908.952	17246
909.068	17261
909.184	17478
909.3	17292
909.415	17246
909.531	17337
909.647	17083
909.762	16957
909.878	17025
909.993	17003
910.108	16915
910.224	16919
910.339	17056
910.454	16908
910.57	16801
910.685	16820
910.8	17006
910.915	16927
911.03	16786
911.145	16744
911.259	16683
911.374	16588
911.489	16489
911.604	16440
911.718	16375
911.833	16329
911.947	16257
912.062	16078
912.176	16219
912.291	16360
912.405	16371
912.519	16462
912.633	16569
912.748	16382
912.862	16344
912.976	16204
913.09	15994
913.204	16177
913.318	16097
913.431	16234
913.545	16223
913.659	16284
913.772	16093
913.886	15991
914	15899
914.113	16063
914.226	16051
914.34	16055
914.453	15819
914.566	16032
914.68	15816
914.793	15717
914.906	15553
915.019	15534
915.132	15538
915.245	15504
915.358	15431
915.47	15530
915.583	15606
915.696	15606
915.809	15591
915.921	15720
916.034	15447
916.146	15454
916.259	15382
916.371	15538
916.483	15500
916.595	15420
916.708	15313
916.82	15428
916.932	15363
917.044	15275
917.156	15283
917.268	15154
917.38	15214
917.491	15169
917.603	15272
917.715	15268
917.826	15260
917.938	15150
918.049	15058
918.161	15081
918.272	15272
918.384	15237
918.495	15074
918.606	14975
918.717	15055
918.828	14918
918.939	14933
919.05	14792
919.161	14887
919.272	14655
919.383	14758
919.494	14960
919.604	15123
919.715	14975
919.826	14750
919.936	14849
920.047	14975
920.157	14815
920.267	15017
920.378	14899
920.488	14781
920.598	14990
920.708	15123
920.818	15043
920.928	15097
921.038	15119
921.148	15146
921.258	14906
921.368	14693
921.477	14686
921.587	14659
921.697	14541
921.806	14720
921.916	14408
922.025	14244
922.134	14313
922.244	14290
922.353	14343
922.462	14073
922.571	13974
922.68	13921
922.789	14027
922.898	13940
923.007	13898
923.116	13818
923.224	13860
923.333	13894
923.442	13784
923.55	13784
923.659	13791
923.767	13670
923.876	13731
923.984	13780
924.092	13658
924.201	13655
924.309	13651
924.417	13677
924.525	13556
924.633	13525
924.741	14259
924.849	13335
924.956	13563
925.064	13426
925.172	13221
925.279	13255
925.387	13308
925.494	13282
925.602	13354
925.709	13293
925.816	13217
925.924	13301
926.031	13285
926.138	13213
926.245	13312
926.352	13149
926.459	13282
926.566	13202
926.673	13152
926.779	13008
926.886	13053
926.993	12875
927.099	12859
927.206	12772
927.312	12719
927.419	12783
927.525	12783
927.631	12878
927.737	12757
927.843	12669
927.95	12585
928.056	12681
928.162	12623
928.267	12703
928.373	13343
928.479	12646
928.585	12532
928.69	12620
928.796	12608
928.901	12490
929.007	12346
929.112	12502
929.218	12525
929.323	12388
929.428	12380
929.533	12494
929.638	12270
929.743	12319
929.848	12407
929.953	12232
930.058	12213
930.163	12098
930.267	12083
930.372	12251
930.477	11988
930.581	12247
930.685	12072
930.79	12003
930.894	11901
930.998	11931
931.103	12022
931.207	11634
931.311	11611
931.415	11478
931.519	11372
931.623	11303
