Data from test_V78500241_3710.txt Node
Date: Fri Mar 25 16:07:30 CST 2022
User: usil
Spectrometer: V785-0024
Trigger mode: 0
Integration Time (sec): 4.000000E-1
Scans to average: 1
Nonlinearity correction enabled: false
Boxcar width: 0
Storing dark spectrum: false
XAxis mode: Wavelengths
Number of Pixels in Spectrum: 1024
>>>>>Begin Spectral Data<<<<<
801.071	28249
801.214	28306
801.356	27979
801.499	27903
801.641	27941
801.783	27713
801.926	27766
802.068	27812
802.211	27694
802.353	27766
802.496	27759
802.638	27572
802.78	27458
802.923	27538
803.065	27401
803.208	27553
803.35	27511
803.492	27682
803.635	27701
803.777	27755
803.919	27728
804.061	28105
804.204	27682
804.346	27580
804.488	27610
804.63	27652
804.773	27747
804.915	27675
805.057	27975
805.199	27789
805.341	27819
805.483	27823
805.626	27956
805.768	27804
805.91	27800
806.052	28017
806.194	27842
806.336	28093
806.478	27774
806.62	28040
806.762	28040
806.904	28177
807.046	28360
807.188	28382
807.33	28421
807.472	28360
807.614	28341
807.756	28352
807.898	28238
808.04	28040
808.182	28082
808.324	28246
808.465	28367
808.607	28489
808.749	28611
808.891	28668
809.033	28736
809.174	28615
809.316	28634
809.458	28546
809.6	28592
809.741	28706
809.883	28656
810.025	28839
810.166	28778
810.308	28835
810.45	28694
810.591	28733
810.733	28599
810.875	28512
811.016	28470
811.158	28466
811.299	28618
811.441	28641
811.582	28755
811.724	28527
811.865	28497
812.007	28561
812.148	28527
812.29	28569
812.431	28786
812.573	28949
812.714	29029
812.855	29124
812.997	29250
813.138	29147
813.279	29265
813.421	29041
813.562	29052
813.703	28984
813.845	28740
813.986	28436
814.127	28303
814.268	28177
814.41	28272
814.551	28135
814.692	28413
814.833	28139
814.974	28299
815.115	28188
815.256	28070
815.397	28158
815.539	28139
815.68	28219
815.821	27979
815.962	28063
816.103	28032
816.244	27945
816.385	27899
816.526	27857
816.666	27751
816.807	27481
816.948	27637
817.089	27679
817.23	27599
817.371	27610
817.512	27648
817.653	27564
817.793	27542
817.934	27690
818.075	27530
818.216	27652
818.356	27492
818.497	27363
818.638	27313
818.778	27443
818.919	27298
819.06	27408
819.2	27458
819.341	27629
819.481	27660
819.622	27580
819.762	28063
819.903	27873
820.043	27743
820.184	27675
820.324	27591
820.465	27842
820.605	27724
820.746	27625
820.886	27614
821.026	27523
821.167	27622
821.307	27637
821.447	27561
821.588	27614
821.728	27424
821.868	27389
822.008	26998
822.149	27043
822.289	27032
822.429	26792
822.569	26823
822.709	26686
822.849	26556
822.99	26663
823.13	26545
823.27	26609
823.41	26431
823.55	26187
823.69	26301
823.83	26347
823.97	26313
824.11	26199
824.25	26202
824.389	26168
824.529	26298
824.669	26176
824.809	26301
824.949	26142
825.089	26275
825.228	26210
825.368	26020
825.508	26088
825.648	26012
825.787	26020
825.927	26153
826.067	25898
826.206	26065
826.346	26153
826.485	26161
826.625	26077
826.765	26195
826.904	26054
827.044	25791
827.183	25845
827.323	25670
827.462	25799
827.601	25913
827.741	25670
827.88	25837
828.02	25586
828.159	25628
828.298	25978
828.437	25795
828.577	25803
828.716	25986
828.855	25533
828.994	25392
829.134	25476
829.273	25575
829.412	25400
829.551	25434
829.69	25403
829.829	25518
829.968	25613
830.107	25506
830.246	25510
830.385	25430
830.524	25339
830.663	25301
830.802	25217
830.941	25080
831.08	25137
831.219	25034
831.357	25209
831.496	25369
831.635	25088
831.774	25088
831.913	25042
832.051	24844
832.19	24973
832.329	24852
832.467	24791
832.606	24791
832.744	24563
832.883	24722
833.022	24715
833.16	24760
833.299	24943
833.437	24692
833.576	24901
833.714	24715
833.852	24768
833.991	24802
834.129	24791
834.267	24897
834.406	24833
834.544	24901
834.682	24977
834.821	24791
834.959	24905
835.097	24802
835.235	24932
835.373	24924
835.511	24886
835.65	24692
835.788	24688
835.926	24582
836.064	24399
836.202	24490
836.34	24635
836.478	24783
836.615	24681
836.753	24642
836.891	24700
837.029	24612
837.167	24654
837.305	24559
837.443	24517
837.58	24471
837.718	24627
837.856	24570
837.993	24551
838.131	24456
838.269	24422
838.406	24452
838.544	24456
838.681	24190
838.819	24045
838.956	23980
839.094	23958
839.231	24026
839.369	24258
839.506	24395
839.643	24300
839.781	24034
839.918	23859
840.055	24011
840.193	23954
840.33	23695
840.467	23901
840.604	23916
840.742	24125
840.879	23657
841.016	23699
841.153	23771
841.29	23973
841.427	23866
841.564	23851
841.701	23866
841.838	23779
841.975	23794
842.112	23710
842.249	23600
842.385	23745
842.522	23882
842.659	23748
842.796	23726
842.933	23703
843.069	23558
843.206	23539
843.343	23665
843.479	23638
843.616	23608
843.752	23433
843.889	23524
844.025	23505
844.162	23387
844.298	23497
844.435	23292
844.571	23322
844.708	23334
844.844	23615
844.98	23490
845.117	23592
845.253	23452
845.389	23341
845.525	23322
845.661	23204
845.798	23174
845.934	23227
846.07	23056
846.206	23292
846.342	23250
846.478	23079
846.614	22923
846.75	22786
846.886	22904
847.022	22919
847.158	22843
847.294	22919
847.429	23003
847.565	22820
847.701	23098
847.837	22634
847.972	22535
848.108	22725
848.244	22763
848.379	22523
848.515	22405
848.65	22451
848.786	22538
848.921	22382
849.057	22485
849.192	22516
849.328	22470
849.463	22417
849.598	22341
849.734	22257
849.869	22299
850.004	22303
850.14	22329
850.275	22116
850.41	22059
850.545	22181
850.68	22128
850.815	22318
850.95	22329
851.085	22390
851.22	22421
851.355	22238
851.49	22257
851.625	22158
851.76	22242
851.895	22173
852.03	22238
852.165	22215
852.299	22188
852.434	22318
852.569	22223
852.703	22139
852.838	22215
852.973	22470
853.107	22390
853.242	22124
853.376	22135
853.511	21903
853.645	22021
853.78	22265
853.914	22010
854.048	22002
854.183	22070
854.317	22101
854.451	22314
854.585	21949
854.72	21994
854.854	22078
854.988	21953
855.122	22101
855.256	21918
855.39	22021
855.524	22010
855.658	22090
855.792	22139
855.926	22226
856.06	22013
856.194	22086
856.327	21979
856.461	22010
856.595	22036
856.729	22002
856.862	22025
856.996	22147
857.13	22101
857.263	22204
857.397	22207
857.53	22139
857.664	22040
857.797	22097
857.931	22181
858.064	22112
858.197	22128
858.331	22040
858.464	22109
858.597	22082
858.731	22059
858.864	21953
858.997	21808
859.13	21987
859.263	22048
859.396	22074
859.529	21968
859.662	21998
859.795	21911
859.928	22078
860.061	22173
860.194	22249
860.327	22006
860.46	22082
860.592	22124
860.725	22230
860.858	22147
860.99	21960
861.123	22010
861.256	22013
861.388	22074
861.521	22778
861.653	21831
861.786	21736
861.918	21911
862.05	21884
862.183	22055
862.315	21975
862.447	22002
862.58	21918
862.712	21823
862.844	21797
862.976	21865
863.108	21941
863.24	22166
863.372	21648
863.504	21705
863.636	21789
863.768	21819
863.9	21838
864.032	21732
864.164	21743
864.296	21698
864.428	21819
864.559	21846
864.691	21850
864.823	21709
864.954	21679
865.086	21720
865.217	21660
865.349	21603
865.48	21671
865.612	21770
865.743	21709
865.875	21720
866.006	21625
866.137	21591
866.269	21591
866.4	21660
866.531	21599
866.662	21450
866.793	21618
866.924	21599
867.055	21675
867.186	21606
867.317	21431
867.448	21534
867.579	21583
867.71	21488
867.841	21481
867.972	21625
868.103	21564
868.233	21580
868.364	21595
868.495	21622
868.625	21884
868.756	21972
868.886	21717
869.017	21736
869.147	22021
869.278	21880
869.408	21766
869.539	21789
869.669	21949
869.799	21876
869.929	21907
870.06	21876
870.19	22177
870.32	22109
870.45	22276
870.58	22207
870.71	22291
870.84	22329
870.97	22265
871.1	22200
871.23	22352
871.36	22394
871.489	22375
871.619	22402
871.749	22280
871.879	22519
872.008	22462
872.138	22371
872.267	22382
872.397	22230
872.526	22329
872.656	22230
872.785	22131
872.915	22573
873.044	22459
873.173	22428
873.303	22348
873.432	22428
873.561	22679
873.69	22557
873.819	22394
873.948	22615
874.077	22478
874.206	22234
874.335	22493
874.464	22459
874.593	22588
874.722	22660
874.851	22660
874.979	22698
875.108	22733
875.237	22596
875.365	22554
875.494	22622
875.623	22649
875.751	22687
875.88	22828
876.008	22801
876.136	22866
876.265	23117
876.393	23181
876.521	23136
876.65	23189
876.778	23128
876.906	22946
877.034	22987
877.162	23060
877.29	22881
877.418	23025
877.546	23064
877.674	22972
877.802	22968
877.93	22972
878.058	23029
878.185	22866
878.313	23109
878.441	22972
878.568	22835
878.696	22915
878.824	23098
878.951	23037
879.079	23113
879.206	23185
879.333	23220
879.461	22942
879.588	23044
879.715	23200
879.842	23223
879.97	23121
880.097	22980
880.224	22927
880.351	22911
880.478	22915
880.605	22835
880.732	22866
880.859	23109
880.986	22866
881.112	22858
881.239	22835
881.366	22573
881.493	22451
881.619	22413
881.746	22516
881.872	22432
881.999	22306
882.125	22253
882.252	22523
882.378	22348
882.505	22615
882.631	22230
882.757	22280
882.883	22082
883.01	22139
883.136	22063
883.262	21979
883.388	21956
883.514	22051
883.64	22139
883.766	22029
883.892	21876
884.018	21816
884.143	22010
884.269	22124
884.395	21736
884.52	21656
884.646	21686
884.772	21686
884.897	21576
885.023	21827
885.148	21789
885.274	21842
885.399	21899
885.524	21667
885.65	21736
885.775	21732
885.9	21660
886.025	21751
886.15	21880
886.275	21599
886.4	21545
886.525	21599
886.65	21564
886.775	21595
886.9	21739
887.025	21823
887.149	21641
887.274	21458
887.399	21332
887.523	21428
887.648	21310
887.773	21386
887.897	21542
888.021	21511
888.146	21408
888.27	21477
888.395	21572
888.519	21663
888.643	21500
888.767	21519
888.891	21382
889.015	21298
889.139	21310
889.263	21245
889.387	21367
889.511	21374
889.635	21378
889.759	21298
889.883	21302
890.006	21321
890.13	21336
890.254	21077
890.377	21180
890.501	20872
890.624	21036
890.748	21146
890.871	21020
890.995	20800
891.118	20777
891.241	20842
891.364	20880
891.488	20838
891.611	20785
891.734	20743
891.857	20948
891.98	20815
892.103	20887
892.226	20834
892.349	20720
892.471	20705
892.594	20758
892.717	20762
892.839	20613
892.962	20739
893.085	20754
893.207	20697
893.33	20644
893.452	20678
893.575	20777
893.697	20632
893.819	20929
893.941	20937
894.064	20929
894.186	20705
894.308	20686
894.43	20781
894.552	20842
894.674	20644
894.796	20629
894.918	20746
895.04	20659
895.161	20731
895.283	20674
895.405	20758
895.526	20644
895.648	20636
895.769	20765
895.891	20724
896.012	20796
896.134	20762
896.255	20731
896.376	20686
896.498	20773
896.619	20564
896.74	20788
896.861	20716
896.982	21032
897.103	21085
897.224	20986
897.345	20906
897.466	20864
897.587	20910
897.708	21032
897.828	20982
897.949	20864
898.07	20826
898.19	20857
898.311	20941
898.431	20819
898.552	20937
898.672	20960
898.792	21028
898.913	20887
899.033	20785
899.153	20648
899.273	20636
899.393	20613
899.513	20724
899.633	20602
899.753	20663
899.873	20594
899.993	20651
900.113	20579
900.232	20568
900.352	20579
900.472	20484
900.591	20385
900.711	20473
900.83	20438
900.95	20568
901.069	20526
901.189	20351
901.308	20069
901.427	19921
901.546	19993
901.665	19993
901.784	20092
901.904	19822
902.023	19712
902.141	19624
902.26	19491
902.379	19700
902.498	19339
902.617	19457
902.735	19601
902.854	19544
902.973	19548
903.091	19206
903.21	19247
903.328	19107
903.446	19122
903.565	18913
903.683	19122
903.801	18848
903.919	18958
904.038	18947
904.156	18745
904.274	18837
904.392	18741
904.51	18795
904.627	18681
904.745	18738
904.863	18741
904.981	18563
905.098	18407
905.216	18414
905.334	18403
905.451	18566
905.569	18433
905.686	18342
905.803	18357
905.921	18254
906.038	18281
906.155	18178
906.272	18019
906.389	17999
906.506	17908
906.623	17908
906.74	17946
906.857	17805
906.974	17885
907.091	17904
907.208	17927
907.324	17946
907.441	17805
907.557	17668
907.674	17646
907.79	17554
907.907	17585
908.023	17699
908.139	17577
908.256	17543
908.372	17421
908.488	17417
908.604	17414
908.72	17391
908.836	17406
908.952	17376
909.068	17433
909.184	17551
909.3	17322
909.415	17452
909.531	17258
909.647	17128
909.762	17048
909.878	16885
909.993	17071
910.108	17025
910.224	16873
910.339	16968
910.454	16904
910.57	16934
910.685	16828
910.8	16999
910.915	16965
911.03	16885
911.145	16637
911.259	16672
911.374	16561
911.489	16519
911.604	16542
911.718	16405
911.833	16421
911.947	16299
912.062	16249
912.176	16310
912.291	16348
912.405	16333
912.519	16672
912.633	16527
912.748	16363
912.862	16333
912.976	16226
913.09	16120
913.204	16154
913.318	16196
913.431	16249
913.545	16234
913.659	16284
913.772	16242
913.886	16105
914	15975
914.113	16040
914.226	16124
914.34	15945
914.453	15816
914.566	16071
914.68	15846
914.793	15835
914.906	15667
915.019	15584
915.132	15466
915.245	15507
915.358	15599
915.47	15568
915.583	15534
915.696	15519
915.809	15755
915.921	15732
916.034	15561
916.146	15481
916.259	15450
916.371	15450
916.483	15500
916.595	15393
916.708	15496
916.82	15420
916.932	15355
917.044	15378
917.156	15245
917.268	15310
917.38	15252
917.491	15188
917.603	15211
917.715	15268
917.826	15359
917.938	15119
918.049	15058
918.161	15203
918.272	15302
918.384	15233
918.495	15161
918.606	15005
918.717	14941
918.828	15001
918.939	15009
919.05	14918
919.161	14929
919.272	14724
919.383	14823
919.494	15043
919.604	15218
919.715	14929
919.826	14811
919.936	14819
920.047	15062
920.157	15020
920.267	15032
920.378	14979
920.488	14857
920.598	15089
920.708	15313
920.818	15051
920.928	14975
921.038	15127
921.148	15211
921.258	14834
921.368	14743
921.477	14594
921.587	14621
921.697	14476
921.806	14636
921.916	14480
922.025	14465
922.134	14298
922.244	14202
922.353	14332
922.462	14134
922.571	14157
922.68	13997
922.789	13833
922.898	13959
923.007	13894
923.116	13906
923.224	13917
923.333	13944
923.442	13723
923.55	13772
923.659	13795
923.767	13860
923.876	13674
923.984	13807
924.092	13658
924.201	13814
924.309	13681
924.417	13681
924.525	13655
924.633	13590
924.741	14377
924.849	13540
924.956	13529
925.064	13362
925.172	13331
925.279	13278
925.387	13312
925.494	13422
925.602	13434
925.709	13301
925.816	13232
925.924	13312
926.031	13304
926.138	13274
926.245	13316
926.352	13187
926.459	13320
926.566	13358
926.673	13236
926.779	13095
926.886	13019
926.993	12901
927.099	12981
927.206	12878
927.312	12829
927.419	12966
927.525	12852
927.631	12768
927.737	12817
927.843	12703
927.95	12681
928.056	12612
928.162	12757
928.267	12829
928.373	13339
928.479	12829
928.585	12528
928.69	12719
928.796	12662
928.901	12547
929.007	12414
929.112	12540
929.218	12525
929.323	12525
929.428	12502
929.533	12540
929.638	12380
929.743	12296
929.848	12376
929.953	12365
930.058	12224
930.163	12079
930.267	12068
930.372	12197
930.477	12121
930.581	12266
930.685	12121
930.79	12007
930.894	11999
930.998	11939
931.103	11916
931.207	11657
931.311	11623
931.415	11532
931.519	11440
931.623	11288
