Data from test_V78500241_1926.txt Node
Date: Fri Mar 25 15:55:08 CST 2022
User: usil
Spectrometer: V785-0024
Trigger mode: 0
Integration Time (sec): 4.000000E-1
Scans to average: 1
Nonlinearity correction enabled: false
Boxcar width: 0
Storing dark spectrum: false
XAxis mode: Wavelengths
Number of Pixels in Spectrum: 1024
>>>>>Begin Spectral Data<<<<<
801.071	28618
801.214	28630
801.356	28459
801.499	28306
801.641	28257
801.783	28284
801.926	28341
802.068	28242
802.211	28375
802.353	28223
802.496	27994
802.638	28010
802.78	27846
802.923	28029
803.065	27842
803.208	27934
803.35	27873
803.492	28025
803.635	28314
803.777	28147
803.919	28265
804.061	28535
804.204	28253
804.346	28109
804.488	28120
804.63	28246
804.773	28158
804.915	28325
805.057	28538
805.199	28287
805.341	28219
805.483	28390
805.626	28314
805.768	28238
805.91	28295
806.052	28447
806.194	28310
806.336	28470
806.478	28360
806.62	28428
806.762	28557
806.904	28550
807.046	28991
807.188	28729
807.33	28820
807.472	28927
807.614	28717
807.756	28900
807.898	28542
808.04	28729
808.182	28637
808.324	28580
808.465	28801
808.607	28820
808.749	29083
808.891	29239
809.033	29117
809.174	29136
809.316	28999
809.458	28995
809.6	28999
809.741	29143
809.883	29022
810.025	29318
810.166	29360
810.308	29356
810.45	29239
810.591	29258
810.733	29025
810.875	29090
811.016	28847
811.158	28911
811.299	29220
811.441	29159
811.582	29242
811.724	29048
811.865	29098
812.007	29083
812.148	28949
812.29	29113
812.431	29383
812.573	29375
812.714	29505
812.855	29440
812.997	29775
813.138	29817
813.279	29710
813.421	29520
813.562	29577
813.703	29387
813.845	29227
813.986	29025
814.127	28782
814.268	28767
814.41	28850
814.551	28786
814.692	28972
814.833	28637
814.974	28675
815.115	28805
815.256	28645
815.397	28497
815.539	28519
815.68	28538
815.821	28542
815.962	28721
816.103	28615
816.244	28440
816.385	28481
816.526	28447
816.666	28196
816.807	28059
816.948	28097
817.089	28097
817.23	28093
817.371	28143
817.512	27994
817.653	27998
817.793	27964
817.934	27998
818.075	28097
818.216	28097
818.356	27994
818.497	27903
818.638	27869
818.778	27892
818.919	27949
819.06	27850
819.2	27975
819.341	28070
819.481	28086
819.622	28333
819.762	28519
819.903	28318
820.043	28166
820.184	28291
820.324	28082
820.465	28230
820.605	28166
820.746	28207
820.886	28101
821.026	28139
821.167	28204
821.307	28249
821.447	28074
821.588	27945
821.728	27774
821.868	27679
822.008	27656
822.149	27526
822.289	27622
822.429	27359
822.569	27252
822.709	27397
822.849	27119
822.99	27150
823.13	26971
823.27	27001
823.41	26979
823.55	26796
823.69	26952
823.83	26940
823.97	26804
824.11	26796
824.25	26587
824.389	26705
824.529	26785
824.669	26754
824.809	26899
824.949	26853
825.089	26868
825.228	26693
825.368	26541
825.508	26511
825.648	26590
825.787	26522
825.927	26621
826.067	26564
826.206	26526
826.346	26579
826.485	26594
826.625	26541
826.765	26636
826.904	26712
827.044	26343
827.183	26473
827.323	26343
827.462	26301
827.601	26389
827.741	26309
827.88	26237
828.02	26305
828.159	26244
828.298	26305
828.437	26396
828.577	26244
828.716	26408
828.855	26191
828.994	26020
829.134	26035
829.273	26069
829.412	26069
829.551	25887
829.69	25890
829.829	25989
829.968	26001
830.107	26077
830.246	25909
830.385	26008
830.524	25822
830.663	25856
830.802	25795
830.941	25666
831.08	25491
831.219	25563
831.357	25674
831.496	25833
831.635	25571
831.774	25464
831.913	25518
832.051	25422
832.19	25304
832.329	25419
832.467	25362
832.606	25270
832.744	25194
832.883	25331
833.022	25266
833.16	25263
833.299	25270
833.437	25278
833.576	25240
833.714	25308
833.852	25320
833.991	25377
834.129	25491
834.267	25403
834.406	25464
834.544	25544
834.682	25369
834.821	25282
834.959	25381
835.097	25343
835.235	25316
835.373	25236
835.511	25289
835.65	25118
835.788	25225
835.926	25145
836.064	25015
836.202	24973
836.34	25141
836.478	25270
836.615	25183
836.753	25278
836.891	25179
837.029	25270
837.167	25179
837.305	25221
837.443	25023
837.58	25012
837.718	25053
837.856	25023
837.993	24947
838.131	24966
838.269	24852
838.406	24886
838.544	24840
838.681	24635
838.819	24627
838.956	24407
839.094	24407
839.231	24544
839.369	24658
839.506	24821
839.643	24776
839.781	24483
839.918	24372
840.055	24357
840.193	24350
840.33	24254
840.467	24334
840.604	24315
840.742	24650
840.879	24277
841.016	24270
841.153	24292
841.29	24502
841.427	24369
841.564	24376
841.701	24281
841.838	24281
841.975	24194
842.112	24296
842.249	24163
842.385	24140
842.522	24410
842.659	24258
842.796	24155
842.933	24224
843.069	24110
843.206	24026
843.343	24030
843.479	24117
843.616	23992
843.752	23783
843.889	23904
844.025	24003
844.162	23786
844.298	24034
844.435	23931
844.571	23817
844.708	23950
844.844	24003
844.98	24041
845.117	24015
845.253	23756
845.389	23649
845.525	23760
845.661	23672
845.798	23608
845.934	23676
846.07	23528
846.206	23733
846.342	23756
846.478	23687
846.614	23334
846.75	23277
846.886	23261
847.022	23353
847.158	23436
847.294	23273
847.429	23497
847.565	23315
847.701	23596
847.837	23094
847.972	23121
848.108	23143
848.244	23147
848.379	23003
848.515	22911
848.65	22949
848.786	22927
848.921	23041
849.057	22976
849.192	22934
849.328	22850
849.463	23014
849.598	22790
849.734	22919
849.869	22717
850.004	22706
850.14	22759
850.275	22645
850.41	22668
850.545	22713
850.68	22664
850.815	22702
850.95	22675
851.085	22805
851.22	22812
851.355	22656
851.49	22584
851.625	22725
851.76	22698
851.895	22588
852.03	22664
852.165	22694
852.299	22729
852.434	22805
852.569	22725
852.703	22687
852.838	22675
852.973	22767
853.107	22812
853.242	22599
853.376	22546
853.511	22329
853.645	22493
853.78	22535
853.914	22500
854.048	22394
854.183	22451
854.317	22580
854.451	22698
854.585	22409
854.72	22447
854.854	22470
854.988	22402
855.122	22546
855.256	22375
855.39	22398
855.524	22527
855.658	22565
855.792	22580
855.926	22508
856.06	22607
856.194	22542
856.327	22451
856.461	22489
856.595	22500
856.729	22478
856.862	22577
856.996	22512
857.13	22679
857.263	22641
857.397	22428
857.53	22481
857.664	22550
857.797	22565
857.931	22626
858.064	22611
858.197	22546
858.331	22455
858.464	22421
858.597	22402
858.731	22535
858.864	22421
858.997	22455
859.13	22447
859.263	22489
859.396	22527
859.529	22588
859.662	22447
859.795	22459
859.928	22447
860.061	22744
860.194	22725
860.327	22550
860.46	22500
860.592	22599
860.725	22672
860.858	22725
860.99	22554
861.123	22451
861.256	22489
861.388	22512
861.521	23303
861.653	22417
861.786	22280
861.918	22421
862.05	22356
862.183	22386
862.315	22440
862.447	22538
862.58	22398
862.712	22318
862.844	22150
862.976	22265
863.108	22128
863.24	22656
863.372	22143
863.504	22169
863.636	22192
863.768	22223
863.9	22185
864.032	22017
864.164	22166
864.296	22196
864.428	22341
864.559	22344
864.691	22276
864.823	22097
864.954	22154
865.086	22032
865.217	22234
865.349	21987
865.48	22032
865.612	22082
865.743	22291
865.875	22154
866.006	22112
866.137	22006
866.269	22101
866.4	22048
866.531	22017
866.662	21979
866.793	22025
866.924	21949
867.055	22070
867.186	21949
867.317	21945
867.448	21979
867.579	22010
867.71	21915
867.841	21937
867.972	22147
868.103	21865
868.233	22093
868.364	22021
868.495	22188
868.625	22196
868.756	22363
868.886	22211
869.017	22185
869.147	22299
869.278	22382
869.408	22246
869.539	22303
869.669	22284
869.799	22234
869.929	22329
870.06	22421
870.19	22630
870.32	22542
870.45	22584
870.58	22618
870.71	22790
870.84	22565
870.97	22660
871.1	22596
871.23	22744
871.36	22862
871.489	22759
871.619	22839
871.749	22820
871.879	22839
872.008	22820
872.138	22934
872.267	22805
872.397	22736
872.526	22691
872.656	22706
872.785	22634
872.915	22828
873.044	23075
873.173	22721
873.303	22980
873.432	22869
873.561	22873
873.69	22812
873.819	22733
873.948	22877
874.077	22843
874.206	22831
874.335	22923
874.464	23022
874.593	23010
874.722	23083
874.851	23109
874.979	23094
875.108	23086
875.237	23041
875.365	23052
875.494	23113
875.623	23121
875.751	23018
875.88	23113
876.008	23212
876.136	23231
876.265	23421
876.393	23566
876.521	23524
876.65	23524
876.778	23402
876.906	23349
877.034	23326
877.162	23452
877.29	23414
877.418	23406
877.546	23410
877.674	23406
877.802	23482
877.93	23455
878.058	23391
878.185	23288
878.313	23356
878.441	23315
878.568	23322
878.696	23364
878.824	23406
878.951	23440
879.079	23539
879.206	23543
879.333	23531
879.461	23448
879.588	23417
879.715	23520
879.842	23619
879.97	23592
880.097	23178
880.224	23265
880.351	23299
880.478	23307
880.605	23136
880.732	23189
880.859	23425
880.986	23273
881.112	23197
881.239	23033
881.366	23010
881.493	22908
881.619	22748
881.746	22805
881.872	22885
881.999	22790
882.125	22774
882.252	22816
882.378	22755
882.505	22839
882.631	22596
882.757	22679
882.883	22740
883.01	22504
883.136	22432
883.262	22238
883.388	22226
883.514	22436
883.64	22489
883.766	22428
883.892	22124
884.018	22215
884.143	22318
884.269	22363
884.395	22055
884.52	22082
884.646	22207
884.772	22055
884.897	21964
885.023	22120
885.148	22090
885.274	22158
885.399	22143
885.524	22048
885.65	22147
885.775	22188
885.9	21991
886.025	22120
886.15	22112
886.275	22048
886.4	21915
886.525	22116
886.65	22135
886.775	22086
886.9	22090
887.025	22348
887.149	21979
887.274	21941
887.399	21846
887.523	21770
887.648	21857
887.773	21690
887.897	21956
888.021	21831
888.146	21595
888.27	21994
888.395	21937
888.519	21922
888.643	21838
888.767	21736
888.891	21800
889.015	21625
889.139	21701
889.263	21622
889.387	21663
889.511	21812
889.635	21717
889.759	21606
889.883	21610
890.006	21652
890.13	21759
890.254	21519
890.377	21519
890.501	21397
890.624	21332
890.748	21534
890.871	21317
890.995	21116
891.118	21233
891.241	21116
891.364	21180
891.488	21359
891.611	21188
891.734	21184
891.857	21131
891.98	21260
892.103	21169
892.226	21192
892.349	21226
892.471	20876
892.594	21123
892.717	21150
892.839	21188
892.962	21085
893.085	21138
893.207	21123
893.33	20887
893.452	20971
893.575	21188
893.697	21036
893.819	21279
893.941	21237
894.064	21207
894.186	21081
894.308	21017
894.43	21131
894.552	21249
894.674	21226
894.796	20762
894.918	20998
895.04	20910
895.161	21135
895.283	21074
895.405	21017
895.526	21058
895.648	21017
895.769	20979
895.891	20990
896.012	21176
896.134	21104
896.255	21005
896.376	21043
896.498	21013
896.619	21047
896.74	21039
896.861	21150
896.982	21378
897.103	21370
897.224	21214
897.345	21230
897.466	21233
897.587	21207
897.708	21294
897.828	21351
897.949	21218
898.07	21093
898.19	21237
898.311	21184
898.431	21180
898.552	21233
898.672	21302
898.792	21344
898.913	21302
899.033	21081
899.153	21081
899.273	20918
899.393	20975
899.513	21017
899.633	21047
899.753	21085
899.873	21024
899.993	20956
900.113	20830
900.232	21005
900.352	20902
900.472	20735
900.591	20693
900.711	20663
900.83	20777
900.95	20979
901.069	20864
901.189	20583
901.308	20469
901.427	20290
901.546	20476
901.665	20275
901.784	20305
901.904	20149
902.023	20107
902.141	19902
902.26	19967
902.379	19936
902.498	19826
902.617	19742
902.735	19791
902.854	19837
902.973	19719
903.091	19457
903.21	19483
903.328	19559
903.446	19388
903.565	19274
903.683	19438
903.801	19160
903.919	19240
904.038	19304
904.156	19088
904.274	19118
904.392	18993
904.51	19099
904.627	19168
904.745	19095
904.863	19156
904.981	18734
905.098	18665
905.216	18582
905.334	18757
905.451	18741
905.569	18696
905.686	18783
905.803	18692
905.921	18407
906.038	18582
906.155	18544
906.272	18353
906.389	18391
906.506	18327
906.623	18213
906.74	18144
906.857	18216
906.974	18079
907.091	18114
907.208	18327
907.324	18243
907.441	18015
907.557	17996
907.674	17908
907.79	17980
907.907	17965
908.023	17984
908.139	18011
908.256	17805
908.372	17783
908.488	17748
908.604	17649
908.72	17562
908.836	17665
908.952	17592
909.068	17707
909.184	17794
909.3	17646
909.415	17684
909.531	17611
909.647	17307
909.762	17364
909.878	17334
909.993	17387
910.108	17311
910.224	17284
910.339	17284
910.454	17246
910.57	17223
910.685	17102
910.8	17368
910.915	17318
911.03	17102
911.145	17018
911.259	16919
911.374	16904
911.489	16820
911.604	16881
911.718	16706
911.833	16569
911.947	16428
912.062	16611
912.176	16774
912.291	16653
912.405	16626
912.519	16847
912.633	16809
912.748	16733
912.862	16531
912.976	16462
913.09	16409
913.204	16428
913.318	16504
913.431	16599
913.545	16519
913.659	16569
913.772	16428
913.886	16204
914	16265
914.113	16363
914.226	16481
914.34	16375
914.453	16131
914.566	16375
914.68	16131
914.793	16139
914.906	15998
915.019	15861
915.132	15819
915.245	15759
915.358	15911
915.47	15812
915.583	15816
915.696	15922
915.809	16017
915.921	15968
916.034	15854
916.146	15743
916.259	15739
916.371	15873
916.483	15854
916.595	15576
916.708	15648
916.82	15587
916.932	15679
917.044	15610
917.156	15519
917.268	15511
917.38	15606
917.491	15431
917.603	15405
917.715	15519
917.826	15561
917.938	15447
918.049	15325
918.161	15473
918.272	15526
918.384	15515
918.495	15545
918.606	15260
918.717	15157
918.828	15298
918.939	15211
919.05	15135
919.161	15108
919.272	15074
919.383	15157
919.494	15249
919.604	15386
919.715	15294
919.826	15157
919.936	15135
920.047	15176
920.157	15176
920.267	15325
920.378	15249
920.488	15192
920.598	15405
920.708	15469
920.818	15283
920.928	15344
921.038	15355
921.148	15401
921.258	15066
921.368	15028
921.477	14967
921.587	14834
921.697	14769
921.806	14861
921.916	14823
922.025	14632
922.134	14655
922.244	14507
922.353	14602
922.462	14400
922.571	14328
922.68	14256
922.789	14210
922.898	14324
923.007	14126
923.116	14195
923.224	14130
923.333	14164
923.442	14016
923.55	13902
923.659	14035
923.767	14035
923.876	13902
923.984	14069
924.092	13860
924.201	13898
924.309	13864
924.417	13856
924.525	13807
924.633	13803
924.741	14804
924.849	13666
924.956	13731
925.064	13582
925.172	13567
925.279	13529
925.387	13556
925.494	13540
925.602	13670
925.709	13586
925.816	13430
925.924	13506
926.031	13525
926.138	13476
926.245	13518
926.352	13354
926.459	13529
926.566	13552
926.673	13400
926.779	13301
926.886	13228
926.993	13183
927.099	13091
927.206	13038
927.312	13088
927.419	13198
927.525	13065
927.631	13103
927.737	12932
927.843	12901
927.95	12764
928.056	12932
928.162	13000
928.267	12886
928.373	13552
928.479	12935
928.585	12795
928.69	12760
928.796	12840
928.901	12848
929.007	12665
929.112	12768
929.218	12662
929.323	12585
929.428	12658
929.533	12722
929.638	12547
929.743	12563
929.848	12639
929.953	12479
930.058	12532
930.163	12216
930.267	12365
930.372	12418
930.477	12152
930.581	12536
930.685	12395
930.79	12102
930.894	12239
930.998	12117
931.103	12357
931.207	11847
931.311	11813
931.415	11786
931.519	11570
931.623	11562
