Data from test_V78500241_3427.txt Node
Date: Fri Mar 25 16:05:32 CST 2022
User: usil
Spectrometer: V785-0024
Trigger mode: 0
Integration Time (sec): 4.000000E-1
Scans to average: 1
Nonlinearity correction enabled: false
Boxcar width: 0
Storing dark spectrum: false
XAxis mode: Wavelengths
Number of Pixels in Spectrum: 1024
>>>>>Begin Spectral Data<<<<<
801.071	28850
801.214	28877
801.356	28436
801.499	28516
801.641	28352
801.783	28306
801.926	28394
802.068	28451
802.211	28310
802.353	28424
802.496	28105
802.638	28120
802.78	28253
802.923	28124
803.065	28067
803.208	27975
803.35	28192
803.492	28249
803.635	28394
803.777	28219
803.919	28451
804.061	28706
804.204	28409
804.346	28284
804.488	28192
804.63	28447
804.773	28314
804.915	28398
805.057	28516
805.199	28363
805.341	28466
805.483	28569
805.626	28603
805.768	28398
805.91	28637
806.052	28440
806.194	28451
806.336	28672
806.478	28455
806.62	28500
806.762	28672
806.904	28938
807.046	29090
807.188	28904
807.33	28888
807.472	28972
807.614	28953
807.756	29014
807.898	28755
808.04	28729
808.182	28888
808.324	28888
808.465	28938
808.607	29033
808.749	29284
808.891	29288
809.033	29448
809.174	29261
809.316	29136
809.458	29227
809.6	29159
809.741	29246
809.883	29364
810.025	29509
810.166	29402
810.308	29467
810.45	29474
810.591	29227
810.733	29239
810.875	29212
811.016	29181
811.158	29124
811.299	29322
811.441	29467
811.582	29353
811.724	29402
811.865	29174
812.007	29258
812.148	29261
812.29	29364
812.431	29425
812.573	29585
812.714	29722
812.855	29824
812.997	29946
813.138	29961
813.279	29992
813.421	29805
813.562	29562
813.703	29505
813.845	29421
813.986	29140
814.127	29105
814.268	29151
814.41	28976
814.551	29044
814.692	29022
814.833	28957
814.974	28904
815.115	29006
815.256	28873
815.397	28942
815.539	28801
815.68	28797
815.821	28637
815.962	28774
816.103	28702
816.244	28573
816.385	28580
816.526	28512
816.666	28360
816.807	28341
816.948	28280
817.089	28390
817.23	28314
817.371	28200
817.512	28337
817.653	28200
817.793	28272
817.934	28287
818.075	28322
818.216	28375
818.356	28242
818.497	28162
818.638	27956
818.778	28109
818.919	28154
819.06	28093
819.2	28204
819.341	28253
819.481	28314
819.622	28577
819.762	28584
819.903	28535
820.043	28660
820.184	28375
820.324	28519
820.465	28512
820.605	28371
820.746	28401
820.886	28295
821.026	28409
821.167	28382
821.307	28421
821.447	28268
821.588	28310
821.728	28154
821.868	27972
822.008	27816
822.149	27759
822.289	27679
822.429	27568
822.569	27321
822.709	27427
822.849	27294
822.99	27344
823.13	27252
823.27	27161
823.41	27028
823.55	27104
823.69	27116
823.83	27085
823.97	26933
824.11	26925
824.25	26842
824.389	26891
824.529	26994
824.669	26918
824.809	27070
824.949	27066
825.089	27039
825.228	26952
825.368	26826
825.508	26762
825.648	26792
825.787	26834
825.927	26883
826.067	26769
826.206	26811
826.346	26830
826.485	26796
826.625	26891
826.765	26906
826.904	26887
827.044	26701
827.183	26560
827.323	26549
827.462	26613
827.601	26629
827.741	26606
827.88	26648
828.02	26484
828.159	26552
828.298	26541
828.437	26541
828.577	26518
828.716	26625
828.855	26400
828.994	26237
829.134	26214
829.273	26282
829.412	26305
829.551	26263
829.69	26286
829.829	26218
829.968	26339
830.107	26286
830.246	26294
830.385	26153
830.524	26267
830.663	25978
830.802	25906
830.941	25719
831.08	25902
831.219	26016
831.357	25772
831.496	26126
831.635	25849
831.774	25689
831.913	25670
832.051	25712
832.19	25662
832.329	25658
832.467	25655
832.606	25529
832.744	25373
832.883	25556
833.022	25457
833.16	25548
833.299	25556
833.437	25518
833.576	25506
833.714	25567
833.852	25674
833.991	25635
834.129	25609
834.267	25666
834.406	25567
834.544	25479
834.682	25609
834.821	25502
834.959	25742
835.097	25430
835.235	25567
835.373	25499
835.511	25491
835.65	25411
835.788	25270
835.926	25232
836.064	25259
836.202	25183
836.34	25381
836.478	25449
836.615	25343
836.753	25445
836.891	25495
837.029	25430
837.167	25320
837.305	25327
837.443	25301
837.58	25198
837.718	25438
837.856	25225
837.993	25118
838.131	25213
838.269	25095
838.406	25263
838.544	25008
838.681	24856
838.819	24894
838.956	24635
839.094	24578
839.231	24779
839.369	24886
839.506	25095
839.643	24977
839.781	24627
839.918	24711
840.055	24711
840.193	24635
840.33	24623
840.467	24623
840.604	24612
840.742	24833
840.879	24483
841.016	24536
841.153	24505
841.29	24635
841.427	24540
841.564	24604
841.701	24532
841.838	24536
841.975	24414
842.112	24395
842.249	24429
842.385	24369
842.522	24642
842.659	24437
842.796	24346
842.933	24277
843.069	24365
843.206	24315
843.343	24418
843.479	24239
843.616	24407
843.752	24186
843.889	24205
844.025	24273
844.162	24038
844.298	24190
844.435	24034
844.571	24068
844.708	24232
844.844	24235
844.98	24159
845.117	24232
845.253	24007
845.389	23996
845.525	23866
845.661	23885
845.798	23775
845.934	23836
846.07	23874
846.206	23908
846.342	23977
846.478	23813
846.614	23695
846.75	23501
846.886	23535
847.022	23649
847.158	23691
847.294	23562
847.429	23737
847.565	23554
847.701	23729
847.837	23311
847.972	23265
848.108	23337
848.244	23429
848.379	23258
848.515	23220
848.65	23147
848.786	23254
848.921	23140
849.057	23277
849.192	23239
849.328	23113
849.463	23121
849.598	23102
849.734	22930
849.869	23086
850.004	23003
850.14	23128
850.275	23006
850.41	22927
850.545	22896
850.68	22835
850.815	23056
850.95	22995
851.085	23086
851.22	22987
851.355	22984
851.49	22896
851.625	22984
851.76	22873
851.895	22862
852.03	22889
852.165	22805
852.299	23075
852.434	22869
852.569	22847
852.703	22930
852.838	22934
852.973	22995
853.107	22995
853.242	22740
853.376	22873
853.511	22653
853.645	22736
853.78	22839
853.914	22706
854.048	22641
854.183	22717
854.317	22736
854.451	22968
854.585	22778
854.72	22797
854.854	22812
854.988	22683
855.122	22759
855.256	22691
855.39	22710
855.524	22858
855.658	22740
855.792	22790
855.926	22733
856.06	22839
856.194	22759
856.327	22664
856.461	22622
856.595	22706
856.729	22748
856.862	22797
856.996	22725
857.13	22782
857.263	22843
857.397	22881
857.53	22820
857.664	22763
857.797	22797
857.931	22999
858.064	22763
858.197	22771
858.331	22748
858.464	22744
858.597	22630
858.731	22774
858.864	22740
858.997	22782
859.13	22786
859.263	22733
859.396	22740
859.529	22698
859.662	22634
859.795	22702
859.928	22725
860.061	22797
860.194	22957
860.327	22862
860.46	22702
860.592	22896
860.725	22824
860.858	22835
860.99	22733
861.123	22596
861.256	22668
861.388	22683
861.521	23512
861.653	22565
861.786	22538
861.918	22683
862.05	22584
862.183	22786
862.315	22664
862.447	22626
862.58	22755
862.712	22440
862.844	22493
862.976	22554
863.108	22584
863.24	22828
863.372	22497
863.504	22519
863.636	22489
863.768	22474
863.9	22508
864.032	22367
864.164	22371
864.296	22428
864.428	22561
864.559	22470
864.691	22455
864.823	22481
864.954	22341
865.086	22421
865.217	22344
865.349	22238
865.48	22314
865.612	22280
865.743	22405
865.875	22360
866.006	22337
866.137	22344
866.269	22291
866.4	22322
866.531	22329
866.662	22207
866.793	22261
866.924	22253
867.055	22314
867.186	22287
867.317	22226
867.448	22154
867.579	22253
867.71	22150
867.841	22238
867.972	22276
868.103	22234
868.233	22299
868.364	22147
868.495	22371
868.625	22329
868.756	22535
868.886	22394
869.017	22569
869.147	22523
869.278	22618
869.408	22497
869.539	22474
869.669	22596
869.799	22436
869.929	22611
870.06	22672
870.19	22835
870.32	22797
870.45	22847
870.58	22835
870.71	22957
870.84	23044
870.97	22831
871.1	22896
871.23	23098
871.36	23113
871.489	23075
871.619	23010
871.749	23075
871.879	23075
872.008	23140
872.138	23018
872.267	23147
872.397	22961
872.526	22934
872.656	22862
872.785	22938
872.915	23113
873.044	23143
873.173	23246
873.303	23170
873.432	23235
873.561	23143
873.69	23113
873.819	23067
873.948	23136
874.077	23121
874.206	22873
874.335	23132
874.464	23280
874.593	23448
874.722	23242
874.851	23212
874.979	23307
875.108	23452
875.237	23231
875.365	23292
875.494	23258
875.623	23330
875.751	23284
875.88	23433
876.008	23459
876.136	23482
876.265	23676
876.393	23882
876.521	23691
876.65	23718
876.778	23710
876.906	23691
877.034	23630
877.162	23786
877.29	23691
877.418	23615
877.546	23756
877.674	23726
877.802	23649
877.93	23520
878.058	23630
878.185	23509
878.313	23714
878.441	23528
878.568	23421
878.696	23608
878.824	23707
878.951	23805
879.079	23779
879.206	23901
879.333	23821
879.461	23627
879.588	23817
879.715	23866
879.842	23912
879.97	23729
880.097	23421
880.224	23360
880.351	23429
880.478	23505
880.605	23524
880.732	23425
880.859	23802
880.986	23497
881.112	23509
881.239	23360
881.366	23288
881.493	23204
881.619	23014
881.746	23265
881.872	23014
881.999	23155
882.125	22919
882.252	23193
882.378	23071
882.505	23105
882.631	22854
882.757	22694
882.883	22721
883.01	22729
883.136	22607
883.262	22611
883.388	22637
883.514	22691
883.64	22744
883.766	22649
883.892	22474
884.018	22557
884.143	22637
884.269	22656
884.395	22405
884.52	22367
884.646	22272
884.772	22402
884.897	22363
885.023	22455
885.148	22466
885.274	22478
885.399	22493
885.524	22455
885.65	22223
885.775	22356
885.9	22436
886.025	22367
886.15	22424
886.275	22276
886.4	22192
886.525	22390
886.65	22268
886.775	22253
886.9	22402
887.025	22531
887.149	22314
887.274	22044
887.399	22192
887.523	22131
887.648	22029
887.773	21975
887.897	22059
888.021	22093
888.146	21892
888.27	22074
888.395	22116
888.519	22158
888.643	22162
888.767	22128
888.891	21991
889.015	21922
889.139	21956
889.263	21930
889.387	22006
889.511	22093
889.635	21941
889.759	21903
889.883	21846
890.006	21899
890.13	22032
890.254	21911
890.377	21823
890.501	21644
890.624	21477
890.748	21580
890.871	21526
890.995	21363
891.118	21428
891.241	21424
891.364	21416
891.488	21603
891.611	21435
891.734	21622
891.857	21473
891.98	21363
892.103	21523
892.226	21332
892.349	21363
892.471	21332
892.594	21325
892.717	21317
892.839	21329
892.962	21363
893.085	21386
893.207	21222
893.33	21199
893.452	21116
893.575	21222
893.697	21268
893.819	21405
893.941	21583
894.064	21568
894.186	21192
894.308	21272
894.43	21435
894.552	21481
894.674	21355
894.796	21264
894.918	21203
895.04	21214
895.161	21355
895.283	21428
895.405	21203
895.526	21298
895.648	21199
895.769	21218
895.891	21287
896.012	21408
896.134	21279
896.255	21230
896.376	21199
896.498	21287
896.619	21310
896.74	21184
896.861	21389
896.982	21633
897.103	21663
897.224	21545
897.345	21534
897.466	21454
897.587	21473
897.708	21599
897.828	21587
897.949	21447
898.07	21420
898.19	21268
898.311	21561
898.431	21359
898.552	21485
898.672	21545
898.792	21526
898.913	21545
899.033	21386
899.153	21298
899.273	21184
899.393	21169
899.513	21230
899.633	21245
899.753	21226
899.873	21199
899.993	21218
900.113	21116
900.232	21188
900.352	21085
900.472	21024
900.591	20963
900.711	20971
900.83	20929
900.95	21058
901.069	21062
901.189	20697
901.308	20522
901.427	20412
901.546	20499
901.665	20518
901.784	20564
901.904	20408
902.023	20252
902.141	20081
902.26	20016
902.379	20115
902.498	20096
902.617	20027
902.735	20096
902.854	20008
902.973	19989
903.091	19594
903.21	19575
903.328	19609
903.446	19525
903.565	19529
903.683	19483
903.801	19346
903.919	19468
904.038	19434
904.156	19232
904.274	19339
904.392	19190
904.51	19312
904.627	19247
904.745	19278
904.863	19266
904.981	19069
905.098	18962
905.216	18829
905.334	18928
905.451	18901
905.569	18932
905.686	18958
905.803	18863
905.921	18749
906.038	18814
906.155	18642
906.272	18623
906.389	18597
906.506	18483
906.623	18486
906.74	18490
906.857	18369
906.974	18403
907.091	18483
907.208	18486
907.324	18376
907.441	18350
907.557	18232
907.674	18220
907.79	17988
907.907	18049
908.023	18167
908.139	18304
908.256	18144
908.372	18045
908.488	17866
908.604	17916
908.72	17840
908.836	17859
908.952	17729
909.068	17939
909.184	17904
909.3	17756
909.415	17779
909.531	17897
909.647	17577
909.762	17570
909.878	17535
909.993	17596
910.108	17421
910.224	17505
910.339	17558
910.454	17509
910.57	17273
910.685	17296
910.8	17589
910.915	17497
911.03	17425
911.145	17132
911.259	17071
911.374	17155
911.489	17010
911.604	16968
911.718	16782
911.833	16816
911.947	16850
912.062	16748
912.176	16885
912.291	16778
912.405	16839
912.519	16972
912.633	17033
912.748	17022
912.862	16850
912.976	16755
913.09	16626
913.204	16698
913.318	16683
913.431	16698
913.545	16786
913.659	16748
913.772	16497
913.886	16546
914	16413
914.113	16603
914.226	16527
914.34	16478
914.453	16257
914.566	16432
914.68	16363
914.793	16291
914.906	16093
915.019	15998
915.132	16006
915.245	16025
915.358	16002
915.47	16002
915.583	16055
915.696	16139
915.809	16105
915.921	16101
916.034	15949
916.146	15842
916.259	15895
916.371	16032
916.483	15926
916.595	15899
916.708	15701
916.82	15770
916.932	15781
917.044	15762
917.156	15728
917.268	15648
917.38	15610
917.491	15526
917.603	15713
917.715	15732
917.826	15861
917.938	15572
918.049	15462
918.161	15606
918.272	15618
918.384	15686
918.495	15603
918.606	15477
918.717	15329
918.828	15500
918.939	15336
919.05	15329
919.161	15389
919.272	15146
919.383	15192
919.494	15332
919.604	15584
919.715	15329
919.826	15211
919.936	15351
920.047	15313
920.157	15332
920.267	15469
920.378	15382
920.488	15329
920.598	15538
920.708	15679
920.818	15496
920.928	15519
921.038	15572
921.148	15526
921.258	15150
921.368	15127
921.477	15036
921.587	15039
921.697	14895
921.806	15070
921.916	14967
922.025	14773
922.134	14667
922.244	14598
922.353	14792
922.462	14590
922.571	14552
922.68	14389
922.789	14275
922.898	14370
923.007	14233
923.116	14377
923.224	14267
923.333	14263
923.442	14218
923.55	14142
923.659	14218
923.767	14168
923.876	14054
923.984	14065
924.092	14039
924.201	14081
924.309	13959
924.417	14035
924.525	13917
924.633	14005
924.741	14925
924.849	13772
924.956	13852
925.064	13723
925.172	13780
925.279	13704
925.387	13700
925.494	13666
925.602	13818
925.709	13708
925.816	13636
925.924	13708
926.031	13674
926.138	13597
926.245	13681
926.352	13597
926.459	13719
926.566	13689
926.673	13594
926.779	13419
926.886	13445
926.993	13320
927.099	13259
927.206	13282
927.312	13137
927.419	13156
927.525	13240
927.631	13282
927.737	13183
927.843	13103
927.95	13015
928.056	13050
928.162	13050
928.267	13095
928.373	13689
928.479	13141
928.585	12863
928.69	12993
928.796	13031
928.901	12878
929.007	12650
929.112	12890
929.218	12859
929.323	12802
929.428	12783
929.533	12806
929.638	12688
929.743	12726
929.848	12738
929.953	12673
930.058	12673
930.163	12528
930.267	12391
930.372	12479
930.477	12418
930.581	12570
930.685	12441
930.79	12266
930.894	12167
930.998	12239
931.103	12342
931.207	12064
931.311	12003
931.415	11893
931.519	11688
931.623	11703
