Data from test_V78500241_2046.txt Node
Date: Fri Mar 25 15:55:58 CST 2022
User: usil
Spectrometer: V785-0024
Trigger mode: 0
Integration Time (sec): 4.000000E-1
Scans to average: 1
Nonlinearity correction enabled: false
Boxcar width: 0
Storing dark spectrum: false
XAxis mode: Wavelengths
Number of Pixels in Spectrum: 1024
>>>>>Begin Spectral Data<<<<<
801.071	28938
801.214	28911
801.356	28615
801.499	28740
801.641	28409
801.783	28557
801.926	28485
802.068	28451
802.211	28455
802.353	28356
802.496	28204
802.638	28204
802.78	28120
802.923	27987
803.065	27983
803.208	28105
803.35	28128
803.492	28268
803.635	28375
803.777	28238
803.919	28344
804.061	28702
804.204	28382
804.346	28360
804.488	28268
804.63	28242
804.773	28200
804.915	28443
805.057	28500
805.199	28474
805.341	28489
805.483	28630
805.626	28470
805.768	28557
805.91	28497
806.052	28679
806.194	28470
806.336	28698
806.478	28615
806.62	28565
806.762	28828
806.904	28911
807.046	28957
807.188	28850
807.33	29044
807.472	29003
807.614	28972
807.756	29098
807.898	28869
808.04	28774
808.182	28881
808.324	28858
808.465	29025
808.607	29075
808.749	29288
808.891	29292
809.033	29402
809.174	29375
809.316	29200
809.458	29254
809.6	29105
809.741	29383
809.883	29364
810.025	29520
810.166	29330
810.308	29630
810.45	29547
810.591	29585
810.733	29284
810.875	29235
811.016	29296
811.158	29296
811.299	29288
811.441	29486
811.582	29345
811.724	29421
811.865	29239
812.007	29318
812.148	29345
812.29	29174
812.431	29452
812.573	29676
812.714	29760
812.855	29695
812.997	29927
813.138	30110
813.279	29855
813.421	29893
813.562	29840
813.703	29452
813.845	29364
813.986	29246
814.127	29014
814.268	29018
814.41	28888
814.551	29006
814.692	28980
814.833	28976
814.974	28942
815.115	28961
815.256	28858
815.397	28763
815.539	28942
815.68	28854
815.821	28771
815.962	28763
816.103	28759
816.244	28580
816.385	28702
816.526	28554
816.666	28421
816.807	28276
816.948	28318
817.089	28417
817.23	28413
817.371	28249
817.512	28226
817.653	28291
817.793	28120
817.934	28215
818.075	28268
818.216	28276
818.356	28246
818.497	28348
818.638	28147
818.778	27945
818.919	28013
819.06	28162
819.2	28215
819.341	28253
819.481	28367
819.622	28436
819.762	28733
819.903	28713
820.043	28451
820.184	28329
820.324	28379
820.465	28459
820.605	28527
820.746	28325
820.886	28360
821.026	28474
821.167	28390
821.307	28504
821.447	28401
821.588	28238
821.728	28169
821.868	27827
822.008	27698
822.149	27785
822.289	27778
822.429	27511
822.569	27469
822.709	27614
822.849	27317
822.99	27275
823.13	27264
823.27	27256
823.41	27180
823.55	26994
823.69	27055
823.83	27154
823.97	27062
824.11	26971
824.25	26899
824.389	26937
824.529	27024
824.669	26861
824.809	27116
824.949	27032
825.089	27116
825.228	26998
825.368	26750
825.508	26765
825.648	26823
825.787	26823
825.927	26883
826.067	26834
826.206	26826
826.346	26819
826.485	26807
826.625	26667
826.765	26921
826.904	26724
827.044	26575
827.183	26606
827.323	26507
827.462	26686
827.601	26571
827.741	26545
827.88	26511
828.02	26579
828.159	26541
828.298	26609
828.437	26594
828.577	26476
828.716	26682
828.855	26362
828.994	26324
829.134	26248
829.273	26278
829.412	26290
829.551	26153
829.69	26256
829.829	26149
829.968	26263
830.107	26362
830.246	26320
830.385	26107
830.524	26115
830.663	26130
830.802	25982
830.941	25681
831.08	25761
831.219	25909
831.357	25909
831.496	25997
831.635	25955
831.774	25750
831.913	25769
832.051	25784
832.19	25624
832.329	25700
832.467	25445
832.606	25548
832.744	25476
832.883	25582
833.022	25559
833.16	25518
833.299	25556
833.437	25392
833.576	25616
833.714	25674
833.852	25643
833.991	25635
834.129	25666
834.267	25647
834.406	25540
834.544	25700
834.682	25525
834.821	25556
834.959	25742
835.097	25548
835.235	25582
835.373	25514
835.511	25590
835.65	25479
835.788	25449
835.926	25171
836.064	25282
836.202	25297
836.34	25400
836.478	25346
836.615	25354
836.753	25434
836.891	25430
837.029	25392
837.167	25099
837.305	25343
837.443	25259
837.58	25171
837.718	25362
837.856	25175
837.993	25183
838.131	25331
838.269	25057
838.406	25103
838.544	25038
838.681	24833
838.819	24947
838.956	24582
839.094	24631
839.231	24623
839.369	24806
839.506	25145
839.643	24939
839.781	24627
839.918	24627
840.055	24627
840.193	24715
840.33	24601
840.467	24616
840.604	24661
840.742	24928
840.879	24407
841.016	24395
841.153	24456
841.29	24631
841.427	24585
841.564	24642
841.701	24578
841.838	24570
841.975	24372
842.112	24452
842.249	24304
842.385	24369
842.522	24631
842.659	24388
842.796	24300
842.933	24399
843.069	24350
843.206	24330
843.343	24437
843.479	24266
843.616	24262
843.752	24072
843.889	24076
844.025	24327
844.162	23965
844.298	24224
844.435	24174
844.571	24038
844.708	24186
844.844	24292
844.98	24194
845.117	24174
845.253	24106
845.389	23939
845.525	23901
845.661	23942
845.798	23855
845.934	23824
846.07	23741
846.206	23996
846.342	23939
846.478	23722
846.614	23646
846.75	23634
846.886	23531
847.022	23707
847.158	23516
847.294	23573
847.429	23562
847.565	23585
847.701	23760
847.837	23299
847.972	23159
848.108	23250
848.244	23490
848.379	23227
848.515	23075
848.65	23113
848.786	23200
848.921	23128
849.057	23174
849.192	23330
849.328	23208
849.463	23052
849.598	23117
849.734	22965
849.869	23003
850.004	22934
850.14	23044
850.275	22839
850.41	22908
850.545	22850
850.68	22797
850.815	22904
850.95	22957
851.085	23018
851.22	22942
851.355	22908
851.49	22835
851.625	22904
851.76	22889
851.895	22938
852.03	22812
852.165	22858
852.299	22839
852.434	22987
852.569	22930
852.703	22892
852.838	22972
852.973	23033
853.107	22991
853.242	22752
853.376	22733
853.511	22504
853.645	22561
853.78	22824
853.914	22702
854.048	22660
854.183	22729
854.317	22866
854.451	22812
854.585	22679
854.72	22744
854.854	22725
854.988	22561
855.122	22725
855.256	22512
855.39	22736
855.524	22725
855.658	22729
855.792	22767
855.926	22748
856.06	22767
856.194	22809
856.327	22573
856.461	22603
856.595	22630
856.729	22763
856.862	22869
856.996	22793
857.13	22717
857.263	22881
857.397	22767
857.53	22752
857.664	22797
857.797	22790
857.931	22774
858.064	22820
858.197	22877
858.331	22649
858.464	22630
858.597	22687
858.731	22675
858.864	22744
858.997	22656
859.13	22668
859.263	22603
859.396	22786
859.529	22729
859.662	22679
859.795	22683
859.928	22786
860.061	22809
860.194	22919
860.327	22694
860.46	22805
860.592	22752
860.725	22911
860.858	22889
860.99	22668
861.123	22573
861.256	22607
861.388	22672
861.521	23463
861.653	22599
861.786	22546
861.918	22519
862.05	22512
862.183	22584
862.315	22531
862.447	22672
862.58	22672
862.712	22379
862.844	22360
862.976	22504
863.108	22554
863.24	22915
863.372	22394
863.504	22344
863.636	22538
863.768	22432
863.9	22470
864.032	22352
864.164	22405
864.296	22424
864.428	22550
864.559	22424
864.691	22295
864.823	22413
864.954	22421
865.086	22360
865.217	22352
865.349	22261
865.48	22238
865.612	22348
865.743	22367
865.875	22413
866.006	22223
866.137	22204
866.269	22173
866.4	22352
866.531	22318
866.662	22325
866.793	22272
866.924	22105
867.055	22219
867.186	22116
867.317	22261
867.448	22169
867.579	22173
867.71	22032
867.841	22112
867.972	22135
868.103	22295
868.233	22318
868.364	22188
868.495	22348
868.625	22394
868.756	22615
868.886	22535
869.017	22379
869.147	22634
869.278	22637
869.408	22584
869.539	22402
869.669	22447
869.799	22596
869.929	22637
870.06	22363
870.19	22721
870.32	22797
870.45	22847
870.58	22816
870.71	22991
870.84	22968
870.97	22835
871.1	22828
871.23	22976
871.36	23136
871.489	23003
871.619	22968
871.749	23079
871.879	23060
872.008	23124
872.138	22930
872.267	23067
872.397	22885
872.526	22866
872.656	22919
872.785	22877
872.915	23041
873.044	23128
873.173	22980
873.303	23181
873.432	23140
873.561	23242
873.69	22999
873.819	22995
873.948	23143
874.077	23033
874.206	23098
874.335	23143
874.464	23178
874.593	23311
874.722	23353
874.851	23239
874.979	23364
875.108	23372
875.237	23296
875.365	23235
875.494	23208
875.623	23334
875.751	23239
875.88	23315
876.008	23345
876.136	23512
876.265	23657
876.393	23764
876.521	23649
876.65	23779
876.778	23611
876.906	23478
877.034	23524
877.162	23627
877.29	23573
877.418	23581
877.546	23642
877.674	23726
877.802	23642
877.93	23562
878.058	23516
878.185	23452
878.313	23531
878.441	23478
878.568	23535
878.696	23543
878.824	23653
878.951	23687
879.079	23767
879.206	23912
879.333	23741
879.461	23699
879.588	23794
879.715	23798
879.842	23923
879.97	23798
880.097	23356
880.224	23341
880.351	23539
880.478	23577
880.605	23414
880.732	23440
880.859	23733
880.986	23448
881.112	23406
881.239	23227
881.366	23140
881.493	23037
881.619	22915
881.746	23025
881.872	23041
881.999	22923
882.125	22908
882.252	22877
882.378	22938
882.505	23117
882.631	22782
882.757	22755
882.883	22801
883.01	22790
883.136	22493
883.262	22622
883.388	22523
883.514	22698
883.64	22721
883.766	22607
883.892	22485
884.018	22531
884.143	22527
884.269	22653
884.395	22382
884.52	22325
884.646	22276
884.772	22402
884.897	22109
885.023	22322
885.148	22310
885.274	22390
885.399	22341
885.524	22348
885.65	22303
885.775	22306
885.9	22253
886.025	22363
886.15	22325
886.275	22162
886.4	22268
886.525	22169
886.65	22143
886.775	22265
886.9	22402
887.025	22337
887.149	22257
887.274	22169
887.399	22120
887.523	22101
887.648	21884
887.773	21926
887.897	22211
888.021	21968
888.146	22120
888.27	22135
888.395	22116
888.519	22048
888.643	22162
888.767	21987
888.891	21998
889.015	21812
889.139	21983
889.263	21915
889.387	22040
889.511	21956
889.635	21968
889.759	21778
889.883	21743
890.006	21865
890.13	21899
890.254	21728
890.377	21804
890.501	21671
890.624	21515
890.748	21690
890.871	21599
890.995	21389
891.118	21340
891.241	21370
891.364	21443
891.488	21469
891.611	21332
891.734	21496
891.857	21428
891.98	21363
892.103	21412
892.226	21329
892.349	21363
892.471	21195
892.594	21230
892.717	21401
892.839	21256
892.962	21325
893.085	21351
893.207	21237
893.33	21325
893.452	21245
893.575	21332
893.697	21317
893.819	21443
893.941	21412
894.064	21477
894.186	21264
894.308	21180
894.43	21351
894.552	21447
894.674	21306
894.796	21230
894.918	21279
895.04	21237
895.161	21291
895.283	21363
895.405	21169
895.526	21195
895.648	21260
895.769	21272
895.891	21294
896.012	21447
896.134	21249
896.255	21211
896.376	21195
896.498	21237
896.619	21321
896.74	21268
896.861	21245
896.982	21500
897.103	21865
897.224	21568
897.345	21500
897.466	21435
897.587	21595
897.708	21492
897.828	21538
897.949	21256
898.07	21249
898.19	21313
898.311	21473
898.431	21363
898.552	21401
898.672	21504
898.792	21481
898.913	21393
899.033	21386
899.153	21264
899.273	21135
899.393	21233
899.513	21203
899.633	21207
899.753	21222
899.873	21127
899.993	21123
900.113	21135
900.232	21184
900.352	21062
900.472	20967
900.591	20838
900.711	20979
900.83	20880
900.95	20921
901.069	21013
901.189	20830
901.308	20587
901.427	20476
901.546	20469
901.665	20590
901.784	20541
901.904	20294
902.023	20275
902.141	20153
902.26	19993
902.379	20244
902.498	19963
902.617	19902
902.735	20077
902.854	19871
902.973	20005
903.091	19727
903.21	19696
903.328	19677
903.446	19594
903.565	19392
903.683	19468
903.801	19422
903.919	19457
904.038	19324
904.156	19171
904.274	19369
904.392	19034
904.51	19183
904.627	19190
904.745	19266
904.863	19297
904.981	19019
905.098	18958
905.216	18939
905.334	18894
905.451	18856
905.569	18859
905.686	18890
905.803	18817
905.921	18688
906.038	18703
906.155	18650
906.272	18582
906.389	18627
906.506	18399
906.623	18448
906.74	18441
906.857	18315
906.974	18369
907.091	18384
907.208	18475
907.324	18330
907.441	18391
907.557	18254
907.674	18102
907.79	18038
907.907	18003
908.023	18133
908.139	18106
908.256	18087
908.372	17984
908.488	17901
908.604	17859
908.72	17870
908.836	17794
908.952	17748
909.068	17923
909.184	17885
909.3	17897
909.415	17866
909.531	17863
909.647	17562
909.762	17577
909.878	17649
909.993	17509
910.108	17543
910.224	17440
910.339	17467
910.454	17269
910.57	17261
910.685	17242
910.8	17463
910.915	17463
911.03	17223
911.145	17025
911.259	17086
911.374	17052
911.489	16976
911.604	16968
911.718	16805
911.833	16854
911.947	16790
912.062	16683
912.176	16786
912.291	16835
912.405	16782
912.519	16984
912.633	16930
912.748	16873
912.862	16885
912.976	16569
913.09	16554
913.204	16569
913.318	16668
913.431	16774
913.545	16694
913.659	16694
913.772	16527
913.886	16573
914	16481
914.113	16527
914.226	16554
914.34	16470
914.453	16348
914.566	16424
914.68	16325
914.793	16272
914.906	16071
915.019	16021
915.132	16002
915.245	16040
915.358	15987
915.47	16017
915.583	15979
915.696	15907
915.809	16067
915.921	16112
916.034	15865
916.146	15854
916.259	15789
916.371	15956
916.483	15907
916.595	15797
916.708	15865
916.82	15785
916.932	15732
917.044	15728
917.156	15663
917.268	15720
917.38	15599
917.491	15618
917.603	15656
917.715	15755
917.826	15770
917.938	15545
918.049	15431
918.161	15549
918.272	15629
918.384	15648
918.495	15591
918.606	15435
918.717	15302
918.828	15332
918.939	15359
919.05	15275
919.161	15420
919.272	15081
919.383	15214
919.494	15355
919.604	15587
919.715	15310
919.826	15138
919.936	15359
920.047	15317
920.157	15275
920.267	15530
920.378	15325
920.488	15214
920.598	15469
920.708	15580
920.818	15420
920.928	15416
921.038	15526
921.148	15656
921.258	15245
921.368	15184
921.477	15074
921.587	15123
921.697	14960
921.806	15039
921.916	14887
922.025	14720
922.134	14708
922.244	14705
922.353	14655
922.462	14461
922.571	14412
922.68	14301
922.789	14252
922.898	14305
923.007	14358
923.116	14362
923.224	14218
923.333	14229
923.442	14164
923.55	14119
923.659	14130
923.767	14126
923.876	14069
923.984	14206
924.092	13932
924.201	13986
924.309	13959
924.417	14058
924.525	13913
924.633	13944
924.741	14902
924.849	13772
924.956	13898
925.064	13719
925.172	13643
925.279	13674
925.387	13780
925.494	13639
925.602	13856
925.709	13753
925.816	13590
925.924	13544
926.031	13685
926.138	13616
926.245	13677
926.352	13502
926.459	13582
926.566	13708
926.673	13480
926.779	13350
926.886	13476
926.993	13187
927.099	13282
927.206	13266
927.312	13141
927.419	13263
927.525	13194
927.631	13194
927.737	13118
927.843	13110
927.95	12939
928.056	13069
928.162	13061
928.267	13065
928.373	13651
928.479	13076
928.585	12871
928.69	12916
928.796	13012
928.901	12859
929.007	12738
929.112	12886
929.218	12875
929.323	12798
929.428	12753
929.533	12916
929.638	12688
929.743	12688
929.848	12738
929.953	12669
930.058	12646
930.163	12353
930.267	12471
930.372	12483
930.477	12391
930.581	12563
930.685	12369
930.79	12266
930.894	12235
930.998	12289
931.103	12490
931.207	11965
931.311	12022
931.415	11832
931.519	11642
931.623	11680
