Data from test_V78500241_2501.txt Node
Date: Fri Mar 25 15:59:07 CST 2022
User: usil
Spectrometer: V785-0024
Trigger mode: 0
Integration Time (sec): 4.000000E-1
Scans to average: 1
Nonlinearity correction enabled: false
Boxcar width: 0
Storing dark spectrum: false
XAxis mode: Wavelengths
Number of Pixels in Spectrum: 1024
>>>>>Begin Spectral Data<<<<<
801.071	28116
801.214	28105
801.356	27975
801.499	27800
801.641	27827
801.783	27698
801.926	27781
802.068	27701
802.211	27629
802.353	27679
802.496	27397
802.638	27481
802.78	27412
802.923	27332
803.065	27268
803.208	27260
803.35	27336
803.492	27629
803.635	27580
803.777	27515
803.919	27625
804.061	28036
804.204	27701
804.346	27488
804.488	27629
804.63	27629
804.773	27469
804.915	27717
805.057	27789
805.199	27500
805.341	27789
805.483	27774
805.626	27743
805.768	27656
805.91	27781
806.052	27709
806.194	27766
806.336	27797
806.478	27846
806.62	27679
806.762	27911
806.904	27968
807.046	28303
807.188	28246
807.33	28185
807.472	28207
807.614	28200
807.756	28246
807.898	28040
808.04	28002
808.182	28040
808.324	28025
808.465	28105
808.607	28360
808.749	28428
808.891	28538
809.033	28592
809.174	28470
809.316	28363
809.458	28550
809.6	28367
809.741	28481
809.883	28668
810.025	28691
810.166	28596
810.308	28679
810.45	28645
810.591	28653
810.733	28478
810.875	28527
811.016	28272
811.158	28348
811.299	28413
811.441	28573
811.582	28698
811.724	28489
811.865	28207
812.007	28417
812.148	28409
812.29	28356
812.431	28565
812.573	28752
812.714	28774
812.855	28968
812.997	29105
813.138	29227
813.279	28946
813.421	29052
813.562	28809
813.703	28588
813.845	28706
813.986	28257
814.127	28188
814.268	28032
814.41	28112
814.551	28070
814.692	28314
814.833	28143
814.974	28093
815.115	28230
815.256	27922
815.397	27968
815.539	27934
815.68	27934
815.821	27842
815.962	27914
816.103	27880
816.244	27686
816.385	27656
816.526	27736
816.666	27416
816.807	27351
816.948	27519
817.089	27580
817.23	27439
817.371	27378
817.512	27416
817.653	27378
817.793	27218
817.934	27359
818.075	27420
818.216	27378
818.356	27348
818.497	27230
818.638	27085
818.778	27268
818.919	27306
819.06	27241
819.2	27218
819.341	27359
819.481	27344
819.622	27591
819.762	27720
819.903	27694
820.043	27587
820.184	27515
820.324	27553
820.465	27603
820.605	27504
820.746	27462
820.886	27252
821.026	27393
821.167	27359
821.307	27450
821.447	27523
821.588	27401
821.728	27176
821.868	26975
822.008	26811
822.149	26899
822.289	26842
822.429	26693
822.569	26587
822.709	26636
822.849	26286
822.99	26476
823.13	26377
823.27	26328
823.41	26172
823.55	26130
823.69	26195
823.83	26301
823.97	26233
824.11	26096
824.25	25959
824.389	26149
824.529	26058
824.669	25959
824.809	26115
824.949	26240
825.089	26199
825.228	26145
825.368	25784
825.508	25917
825.648	26020
825.787	25928
825.927	25898
826.067	25871
826.206	25887
826.346	25909
826.485	26016
826.625	25928
826.765	25959
826.904	25944
827.044	25563
827.183	25727
827.323	25601
827.462	25723
827.601	25658
827.741	25594
827.88	25544
828.02	25483
828.159	25696
828.298	25563
828.437	25594
828.577	25559
828.716	25757
828.855	25362
828.994	25381
829.134	25263
829.273	25415
829.412	25327
829.551	25251
829.69	25240
829.829	25358
829.968	25320
830.107	25400
830.246	25289
830.385	25217
830.524	25148
830.663	25069
830.802	25034
830.941	24913
831.08	24871
831.219	24962
831.357	25050
831.496	25012
831.635	24844
831.774	24768
831.913	24844
832.051	24620
832.19	24768
832.329	24681
832.467	24719
832.606	24532
832.744	24551
832.883	24566
833.022	24513
833.16	24498
833.299	24559
833.437	24627
833.576	24673
833.714	24661
833.852	24654
833.991	24650
834.129	24738
834.267	24734
834.406	24620
834.544	24642
834.682	24631
834.821	24498
834.959	24631
835.097	24498
835.235	24661
835.373	24597
835.511	24639
835.65	24410
835.788	24551
835.926	24361
836.064	24247
836.202	24479
836.34	24437
836.478	24578
836.615	24547
836.753	24441
836.891	24505
837.029	24490
837.167	24528
837.305	24239
837.443	24247
837.58	24258
837.718	24448
837.856	24422
837.993	24285
838.131	24281
838.269	24171
838.406	24216
838.544	24178
838.681	24053
838.819	23954
838.956	23836
839.094	23783
839.231	23668
839.369	23996
839.506	24209
839.643	24011
839.781	23592
839.918	23794
840.055	23745
840.193	23726
840.33	23608
840.467	23638
840.604	23741
840.742	23950
840.879	23459
841.016	23596
841.153	23585
841.29	23646
841.427	23786
841.564	23687
841.701	23722
841.838	23760
841.975	23459
842.112	23535
842.249	23452
842.385	23414
842.522	23634
842.659	23501
842.796	23349
842.933	23463
843.069	23334
843.206	23330
843.343	23326
843.479	23509
843.616	23436
843.752	23239
843.889	23239
844.025	23307
844.162	23204
844.298	23288
844.435	23288
844.571	23250
844.708	23269
844.844	23349
844.98	23334
845.117	23147
845.253	23159
845.389	23166
845.525	23170
845.661	23071
845.798	22873
845.934	22942
846.07	22927
846.206	22904
846.342	23048
846.478	22828
846.614	22710
846.75	22637
846.886	22592
847.022	22774
847.158	22748
847.294	22622
847.429	22805
847.565	22493
847.701	22793
847.837	22527
847.972	22371
848.108	22554
848.244	22470
848.379	22284
848.515	22185
848.65	22169
848.786	22200
848.921	22246
849.057	22299
849.192	22322
849.328	22390
849.463	22204
849.598	22017
849.734	22234
849.869	22036
850.004	22036
850.14	22059
850.275	22013
850.41	21888
850.545	22010
850.68	21835
850.815	22074
850.95	21918
851.085	22196
851.22	22173
851.355	22032
851.49	22013
851.625	21968
851.76	22040
851.895	21903
852.03	21979
852.165	21953
852.299	22074
852.434	22124
852.569	22040
852.703	21979
852.838	22078
852.973	22078
853.107	22204
853.242	21873
853.376	21911
853.511	21724
853.645	21899
853.78	22032
853.914	21846
854.048	21781
854.183	21785
854.317	21846
854.451	21892
854.585	21911
854.72	21819
854.854	21994
854.988	21667
855.122	21869
855.256	21701
855.39	21827
855.524	21903
855.658	21884
855.792	21892
855.926	21854
856.06	21987
856.194	21956
856.327	21808
856.461	21789
856.595	21701
856.729	21831
856.862	22036
856.996	21876
857.13	21903
857.263	21937
857.397	21994
857.53	21888
857.664	21903
857.797	21915
857.931	21911
858.064	21941
858.197	21861
858.331	21808
858.464	21895
858.597	21713
858.731	21827
858.864	21850
858.997	21816
859.13	21808
859.263	21766
859.396	21846
859.529	21835
859.662	21774
859.795	21804
859.928	21823
860.061	21987
860.194	22105
860.327	21964
860.46	21873
860.592	21968
860.725	22063
860.858	21972
860.99	21911
861.123	21618
861.256	21831
861.388	21854
861.521	22637
861.653	21629
861.786	21766
861.918	21534
862.05	21667
862.183	21835
862.315	21774
862.447	21972
862.58	21800
862.712	21504
862.844	21534
862.976	21838
863.108	21614
863.24	21949
863.372	21526
863.504	21583
863.636	21583
863.768	21610
863.9	21610
864.032	21447
864.164	21549
864.296	21656
864.428	21629
864.559	21709
864.691	21610
864.823	21523
864.954	21473
865.086	21587
865.217	21477
865.349	21401
865.48	21511
865.612	21412
865.743	21633
865.875	21359
866.006	21408
866.137	21473
866.269	21408
866.4	21435
866.531	21374
866.662	21245
866.793	21370
866.924	21264
867.055	21332
867.186	21382
867.317	21329
867.448	21199
867.579	21439
867.71	21287
867.841	21203
867.972	21344
868.103	21393
868.233	21477
868.364	21355
868.495	21412
868.625	21644
868.756	21679
868.886	21515
869.017	21618
869.147	21656
869.278	21747
869.408	21580
869.539	21511
869.669	21751
869.799	21671
869.929	21781
870.06	21682
870.19	21850
870.32	21835
870.45	22059
870.58	21975
870.71	22109
870.84	22109
870.97	21903
871.1	21968
871.23	22173
871.36	22188
871.489	22154
871.619	22143
871.749	22238
871.879	22261
872.008	22375
872.138	22207
872.267	22211
872.397	22135
872.526	22036
872.656	21979
872.785	21926
872.915	22337
873.044	22268
873.173	22268
873.303	22177
873.432	22352
873.561	22211
873.69	22226
873.819	22207
873.948	22314
874.077	22325
874.206	22207
874.335	22192
874.464	22272
874.593	22500
874.722	22394
874.851	22428
874.979	22516
875.108	22542
875.237	22371
875.365	22299
875.494	22516
875.623	22474
875.751	22440
875.88	22409
876.008	22565
876.136	22706
876.265	22812
876.393	22850
876.521	22949
876.65	22953
876.778	22847
876.906	22835
877.034	22763
877.162	22763
877.29	22854
877.418	22873
877.546	22809
877.674	22881
877.802	22763
877.93	22824
878.058	22679
878.185	22653
878.313	22611
878.441	22763
878.568	22645
878.696	22672
878.824	22812
878.951	22949
879.079	22930
879.206	23052
879.333	22987
879.461	22786
879.588	22889
879.715	22949
879.842	23132
879.97	22820
880.097	22717
880.224	22668
880.351	22668
880.478	22729
880.605	22512
880.732	22679
880.859	22828
880.986	22580
881.112	22698
881.239	22474
881.366	22405
881.493	22272
881.619	22200
881.746	22109
881.872	22219
881.999	22093
882.125	22143
882.252	22188
882.378	22185
882.505	22284
882.631	22158
882.757	21934
882.883	21880
883.01	21816
883.136	21873
883.262	21766
883.388	21667
883.514	21903
883.64	21804
883.766	21793
883.892	21641
884.018	21755
884.143	21880
884.269	21823
884.395	21622
884.52	21561
884.646	21603
884.772	21458
884.897	21397
885.023	21443
885.148	21622
885.274	21709
885.399	21557
885.524	21515
885.65	21587
885.775	21648
885.9	21443
886.025	21682
886.15	21523
886.275	21393
886.4	21591
886.525	21363
886.65	21450
886.775	21374
886.9	21629
887.025	21671
887.149	21447
887.274	21302
887.399	21310
887.523	21340
887.648	20998
887.773	21051
887.897	21214
888.021	21214
888.146	21123
888.27	21351
888.395	21382
888.519	21408
888.643	21313
888.767	21272
888.891	21226
889.015	21176
889.139	21093
889.263	21077
889.387	21214
889.511	21264
889.635	21268
889.759	21081
889.883	21066
890.006	21085
890.13	21112
890.254	20910
890.377	21005
890.501	20811
890.624	20804
890.748	20872
890.871	20777
890.995	20587
891.118	20541
891.241	20625
891.364	20579
891.488	20697
891.611	20739
891.734	20606
891.857	20720
891.98	20537
892.103	20682
892.226	20663
892.349	20648
892.471	20412
892.594	20579
892.717	20590
892.839	20579
892.962	20545
893.085	20644
893.207	20545
893.33	20465
893.452	20419
893.575	20552
893.697	20454
893.819	20651
893.941	20674
894.064	20697
894.186	20434
894.308	20389
894.43	20602
894.552	20769
894.674	20648
894.796	20366
894.918	20640
895.04	20537
895.161	20568
895.283	20473
895.405	20423
895.526	20587
895.648	20564
895.769	20590
895.891	20476
896.012	20663
896.134	20644
896.255	20621
896.376	20461
896.498	20522
896.619	20514
896.74	20514
896.861	20545
896.982	20830
897.103	20948
897.224	20762
897.345	20750
897.466	20689
897.587	20708
897.708	20838
897.828	20724
897.949	20625
898.07	20454
898.19	20712
898.311	20773
898.431	20716
898.552	20750
898.672	20750
898.792	20712
898.913	20686
899.033	20488
899.153	20537
899.273	20290
899.393	20503
899.513	20587
899.633	20575
899.753	20552
899.873	20454
899.993	20571
900.113	20412
900.232	20446
900.352	20438
900.472	20240
900.591	20256
900.711	20237
900.83	20237
900.95	20313
901.069	20195
901.189	20153
901.308	19940
901.427	19909
901.546	19784
901.665	19830
901.784	19837
901.904	19727
902.023	19609
902.141	19373
902.26	19308
902.379	19301
902.498	19266
902.617	19301
902.735	19350
902.854	19232
902.973	19209
903.091	18996
903.21	19034
903.328	19019
903.446	18951
903.565	18840
903.683	18825
903.801	18715
903.919	18833
904.038	18821
904.156	18532
904.274	18639
904.392	18544
904.51	18498
904.627	18563
904.745	18608
904.863	18627
904.981	18319
905.098	18292
905.216	18220
905.334	18338
905.451	18308
905.569	18285
905.686	18296
905.803	18243
905.921	17984
906.038	18057
906.155	18007
906.272	17950
906.389	18022
906.506	17889
906.623	17786
906.74	17771
906.857	17737
906.974	17657
907.091	17836
907.208	17752
907.324	17813
907.441	17672
907.557	17539
907.674	17524
907.79	17345
907.907	17493
908.023	17543
908.139	17459
908.256	17364
908.372	17395
908.488	17379
908.604	17136
908.72	17216
908.836	17155
908.952	17239
909.068	17170
909.184	17307
909.3	17223
909.415	17254
909.531	17220
909.647	16946
909.762	16927
909.878	16881
909.993	16873
910.108	16828
910.224	16790
910.339	16816
910.454	16763
910.57	16618
910.685	16664
910.8	16881
910.915	16828
911.03	16713
911.145	16493
911.259	16565
911.374	16455
911.489	16352
911.604	16379
911.718	16230
911.833	16249
911.947	16120
912.062	16139
912.176	16204
912.291	16314
912.405	16162
912.519	16371
912.633	16497
912.748	16284
912.862	16280
912.976	16078
913.09	15991
913.204	15972
913.318	15987
913.431	16158
913.545	16177
913.659	16135
913.772	15937
913.886	15831
914	15823
914.113	15876
914.226	15949
914.34	15956
914.453	15747
914.566	15850
914.68	15751
914.793	15667
914.906	15443
915.019	15428
915.132	15408
915.245	15450
915.358	15477
915.47	15386
915.583	15420
915.696	15496
915.809	15625
915.921	15568
916.034	15420
916.146	15359
916.259	15275
916.371	15431
916.483	15378
916.595	15268
916.708	15325
916.82	15180
916.932	15268
917.044	15222
917.156	15203
917.268	15089
917.38	15066
917.491	15005
917.603	15176
917.715	15180
917.826	15146
917.938	15024
918.049	14800
918.161	14979
918.272	15233
918.384	15233
918.495	14876
918.606	14811
918.717	14811
918.828	14891
918.939	14842
919.05	14777
919.161	14773
919.272	14632
919.383	14762
919.494	14781
919.604	14918
919.715	14777
919.826	14663
919.936	14773
920.047	14845
920.157	14876
920.267	15058
920.378	14724
920.488	14845
920.598	14948
920.708	15169
920.818	14944
920.928	14906
921.038	15070
921.148	14933
921.258	14689
921.368	14724
921.477	14606
921.587	14507
921.697	14473
921.806	14552
921.916	14385
922.025	14206
922.134	14176
922.244	14115
922.353	14195
922.462	14016
922.571	14088
922.68	13799
922.789	13833
922.898	13811
923.007	13791
923.116	13909
923.224	13780
923.333	13715
923.442	13632
923.55	13708
923.659	13609
923.767	13677
923.876	13563
923.984	13620
924.092	13464
924.201	13533
924.309	13540
924.417	13480
924.525	13472
924.633	13468
924.741	14161
924.849	13301
924.956	13343
925.064	13354
925.172	13076
925.279	13168
925.387	13251
925.494	13225
925.602	13228
925.709	13263
925.816	13175
925.924	13129
926.031	13118
926.138	13175
926.245	13160
926.352	13122
926.459	13171
926.566	13171
926.673	13057
926.779	13084
926.886	12928
926.993	12837
927.099	12719
927.206	12692
927.312	12722
927.419	12901
927.525	12722
927.631	12757
927.737	12650
927.843	12658
927.95	12475
928.056	12525
928.162	12608
928.267	12612
928.373	13168
928.479	12623
928.585	12422
928.69	12521
928.796	12585
928.901	12479
929.007	12311
929.112	12464
929.218	12391
929.323	12289
929.428	12262
929.533	12441
929.638	12152
929.743	12251
929.848	12342
929.953	12239
930.058	12148
930.163	11935
930.267	12068
930.372	12102
930.477	11904
930.581	12197
930.685	12011
930.79	11916
930.894	11935
930.998	11840
931.103	11984
931.207	11623
931.311	11600
931.415	11486
931.519	11254
931.623	11258
