Data from test_V78500241_2448.txt Node
Date: Fri Mar 25 15:58:45 CST 2022
User: usil
Spectrometer: V785-0024
Trigger mode: 0
Integration Time (sec): 4.000000E-1
Scans to average: 1
Nonlinearity correction enabled: false
Boxcar width: 0
Storing dark spectrum: false
XAxis mode: Wavelengths
Number of Pixels in Spectrum: 1024
>>>>>Begin Spectral Data<<<<<
801.071	28923
801.214	28843
801.356	28622
801.499	28611
801.641	28428
801.783	28500
801.926	28504
802.068	28447
802.211	28390
802.353	28276
802.496	28230
802.638	28185
802.78	28048
802.923	28017
803.065	27964
803.208	28051
803.35	28135
803.492	28246
803.635	28459
803.777	28284
803.919	28356
804.061	28546
804.204	28512
804.346	28344
804.488	28367
804.63	28375
804.773	28226
804.915	28596
805.057	28535
805.199	28306
805.341	28508
805.483	28443
805.626	28523
805.768	28440
805.91	28577
806.052	28573
806.194	28531
806.336	28653
806.478	28557
806.62	28474
806.762	28592
806.904	28774
807.046	29064
807.188	29003
807.33	28957
807.472	29200
807.614	28953
807.756	28965
807.898	28786
808.04	28812
808.182	28782
808.324	28816
808.465	28858
808.607	29147
808.749	29185
808.891	29334
809.033	29395
809.174	29246
809.316	29094
809.458	29288
809.6	29307
809.741	29315
809.883	29235
810.025	29512
810.166	29524
810.308	29524
810.45	29516
810.591	29353
810.733	29299
810.875	29223
811.016	29113
811.158	29212
811.299	29307
811.441	29497
811.582	29410
811.724	29296
811.865	29235
812.007	29330
812.148	29227
812.29	29235
812.431	29551
812.573	29687
812.714	29783
812.855	29771
812.997	29878
813.138	30072
813.279	29889
813.421	29870
813.562	29668
813.703	29478
813.845	29440
813.986	29299
814.127	29003
814.268	29094
814.41	28904
814.551	29022
814.692	29052
814.833	28812
814.974	28805
815.115	29075
815.256	28919
815.397	28858
815.539	28892
815.68	28797
815.821	28748
815.962	28858
816.103	28850
816.244	28611
816.385	28557
816.526	28607
816.666	28413
816.807	28166
816.948	28493
817.089	28440
817.23	28200
817.371	28265
817.512	28246
817.653	28265
817.793	28147
817.934	28303
818.075	28306
818.216	28333
818.356	28181
818.497	28086
818.638	28010
818.778	28036
818.919	28013
819.06	28029
819.2	28192
819.341	28325
819.481	28371
819.622	28516
819.762	28733
819.903	28512
820.043	28352
820.184	28493
820.324	28440
820.465	28401
820.605	28436
820.746	28497
820.886	28417
821.026	28379
821.167	28360
821.307	28440
821.447	28360
821.588	28082
821.728	28101
821.868	27880
822.008	27720
822.149	27835
822.289	27770
822.429	27534
822.569	27511
822.709	27511
822.849	27287
822.99	27310
823.13	27374
823.27	27230
823.41	27157
823.55	27036
823.69	27047
823.83	27100
823.97	27058
824.11	26868
824.25	26956
824.389	26971
824.529	27108
824.669	27024
824.809	27062
824.949	27135
825.089	26967
825.228	26929
825.368	26876
825.508	26891
825.648	26754
825.787	26842
825.927	26880
826.067	26857
826.206	26788
826.346	26891
826.485	26857
826.625	26819
826.765	26762
826.904	26792
827.044	26590
827.183	26598
827.323	26564
827.462	26640
827.601	26583
827.741	26621
827.88	26560
828.02	26347
828.159	26571
828.298	26431
828.437	26518
828.577	26537
828.716	26598
828.855	26465
828.994	26187
829.134	26240
829.273	26263
829.412	26210
829.551	26084
829.69	26294
829.829	26252
829.968	26313
830.107	26187
830.246	26206
830.385	26161
830.524	26142
830.663	25928
830.802	25791
830.941	25959
831.08	25780
831.219	25830
831.357	25909
831.496	26050
831.635	25750
831.774	25837
831.913	25689
832.051	25655
832.19	25662
832.329	25571
832.467	25476
832.606	25521
832.744	25483
832.883	25506
833.022	25400
833.16	25453
833.299	25582
833.437	25552
833.576	25460
833.714	25556
833.852	25578
833.991	25696
834.129	25750
834.267	25734
834.406	25537
834.544	25518
834.682	25521
834.821	25426
834.959	25685
835.097	25499
835.235	25578
835.373	25537
835.511	25582
835.65	25419
835.788	25316
835.926	25331
836.064	25213
836.202	25232
836.34	25396
836.478	25422
836.615	25266
836.753	25373
836.891	25506
837.029	25316
837.167	25183
837.305	25335
837.443	25194
837.58	25293
837.718	25270
837.856	25270
837.993	25095
838.131	25217
838.269	25099
838.406	25072
838.544	25004
838.681	24856
838.819	24810
838.956	24631
839.094	24673
839.231	24669
839.369	24806
839.506	24924
839.643	24890
839.781	24711
839.918	24502
840.055	24642
840.193	24604
840.33	24448
840.467	24589
840.604	24719
840.742	24935
840.879	24544
841.016	24418
841.153	24502
841.29	24673
841.427	24623
841.564	24726
841.701	24585
841.838	24559
841.975	24437
842.112	24509
842.249	24342
842.385	24422
842.522	24597
842.659	24467
842.796	24350
842.933	24338
843.069	24270
843.206	24201
843.343	24422
843.479	24380
843.616	24342
843.752	24243
843.889	24110
844.025	24228
844.162	24015
844.298	24072
844.435	24083
844.571	24136
844.708	24152
844.844	24053
844.98	24178
845.117	24110
845.253	23954
845.389	23863
845.525	24018
845.661	23840
845.798	23828
845.934	23901
846.07	23805
846.206	23832
846.342	24045
846.478	23817
846.614	23611
846.75	23570
846.886	23474
847.022	23611
847.158	23619
847.294	23509
847.429	23520
847.565	23497
847.701	23802
847.837	23307
847.972	23239
848.108	23360
848.244	23311
848.379	23208
848.515	23090
848.65	23212
848.786	23235
848.921	23132
849.057	23174
849.192	23204
849.328	23143
849.463	23204
849.598	23044
849.734	23071
849.869	22976
850.004	22904
850.14	22995
850.275	22953
850.41	22809
850.545	22793
850.68	22843
850.815	22953
850.95	22858
851.085	23041
851.22	22896
851.355	22911
851.49	22873
851.625	22755
851.76	22850
851.895	22809
852.03	22736
852.165	23067
852.299	22915
852.434	22968
852.569	23010
852.703	22953
852.838	23003
852.973	23052
853.107	22984
853.242	22778
853.376	22748
853.511	22637
853.645	22740
853.78	22854
853.914	22763
854.048	22698
854.183	22733
854.317	22672
854.451	22911
854.585	22763
854.72	22824
854.854	22858
854.988	22736
855.122	22850
855.256	22679
855.39	22702
855.524	22843
855.658	22824
855.792	22877
855.926	22626
856.06	22683
856.194	22816
856.327	22805
856.461	22675
856.595	22752
856.729	22782
856.862	22862
856.996	22896
857.13	22824
857.263	22771
857.397	22862
857.53	22755
857.664	22812
857.797	22820
857.931	22850
858.064	22850
858.197	22809
858.331	22828
858.464	22767
858.597	22424
858.731	22645
858.864	22691
858.997	22580
859.13	22729
859.263	22546
859.396	22820
859.529	22618
859.662	22588
859.795	22721
859.928	22774
860.061	22991
860.194	22839
860.327	22755
860.46	22752
860.592	22812
860.725	22854
860.858	22801
860.99	22710
861.123	22702
861.256	22649
861.388	22744
861.521	23444
861.653	22569
861.786	22592
861.918	22500
862.05	22645
862.183	22687
862.315	22725
862.447	22771
862.58	22615
862.712	22405
862.844	22497
862.976	22493
863.108	22436
863.24	22786
863.372	22394
863.504	22432
863.636	22421
863.768	22603
863.9	22455
864.032	22265
864.164	22440
864.296	22409
864.428	22565
864.559	22596
864.691	22497
864.823	22440
864.954	22417
865.086	22455
865.217	22344
865.349	22257
865.48	22223
865.612	22284
865.743	22386
865.875	22432
866.006	22333
866.137	22303
866.269	22280
866.4	22322
866.531	22303
866.662	22131
866.793	22295
866.924	22284
867.055	22238
867.186	22162
867.317	22211
867.448	22166
867.579	22257
867.71	22158
867.841	22158
867.972	22333
868.103	22143
868.233	22226
868.364	22234
868.495	22367
868.625	22466
868.756	22554
868.886	22341
869.017	22512
869.147	22626
869.278	22645
869.408	22470
869.539	22470
869.669	22535
869.799	22557
869.929	22542
870.06	22664
870.19	22812
870.32	22793
870.45	22923
870.58	22850
870.71	23014
870.84	23048
870.97	22854
871.1	22923
871.23	23010
871.36	23121
871.489	22961
871.619	23132
871.749	23098
871.879	23098
872.008	23140
872.138	23010
872.267	23102
872.397	22809
872.526	22896
872.656	22923
872.785	23105
872.915	23079
873.044	23117
873.173	23170
873.303	23075
873.432	23071
873.561	23277
873.69	23067
873.819	23010
873.948	23083
874.077	23113
874.206	23132
874.335	22984
874.464	23345
874.593	23220
874.722	23288
874.851	23356
874.979	23292
875.108	23417
875.237	23296
875.365	23140
875.494	23273
875.623	23349
875.751	23334
875.88	23318
876.008	23425
876.136	23474
876.265	23710
876.393	23908
876.521	23707
876.65	23843
876.778	23649
876.906	23634
877.034	23596
877.162	23623
877.29	23562
877.418	23687
877.546	23600
877.674	23619
877.802	23638
877.93	23634
878.058	23551
878.185	23566
878.313	23634
878.441	23737
878.568	23414
878.696	23611
878.824	23718
878.951	23722
879.079	23756
879.206	23885
879.333	23767
879.461	23718
879.588	23821
879.715	23684
879.842	23893
879.97	23661
880.097	23436
880.224	23516
880.351	23444
880.478	23467
880.605	23376
880.732	23505
880.859	23726
880.986	23551
881.112	23512
881.239	23258
881.366	23147
881.493	23025
881.619	23067
881.746	23090
881.872	22972
881.999	22934
882.125	22866
882.252	22949
882.378	22889
882.505	23174
882.631	22850
882.757	22713
882.883	22733
883.01	22656
883.136	22656
883.262	22630
883.388	22573
883.514	22641
883.64	22675
883.766	22611
883.892	22470
884.018	22405
884.143	22664
884.269	22691
884.395	22409
884.52	22257
884.646	22371
884.772	22196
884.897	22181
885.023	22223
885.148	22424
885.274	22455
885.399	22341
885.524	22344
885.65	22367
885.775	22287
885.9	22257
886.025	22310
886.15	22352
886.275	22162
886.4	22242
886.525	22318
886.65	22223
886.775	22352
886.9	22394
887.025	22531
887.149	22409
887.274	22105
887.399	22162
887.523	22070
887.648	22006
887.773	22002
887.897	22006
888.021	22154
888.146	21968
888.27	22082
888.395	22234
888.519	22219
888.643	22120
888.767	22116
888.891	21835
889.015	21930
889.139	22044
889.263	21842
889.387	21934
889.511	22147
889.635	22074
889.759	21854
889.883	21823
890.006	21800
890.13	21918
890.254	21854
890.377	21899
890.501	21732
890.624	21606
890.748	21660
890.871	21515
890.995	21477
891.118	21424
891.241	21424
891.364	21363
891.488	21507
891.611	21530
891.734	21542
891.857	21534
891.98	21469
892.103	21405
892.226	21416
892.349	21431
892.471	21218
892.594	21412
892.717	21321
892.839	21317
892.962	21405
893.085	21408
893.207	21310
893.33	21188
893.452	21329
893.575	21256
893.697	21089
893.819	21332
893.941	21447
894.064	21462
894.186	21275
894.308	21203
894.43	21359
894.552	21393
894.674	21348
894.796	21268
894.918	21176
895.04	21268
895.161	21340
895.283	21389
895.405	21161
895.526	21340
895.648	21188
895.769	21317
895.891	21249
896.012	21275
896.134	21332
896.255	21294
896.376	21302
896.498	21252
896.619	21302
896.74	21264
896.861	21291
896.982	21576
897.103	21701
897.224	21504
897.345	21439
897.466	21492
897.587	21504
897.708	21599
897.828	21454
897.949	21408
898.07	21256
898.19	21374
898.311	21397
898.431	21348
898.552	21485
898.672	21477
898.792	21454
898.913	21462
899.033	21340
899.153	21272
899.273	21260
899.393	21233
899.513	21313
899.633	21089
899.753	21146
899.873	21066
899.993	21188
900.113	21100
900.232	21199
900.352	21146
900.472	21043
900.591	20887
900.711	20986
900.83	20906
900.95	21039
901.069	21024
901.189	20864
901.308	20678
901.427	20488
901.546	20537
901.665	20545
901.784	20526
901.904	20431
902.023	20313
902.141	20077
902.26	20107
902.379	20077
902.498	20054
902.617	19970
902.735	20054
902.854	19913
902.973	20081
903.091	19761
903.21	19696
903.328	19693
903.446	19601
903.565	19552
903.683	19426
903.801	19483
903.919	19415
904.038	19343
904.156	19282
904.274	19304
904.392	19240
904.51	19209
904.627	19278
904.745	19320
904.863	19251
904.981	18954
905.098	18924
905.216	18833
905.334	18954
905.451	18958
905.569	18833
905.686	18886
905.803	18890
905.921	18738
906.038	18852
906.155	18711
906.272	18448
906.389	18467
906.506	18391
906.623	18433
906.74	18441
906.857	18228
906.974	18384
907.091	18445
907.208	18452
907.324	18353
907.441	18258
907.557	18216
907.674	18076
907.79	18015
907.907	18144
908.023	18254
908.139	18057
908.256	18026
908.372	18110
908.488	18022
908.604	17824
908.72	17817
908.836	17855
908.952	17752
909.068	17794
909.184	17935
909.3	17771
909.415	17882
909.531	17878
909.647	17596
909.762	17512
909.878	17551
909.993	17490
910.108	17551
910.224	17570
910.339	17532
910.454	17436
910.57	17337
910.685	17345
910.8	17600
910.915	17440
911.03	17326
911.145	17170
911.259	17052
911.374	17216
911.489	16984
911.604	16908
911.718	16919
911.833	16862
911.947	16752
912.062	16713
912.176	16771
912.291	16896
912.405	16828
912.519	17022
912.633	17102
912.748	16801
912.862	16786
912.976	16641
913.09	16656
913.204	16603
913.318	16698
913.431	16744
913.545	16820
913.659	16809
913.772	16626
913.886	16497
914	16485
914.113	16554
914.226	16428
914.34	16455
914.453	16230
914.566	16447
914.68	16280
914.793	16284
914.906	16090
915.019	16017
915.132	15930
915.245	16017
915.358	16048
915.47	15956
915.583	15979
915.696	16025
915.809	16101
915.921	16166
916.034	15895
916.146	15819
916.259	15861
916.371	15998
916.483	15918
916.595	15835
916.708	15880
916.82	15922
916.932	15808
917.044	15762
917.156	15774
917.268	15576
917.38	15686
917.491	15736
917.603	15595
917.715	15751
917.826	15751
917.938	15629
918.049	15545
918.161	15663
918.272	15667
918.384	15606
918.495	15568
918.606	15420
918.717	15325
918.828	15519
918.939	15431
919.05	15264
919.161	15416
919.272	15176
919.383	15264
919.494	15382
919.604	15561
919.715	15416
919.826	15386
919.936	15306
920.047	15428
920.157	15355
920.267	15549
920.378	15386
920.488	15241
920.598	15545
920.708	15698
920.818	15545
920.928	15523
921.038	15644
921.148	15488
921.258	15329
921.368	15146
921.477	15123
921.587	15032
921.697	14921
921.806	15074
921.916	14990
922.025	14754
922.134	14735
922.244	14613
922.353	14853
922.462	14621
922.571	14495
922.68	14404
922.789	14423
922.898	14431
923.007	14278
923.116	14336
923.224	14370
923.333	14237
923.442	14286
923.55	14187
923.659	14176
923.767	14183
923.876	14145
923.984	14111
924.092	14012
924.201	14138
924.309	13989
924.417	14027
924.525	13947
924.633	13955
924.741	14769
924.849	13700
924.956	13898
925.064	13860
925.172	13632
925.279	13655
925.387	13753
925.494	13700
925.602	13811
925.709	13704
925.816	13540
925.924	13719
926.031	13643
926.138	13605
926.245	13693
926.352	13666
926.459	13655
926.566	13712
926.673	13597
926.779	13476
926.886	13415
926.993	13346
927.099	13259
927.206	13240
927.312	13179
927.419	13255
927.525	13221
927.631	13289
927.737	13023
927.843	13129
927.95	12951
928.056	13110
928.162	13145
928.267	13156
928.373	13780
928.479	13137
928.585	12935
928.69	13133
928.796	12970
928.901	12943
929.007	12760
929.112	13015
929.218	12787
929.323	12719
929.428	12757
929.533	12890
929.638	12681
929.743	12711
929.848	12791
929.953	12726
930.058	12608
930.163	12372
930.267	12448
930.372	12540
930.477	12437
930.581	12620
930.685	12498
930.79	12361
930.894	12327
930.998	12342
931.103	12448
931.207	12030
931.311	11988
931.415	11866
931.519	11714
931.623	11646
