Data from test_V78500241_1440.txt Node
Date: Fri Mar 25 15:51:46 CST 2022
User: usil
Spectrometer: V785-0024
Trigger mode: 0
Integration Time (sec): 4.000000E-1
Scans to average: 1
Nonlinearity correction enabled: false
Boxcar width: 0
Storing dark spectrum: false
XAxis mode: Wavelengths
Number of Pixels in Spectrum: 1024
>>>>>Begin Spectral Data<<<<<
801.071	28093
801.214	27914
801.356	27690
801.499	27789
801.641	27671
801.783	27686
801.926	27629
802.068	27599
802.211	27526
802.353	27454
802.496	27348
802.638	27287
802.78	27420
802.923	27222
803.065	27157
803.208	27195
803.35	27317
803.492	27504
803.635	27526
803.777	27393
803.919	27549
804.061	27793
804.204	27667
804.346	27507
804.488	27534
804.63	27603
804.773	27488
804.915	27504
805.057	27599
805.199	27469
805.341	27698
805.483	27587
805.626	27595
805.768	27580
805.91	27603
806.052	27618
806.194	27583
806.336	27842
806.478	27797
806.62	27667
806.762	27869
806.904	27941
807.046	28226
807.188	28105
807.33	28093
807.472	28112
807.614	28051
807.756	28124
807.898	28021
808.04	27869
808.182	27808
808.324	27972
808.465	28074
808.607	28196
808.749	28344
808.891	28341
809.033	28367
809.174	28432
809.316	28428
809.458	28367
809.6	28207
809.741	28447
809.883	28481
810.025	28615
810.166	28569
810.308	28527
810.45	28622
810.591	28500
810.733	28303
810.875	28337
811.016	28196
811.158	28238
811.299	28360
811.441	28398
811.582	28375
811.724	28390
811.865	28246
812.007	28291
812.148	28242
812.29	28246
812.431	28546
812.573	28641
812.714	28786
812.855	28797
812.997	28847
813.138	29033
813.279	28843
813.421	28835
813.562	28763
813.703	28588
813.845	28615
813.986	28238
814.127	28188
814.268	27854
814.41	28032
814.551	28032
814.692	28002
814.833	27895
814.974	27945
815.115	28143
815.256	27778
815.397	27895
815.539	27953
815.68	27812
815.821	27736
815.962	27694
816.103	27778
816.244	27713
816.385	27667
816.526	27599
816.666	27435
816.807	27359
816.948	27348
817.089	27405
817.23	27370
817.371	27374
817.512	27199
817.653	27252
817.793	27176
817.934	27176
818.075	27313
818.216	27363
818.356	27218
818.497	27131
818.638	27028
818.778	27096
818.919	27013
819.06	27165
819.2	27211
819.341	27306
819.481	27336
819.622	27389
819.762	27717
819.903	27564
820.043	27492
820.184	27488
820.324	27424
820.465	27492
820.605	27431
820.746	27466
820.886	27264
821.026	27370
821.167	27447
821.307	27420
821.447	27207
821.588	27287
821.728	27119
821.868	26990
822.008	26773
822.149	26804
822.289	26739
822.429	26533
822.569	26488
822.709	26442
822.849	26313
822.99	26389
823.13	26084
823.27	26286
823.41	26073
823.55	26031
823.69	26168
823.83	26206
823.97	26054
824.11	25860
824.25	25776
824.389	25822
824.529	26005
824.669	25890
824.809	26031
824.949	26122
825.089	26016
825.228	25993
825.368	25639
825.508	25807
825.648	25864
825.787	25833
825.927	25864
826.067	25696
826.206	25955
826.346	25795
826.485	25890
826.625	25814
826.765	25887
826.904	25791
827.044	25544
827.183	25582
827.323	25419
827.462	25662
827.601	25529
827.741	25441
827.88	25521
828.02	25346
828.159	25449
828.298	25571
828.437	25495
828.577	25518
828.716	25613
828.855	25430
828.994	25183
829.134	25209
829.273	25304
829.412	25240
829.551	25213
829.69	25034
829.829	25324
829.968	25266
830.107	25133
830.246	25263
830.385	25232
830.524	25107
830.663	25046
830.802	24852
830.941	24722
831.08	24829
831.219	24791
831.357	24916
831.496	24966
831.635	24757
831.774	24715
831.913	24696
832.051	24696
832.19	24604
832.329	24700
832.467	24429
832.606	24456
832.744	24270
832.883	24391
833.022	24574
833.16	24460
833.299	24555
833.437	24513
833.576	24608
833.714	24494
833.852	24612
833.991	24547
834.129	24722
834.267	24639
834.406	24525
834.544	24559
834.682	24479
834.821	24452
834.959	24681
835.097	24441
835.235	24563
835.373	24456
835.511	24471
835.65	24403
835.788	24372
835.926	24289
836.064	24182
836.202	24323
836.34	24273
836.478	24369
836.615	24422
836.753	24532
836.891	24467
837.029	24357
837.167	24213
837.305	24304
837.443	24315
837.58	24190
837.718	24194
837.856	24262
837.993	24030
838.131	24220
838.269	24018
838.406	24041
838.544	24102
838.681	23817
838.819	23798
838.956	23562
839.094	23726
839.231	23805
839.369	23767
839.506	24171
839.643	23942
839.781	23771
839.918	23570
840.055	23707
840.193	23634
840.33	23531
840.467	23604
840.604	23646
840.742	23805
840.879	23585
841.016	23482
841.153	23391
841.29	23611
841.427	23642
841.564	23676
841.701	23695
841.838	23467
841.975	23562
842.112	23512
842.249	23444
842.385	23509
842.522	23539
842.659	23395
842.796	23254
842.933	23318
843.069	23284
843.206	23307
843.343	23330
843.479	23356
843.616	23410
843.752	23109
843.889	23113
844.025	23200
844.162	23102
844.298	23261
844.435	23075
844.571	22995
844.708	23113
844.844	23315
844.98	23178
845.117	23242
845.253	23022
845.389	22976
845.525	23014
845.661	22957
845.798	22839
845.934	22949
846.07	22755
846.206	22812
846.342	22816
846.478	22873
846.614	22675
846.75	22481
846.886	22516
847.022	22561
847.158	22603
847.294	22626
847.429	22580
847.565	22516
847.701	22733
847.837	22200
847.972	22196
848.108	22455
848.244	22421
848.379	22124
848.515	22093
848.65	22120
848.786	22185
848.921	22211
849.057	22261
849.192	22261
849.328	22158
849.463	22131
849.598	22162
849.734	22017
849.869	21907
850.004	21861
850.14	22002
850.275	21983
850.41	21884
850.545	21926
850.68	21835
850.815	21945
850.95	21915
851.085	22154
851.22	22029
851.355	21941
851.49	21953
851.625	21857
851.76	21926
851.895	21812
852.03	21922
852.165	21915
852.299	21991
852.434	22086
852.569	21964
852.703	21991
852.838	22067
852.973	22067
853.107	21979
853.242	21880
853.376	21850
853.511	21660
853.645	21724
853.78	21869
853.914	21663
854.048	21720
854.183	21751
854.317	21671
854.451	21873
854.585	21838
854.72	21736
854.854	21770
854.988	21682
855.122	21747
855.256	21652
855.39	21762
855.524	21701
855.658	21816
855.792	21762
855.926	21751
856.06	21842
856.194	21865
856.327	21774
856.461	21686
856.595	21713
856.729	21732
856.862	21854
856.996	21701
857.13	21797
857.263	21857
857.397	21732
857.53	21739
857.664	21781
857.797	21804
857.931	21918
858.064	21770
858.197	21797
858.331	21770
858.464	21660
858.597	21572
858.731	21694
858.864	21717
858.997	21743
859.13	21812
859.263	21720
859.396	21728
859.529	21743
859.662	21663
859.795	21549
859.928	21739
860.061	21846
860.194	22010
860.327	21857
860.46	21747
860.592	21823
860.725	21835
860.858	21960
860.99	21766
861.123	21739
861.256	21812
861.388	21755
861.521	22584
861.653	21622
861.786	21511
861.918	21576
862.05	21736
862.183	21743
862.315	21694
862.447	21766
862.58	21694
862.712	21481
862.844	21340
862.976	21485
863.108	21557
863.24	21762
863.372	21363
863.504	21405
863.636	21466
863.768	21420
863.9	21504
864.032	21473
864.164	21386
864.296	21530
864.428	21576
864.559	21439
864.691	21477
864.823	21545
864.954	21469
865.086	21469
865.217	21355
865.349	21374
865.48	21264
865.612	21275
865.743	21416
865.875	21435
866.006	21306
866.137	21367
866.269	21386
866.4	21439
866.531	21260
866.662	21249
866.793	21298
866.924	21268
867.055	21367
867.186	21306
867.317	21363
867.448	21211
867.579	21264
867.71	21268
867.841	21192
867.972	21294
868.103	21294
868.233	21260
868.364	21237
868.495	21450
868.625	21534
868.756	21629
868.886	21507
869.017	21595
869.147	21603
869.278	21549
869.408	21553
869.539	21481
869.669	21462
869.799	21629
869.929	21663
870.06	21618
870.19	21755
870.32	21728
870.45	21884
870.58	22006
870.71	21983
870.84	21975
870.97	21949
871.1	22105
871.23	22006
871.36	22143
871.489	22135
871.619	22192
871.749	22139
871.879	22204
872.008	22185
872.138	22112
872.267	22025
872.397	21983
872.526	21930
872.656	21888
872.785	22002
872.915	22204
873.044	22150
873.173	22025
873.303	22207
873.432	22306
873.561	22314
873.69	22101
873.819	22135
873.948	22238
874.077	22070
874.206	22086
874.335	22242
874.464	22226
874.593	22379
874.722	22405
874.851	22466
874.979	22443
875.108	22394
875.237	22375
875.365	22242
875.494	22447
875.623	22470
875.751	22390
875.88	22417
876.008	22557
876.136	22527
876.265	22733
876.393	22980
876.521	22858
876.65	22771
876.778	22721
876.906	22615
877.034	22729
877.162	22763
877.29	22771
877.418	22713
877.546	22660
877.674	22694
877.802	22672
877.93	22736
878.058	22672
878.185	22516
878.313	22691
878.441	22694
878.568	22634
878.696	22672
878.824	22664
878.951	22782
879.079	22889
879.206	23098
879.333	22812
879.461	22717
879.588	22763
879.715	22801
879.842	23010
879.97	22850
880.097	22645
880.224	22615
880.351	22516
880.478	22569
880.605	22462
880.732	22577
880.859	22831
880.986	22462
881.112	22557
881.239	22443
881.366	22341
881.493	22086
881.619	22192
881.746	22230
881.872	22109
881.999	22006
882.125	22059
882.252	22059
882.378	22192
882.505	22040
882.631	22010
882.757	21739
882.883	21838
883.01	21774
883.136	21739
883.262	21671
883.388	21622
883.514	21930
883.64	21819
883.766	21682
883.892	21625
884.018	21473
884.143	21766
884.269	21709
884.395	21443
884.52	21435
884.646	21534
884.772	21283
884.897	21355
885.023	21428
885.148	21606
885.274	21595
885.399	21526
885.524	21496
885.65	21443
885.775	21412
885.9	21359
886.025	21591
886.15	21511
886.275	21420
886.4	21340
886.525	21344
886.65	21310
886.775	21222
886.9	21500
887.025	21580
887.149	21344
887.274	21161
887.399	21226
887.523	21154
887.648	21028
887.773	21116
887.897	21226
888.021	21275
888.146	21108
888.27	21348
888.395	21252
888.519	21180
888.643	21188
888.767	21302
888.891	21051
889.015	21028
889.139	21017
889.263	20994
889.387	21043
889.511	21093
889.635	21135
889.759	20967
889.883	20990
890.006	21009
890.13	20990
890.254	20880
890.377	20960
890.501	20781
890.624	20583
890.748	20697
890.871	20648
890.995	20511
891.118	20560
891.241	20568
891.364	20484
891.488	20826
891.611	20427
891.734	20457
891.857	20522
891.98	20613
892.103	20545
892.226	20492
892.349	20602
892.471	20351
892.594	20522
892.717	20454
892.839	20552
892.962	20549
893.085	20533
893.207	20488
893.33	20389
893.452	20465
893.575	20469
893.697	20423
893.819	20594
893.941	20594
894.064	20613
894.186	20298
894.308	20252
894.43	20499
894.552	20602
894.674	20492
894.796	20381
894.918	20400
895.04	20332
895.161	20446
895.283	20503
895.405	20290
895.526	20381
895.648	20499
895.769	20465
895.891	20450
896.012	20507
896.134	20541
896.255	20427
896.376	20446
896.498	20404
896.619	20419
896.74	20473
896.861	20492
896.982	20773
897.103	20811
897.224	20663
897.345	20701
897.466	20575
897.587	20670
897.708	20788
897.828	20670
897.949	20594
898.07	20480
898.19	20617
898.311	20735
898.431	20644
898.552	20670
898.672	20773
898.792	20739
898.913	20648
899.033	20598
899.153	20415
899.273	20438
899.393	20473
899.513	20358
899.633	20469
899.753	20431
899.873	20366
899.993	20347
900.113	20301
900.232	20389
900.352	20374
900.472	20286
900.591	20138
900.711	20168
900.83	20100
900.95	20202
901.069	20206
901.189	20046
901.308	19845
901.427	19734
901.546	19746
901.665	19879
901.784	19727
901.904	19533
902.023	19514
902.141	19247
902.26	19213
902.379	19335
902.498	19278
902.617	19240
902.735	19236
902.854	19278
902.973	19072
903.091	18951
903.21	18935
903.328	18882
903.446	18837
903.565	18795
903.683	18684
903.801	18582
903.919	18566
904.038	18646
904.156	18513
904.274	18623
904.392	18330
904.51	18437
904.627	18460
904.745	18521
904.863	18525
904.981	18262
905.098	18174
905.216	18213
905.334	18129
905.451	18213
905.569	18155
905.686	18190
905.803	18163
905.921	18064
906.038	18121
906.155	17992
906.272	17897
906.389	17882
906.506	17695
906.623	17764
906.74	17570
906.857	17592
906.974	17611
907.091	17783
907.208	17813
907.324	17680
907.441	17619
907.557	17444
907.674	17482
907.79	17383
907.907	17356
908.023	17433
908.139	17414
908.256	17258
908.372	17258
908.488	17227
908.604	17239
908.72	17064
908.836	17197
908.952	17079
909.068	17140
909.184	17208
909.3	17045
909.415	17128
909.531	17128
909.647	16801
909.762	16774
909.878	16896
909.993	16843
910.108	16755
910.224	16691
910.339	16717
910.454	16725
910.57	16675
910.685	16550
910.8	16828
910.915	16706
911.03	16577
911.145	16451
911.259	16344
911.374	16493
911.489	16363
911.604	16318
911.718	16166
911.833	16188
911.947	16112
912.062	16078
912.176	16124
912.291	16086
912.405	16249
912.519	16379
912.633	16280
912.748	16082
912.862	16162
912.976	15964
913.09	15934
913.204	15934
913.318	15964
913.431	16032
913.545	15975
913.659	16116
913.772	15922
913.886	15770
914	15785
914.113	15831
914.226	15819
914.34	15892
914.453	15625
914.566	15842
914.68	15515
914.793	15580
914.906	15367
915.019	15443
915.132	15264
915.245	15355
915.358	15431
915.47	15317
915.583	15431
915.696	15393
915.809	15405
915.921	15389
916.034	15260
916.146	15226
916.259	15195
916.371	15283
916.483	15291
916.595	15180
916.708	15272
916.82	15169
916.932	15119
917.044	15173
917.156	15093
917.268	15055
917.38	15066
917.491	14986
917.603	14864
917.715	15123
917.826	15055
917.938	14842
918.049	14883
918.161	14941
918.272	15043
918.384	15047
918.495	14967
918.606	14758
918.717	14735
918.828	14758
918.939	14826
919.05	14777
919.161	14659
919.272	14541
919.383	14777
919.494	14807
919.604	14899
919.715	14819
919.826	14686
919.936	14743
920.047	14807
920.157	14644
920.267	14826
920.378	14758
920.488	14594
920.598	14853
920.708	14975
920.818	14769
920.928	14861
921.038	14971
921.148	15020
921.258	14629
921.368	14594
921.477	14492
921.587	14461
921.697	14206
921.806	14473
921.916	14305
922.025	14119
922.134	14100
922.244	14065
922.353	14088
922.462	13921
922.571	13890
922.68	13814
922.789	13822
922.898	13765
923.007	13636
923.116	13723
923.224	13632
923.333	13727
923.442	13636
923.55	13613
923.659	13597
923.767	13632
923.876	13495
923.984	13639
924.092	13449
924.201	13441
924.309	13441
924.417	13415
924.525	13445
924.633	13438
924.741	14221
924.849	13164
924.956	13343
925.064	13149
925.172	13050
925.279	13122
925.387	13149
925.494	13152
925.602	13206
925.709	13206
925.816	12939
925.924	13046
926.031	13137
926.138	13031
926.245	13202
926.352	12989
926.459	13152
926.566	13133
926.673	12935
926.779	12973
926.886	12848
926.993	12768
927.099	12616
927.206	12669
927.312	12627
927.419	12779
927.525	12677
927.631	12734
927.737	12502
927.843	12559
927.95	12410
928.056	12544
928.162	12574
928.267	12601
928.373	13228
928.479	12593
928.585	12407
928.69	12456
928.796	12582
928.901	12426
929.007	12224
929.112	12429
929.218	12384
929.323	12235
929.428	12232
929.533	12372
929.638	12178
929.743	12167
929.848	12125
929.953	12251
930.058	12022
930.163	11882
930.267	11882
930.372	12022
930.477	11813
930.581	12060
930.685	12076
930.79	11813
930.894	11920
930.998	11752
931.103	11996
931.207	11608
931.311	11444
931.415	11440
931.519	11162
931.623	11090
