Data from test_V78500241_3355.txt Node
Date: Fri Mar 25 16:05:02 CST 2022
User: usil
Spectrometer: V785-0024
Trigger mode: 0
Integration Time (sec): 4.000000E-1
Scans to average: 1
Nonlinearity correction enabled: false
Boxcar width: 0
Storing dark spectrum: false
XAxis mode: Wavelengths
Number of Pixels in Spectrum: 1024
>>>>>Begin Spectral Data<<<<<
801.071	29075
801.214	28968
801.356	28801
801.499	28588
801.641	28615
801.783	28672
801.926	28649
802.068	28573
802.211	28523
802.353	28417
802.496	28379
802.638	28303
802.78	28280
802.923	28284
803.065	28150
803.208	28272
803.35	28360
803.492	28382
803.635	28607
803.777	28569
803.919	28565
804.061	29006
804.204	28634
804.346	28645
804.488	28493
804.63	28599
804.773	28588
804.915	28592
805.057	28797
805.199	28611
805.341	28679
805.483	28752
805.626	28694
805.768	28577
805.91	28919
806.052	28713
806.194	28668
806.336	28809
806.478	28786
806.62	28786
806.762	28961
806.904	28972
807.046	29208
807.188	29109
807.33	29284
807.472	29368
807.614	29227
807.756	29071
807.898	29044
808.04	28927
808.182	29003
808.324	29018
808.465	29239
808.607	29353
808.749	29299
808.891	29554
809.033	29737
809.174	29482
809.316	29360
809.458	29425
809.6	29566
809.741	29516
809.883	29600
810.025	29771
810.166	29627
810.308	29691
810.45	29668
810.591	29573
810.733	29577
810.875	29493
811.016	29375
811.158	29337
811.299	29585
811.441	29649
811.582	29638
811.724	29585
811.865	29417
812.007	29406
812.148	29478
812.29	29516
812.431	29726
812.573	29687
812.714	29828
812.855	29961
812.997	30079
813.138	30232
813.279	30182
813.421	30053
813.562	30049
813.703	29794
813.845	29821
813.986	29391
814.127	29372
814.268	29185
814.41	29216
814.551	29003
814.692	29212
814.833	29273
814.974	29246
815.115	29147
815.256	29048
815.397	29128
815.539	29181
815.68	28923
815.821	29010
815.962	29159
816.103	29105
816.244	28801
816.385	28771
816.526	28786
816.666	28702
816.807	28565
816.948	28497
817.089	28637
817.23	28474
817.371	28481
817.512	28432
817.653	28550
817.793	28607
817.934	28447
818.075	28478
818.216	28626
818.356	28413
818.497	28401
818.638	28265
818.778	28276
818.919	28207
819.06	28401
819.2	28375
819.341	28569
819.481	28481
819.622	28637
819.762	28900
819.903	28835
820.043	28786
820.184	28717
820.324	28744
820.465	28869
820.605	28679
820.746	28577
820.886	28588
821.026	28485
821.167	28588
821.307	28649
821.447	28584
821.588	28421
821.728	28512
821.868	28219
822.008	28139
822.149	27884
822.289	28070
822.429	27876
822.569	27667
822.709	27698
822.849	27682
822.99	27504
823.13	27557
823.27	27458
823.41	27233
823.55	27336
823.69	27325
823.83	27408
823.97	27332
824.11	27036
824.25	27173
824.389	27192
824.529	27138
824.669	27142
824.809	27332
824.949	27382
825.089	27294
825.228	27199
825.368	27089
825.508	27154
825.648	27157
825.787	27169
825.927	27142
826.067	27066
826.206	27119
826.346	27116
826.485	27093
826.625	27074
826.765	27218
826.904	27093
827.044	26887
827.183	26861
827.323	26754
827.462	26819
827.601	26857
827.741	26777
827.88	26910
828.02	26701
828.159	26735
828.298	26807
828.437	26891
828.577	26625
828.716	26944
828.855	26701
828.994	26549
829.134	26457
829.273	26480
829.412	26461
829.551	26313
829.69	26533
829.829	26526
829.968	26754
830.107	26560
830.246	26556
830.385	26408
830.524	26377
830.663	26366
830.802	26259
830.941	26084
831.08	26035
831.219	26164
831.357	26309
831.496	26355
831.635	26145
831.774	26054
831.913	26005
832.051	25864
832.19	25871
832.329	25856
832.467	25731
832.606	25849
832.744	25628
832.883	25723
833.022	25723
833.16	25765
833.299	25708
833.437	25742
833.576	25818
833.714	25822
833.852	25852
833.991	25826
834.129	25921
834.267	25970
834.406	25769
834.544	25906
834.682	25963
834.821	25799
834.959	26054
835.097	25757
835.235	25883
835.373	25822
835.511	25769
835.65	25643
835.788	25731
835.926	25571
836.064	25544
836.202	25460
836.34	25655
836.478	25715
836.615	25662
836.753	25635
836.891	25708
837.029	25750
837.167	25483
837.305	25613
837.443	25594
837.58	25468
837.718	25476
837.856	25441
837.993	25434
838.131	25521
838.269	25396
838.406	25529
838.544	25225
838.681	25297
838.819	25198
838.956	24882
839.094	25000
839.231	24920
839.369	25000
839.506	25255
839.643	25228
839.781	24996
839.918	24848
840.055	24867
840.193	24901
840.33	24897
840.467	24783
840.604	24905
840.742	25156
840.879	24658
841.016	24791
841.153	24722
841.29	24947
841.427	24833
841.564	24886
841.701	24882
841.838	24817
841.975	24802
842.112	24681
842.249	24665
842.385	24642
842.522	24837
842.659	24646
842.796	24601
842.933	24555
843.069	24509
843.206	24502
843.343	24658
843.479	24414
843.616	24574
843.752	24357
843.889	24384
844.025	24528
844.162	24308
844.298	24388
844.435	24384
844.571	24304
844.708	24403
844.844	24475
844.98	24639
845.117	24505
845.253	24361
845.389	24311
845.525	24171
845.661	24216
845.798	24148
845.934	24216
846.07	24121
846.206	24209
846.342	24281
846.478	24083
846.614	24057
846.75	23741
846.886	23870
847.022	23878
847.158	23828
847.294	23813
847.429	23893
847.565	23832
847.701	24011
847.837	23562
847.972	23452
848.108	23467
848.244	23634
848.379	23478
848.515	23455
848.65	23436
848.786	23318
848.921	23516
849.057	23619
849.192	23467
849.328	23398
849.463	23372
849.598	23322
849.734	23425
849.869	23269
850.004	23166
850.14	23223
850.275	23246
850.41	23113
850.545	23204
850.68	23113
850.815	23212
850.95	23159
851.085	23444
851.22	23326
851.355	23197
851.49	23170
851.625	23166
851.76	23159
851.895	23121
852.03	23105
852.165	23189
852.299	23223
852.434	23269
852.569	23155
852.703	23170
852.838	23178
852.973	23353
853.107	23303
853.242	23105
853.376	22942
853.511	22896
853.645	22987
853.78	23098
853.914	22999
854.048	22961
854.183	23029
854.317	23029
854.451	23273
854.585	22972
854.72	23140
854.854	22957
854.988	22942
855.122	23029
855.256	22820
855.39	22930
855.524	22995
855.658	22976
855.792	23041
855.926	22942
856.06	23010
856.194	23033
856.327	22942
856.461	22949
856.595	22927
856.729	23113
856.862	23025
856.996	22923
857.13	23109
857.263	23044
857.397	23086
857.53	23044
857.664	23083
857.797	23105
857.931	23060
858.064	22999
858.197	23086
858.331	22957
858.464	23006
858.597	22843
858.731	22938
858.864	22896
858.997	22942
859.13	22972
859.263	23071
859.396	23003
859.529	22976
859.662	22949
859.795	22896
859.928	23029
860.061	23155
860.194	23239
860.327	23052
860.46	23010
860.592	23147
860.725	23102
860.858	23166
860.99	22957
861.123	22999
861.256	22984
861.388	23071
861.521	23707
861.653	22885
861.786	22778
861.918	22763
862.05	22919
862.183	22869
862.315	22942
862.447	23067
862.58	23010
862.712	22672
862.844	22710
862.976	22748
863.108	22717
863.24	23239
863.372	22717
863.504	22683
863.636	22710
863.768	22748
863.9	22691
864.032	22542
864.164	22618
864.296	22694
864.428	22755
864.559	22816
864.691	22759
864.823	22607
864.954	22721
865.086	22717
865.217	22500
865.349	22557
865.48	22508
865.612	22512
865.743	22691
865.875	22653
866.006	22588
866.137	22531
866.269	22596
866.4	22535
866.531	22455
866.662	22485
866.793	22481
866.924	22588
867.055	22565
867.186	22535
867.317	22390
867.448	22405
867.579	22497
867.71	22424
867.841	22440
867.972	22481
868.103	22527
868.233	22512
868.364	22607
868.495	22557
868.625	22755
868.756	22713
868.886	22694
869.017	22706
869.147	22759
869.278	22809
869.408	22767
869.539	22721
869.669	22694
869.799	22729
869.929	22744
870.06	22869
870.19	23041
870.32	23037
870.45	23132
870.58	23067
870.71	23284
870.84	23208
870.97	23143
871.1	23128
871.23	23326
871.36	23349
871.489	23307
871.619	23307
871.749	23280
871.879	23349
872.008	23459
872.138	23307
872.267	23379
872.397	23239
872.526	23147
872.656	23178
872.785	23079
872.915	23368
873.044	23277
873.173	23303
873.303	23414
873.432	23433
873.561	23436
873.69	23353
873.819	23349
873.948	23497
874.077	23448
874.206	23379
874.335	23356
874.464	23395
874.593	23554
874.722	23573
874.851	23490
874.979	23592
875.108	23547
875.237	23566
875.365	23467
875.494	23539
875.623	23585
875.751	23501
875.88	23543
876.008	23672
876.136	23657
876.265	24003
876.393	23988
876.521	24098
876.65	24060
876.778	23912
876.906	23946
877.034	23843
877.162	23958
877.29	23824
877.418	23828
877.546	23950
877.674	23897
877.802	23961
877.93	23920
878.058	23927
878.185	23676
878.313	23813
878.441	23798
878.568	23703
878.696	23878
878.824	23908
878.951	23882
879.079	23893
879.206	24129
879.333	24083
879.461	23912
879.588	24068
879.715	24015
879.842	24220
879.97	23878
880.097	23634
880.224	23695
880.351	23695
880.478	23718
880.605	23676
880.732	23638
880.859	23969
880.986	23630
881.112	23726
881.239	23649
881.366	23501
881.493	23395
881.619	23330
881.746	23326
881.872	23368
881.999	23197
882.125	23212
882.252	23315
882.378	23193
882.505	23258
882.631	23083
882.757	23003
882.883	23010
883.01	22961
883.136	22991
883.262	22645
883.388	22797
883.514	23075
883.64	22946
883.766	22748
883.892	22744
884.018	22691
884.143	22858
884.269	22942
884.395	22706
884.52	22497
884.646	22580
884.772	22519
884.897	22333
885.023	22535
885.148	22538
885.274	22805
885.399	22542
885.524	22588
885.65	22462
885.775	22519
885.9	22538
886.025	22729
886.15	22580
886.275	22493
886.4	22306
886.525	22470
886.65	22523
886.775	22478
886.9	22504
887.025	22694
887.149	22440
887.274	22481
887.399	22287
887.523	22337
887.648	22265
887.773	22120
887.897	22303
888.021	22280
888.146	22154
888.27	22417
888.395	22485
888.519	22329
888.643	22276
888.767	22394
888.891	22181
889.015	22128
889.139	22272
889.263	22093
889.387	22318
889.511	22249
889.635	22093
889.759	22032
889.883	22090
890.006	22128
890.13	22109
890.254	22029
890.377	21983
890.501	21842
890.624	21884
890.748	21888
890.871	21690
890.995	21660
891.118	21583
891.241	21720
891.364	21583
891.488	21736
891.611	21671
891.734	21557
891.857	21641
891.98	21610
892.103	21576
892.226	21652
892.349	21523
892.471	21534
892.594	21435
892.717	21701
892.839	21633
892.962	21618
893.085	21572
893.207	21443
893.33	21447
893.452	21603
893.575	21526
893.697	21443
893.819	21622
893.941	21713
894.064	21736
894.186	21435
894.308	21507
894.43	21557
894.552	21622
894.674	21515
894.796	21443
894.918	21538
895.04	21355
895.161	21580
895.283	21549
895.405	21454
895.526	21606
895.648	21477
895.769	21492
895.891	21447
896.012	21587
896.134	21481
896.255	21500
896.376	21477
896.498	21477
896.619	21542
896.74	21564
896.861	21492
896.982	21842
897.103	22070
897.224	21713
897.345	21739
897.466	21656
897.587	21743
897.708	21785
897.828	21732
897.949	21435
898.07	21538
898.19	21633
898.311	21899
898.431	21564
898.552	21713
898.672	21781
898.792	21903
898.913	21618
899.033	21530
899.153	21424
899.273	21268
899.393	21313
899.513	21397
899.633	21473
899.753	21447
899.873	21405
899.993	21466
900.113	21355
900.232	21393
900.352	21241
900.472	21283
900.591	21051
900.711	21188
900.83	21032
900.95	21241
901.069	21184
901.189	21055
901.308	20792
901.427	20617
901.546	20811
901.665	20727
901.784	20670
901.904	20571
902.023	20560
902.141	20339
902.26	20237
902.379	20317
902.498	20195
902.617	20145
902.735	20237
902.854	20168
902.973	20126
903.091	19989
903.21	19917
903.328	19925
903.446	19864
903.565	19746
903.683	19772
903.801	19521
903.919	19616
904.038	19715
904.156	19392
904.274	19506
904.392	19434
904.51	19354
904.627	19384
904.745	19491
904.863	19392
904.981	19240
905.098	19031
905.216	19221
905.334	19225
905.451	19129
905.569	19110
905.686	19202
905.803	19103
905.921	18905
906.038	18962
906.155	18909
906.272	18753
906.389	18802
906.506	18547
906.623	18563
906.74	18578
906.857	18506
906.974	18528
907.091	18677
907.208	18715
907.324	18677
907.441	18426
907.557	18441
907.674	18270
907.79	18258
907.907	18304
908.023	18323
908.139	18384
908.256	18273
908.372	18209
908.488	18262
908.604	18136
908.72	18011
908.836	18060
908.952	17977
909.068	17973
909.184	18178
909.3	18003
909.415	18068
909.531	17980
909.647	17809
909.762	17752
909.878	17630
909.993	17824
910.108	17672
910.224	17707
910.339	17638
910.454	17646
910.57	17516
910.685	17471
910.8	17638
910.915	17657
911.03	17554
911.145	17391
911.259	17398
911.374	17364
911.489	17197
911.604	17277
911.718	17136
911.833	17159
911.947	16934
912.062	16850
912.176	16961
912.291	17079
912.405	17048
912.519	17223
912.633	17181
912.748	17003
912.862	16968
912.976	17022
913.09	16729
913.204	16831
913.318	16843
913.431	16858
913.545	16938
913.659	16946
913.772	16828
913.886	16717
914	16664
914.113	16725
914.226	16694
914.34	16656
914.453	16493
914.566	16626
914.68	16527
914.793	16394
914.906	16253
915.019	16188
915.132	16162
915.245	16173
915.358	16238
915.47	16154
915.583	16150
915.696	16204
915.809	16360
915.921	16280
916.034	16139
916.146	16086
916.259	16097
916.371	16101
916.483	16002
916.595	16013
916.708	16036
916.82	16032
916.932	15865
917.044	15953
917.156	15956
917.268	15736
917.38	15812
917.491	15812
917.603	15793
917.715	15778
917.826	15804
917.938	15793
918.049	15603
918.161	15724
918.272	15808
918.384	15816
918.495	15663
918.606	15587
918.717	15542
918.828	15587
918.939	15526
919.05	15401
919.161	15488
919.272	15252
919.383	15504
919.494	15530
919.604	15755
919.715	15462
919.826	15412
919.936	15420
920.047	15549
920.157	15374
920.267	15633
920.378	15576
920.488	15477
920.598	15698
920.708	15778
920.818	15785
920.928	15682
921.038	15698
921.148	15652
921.258	15439
921.368	15313
921.477	15157
921.587	15237
921.697	15154
921.806	15241
921.916	15093
922.025	14941
922.134	14918
922.244	14807
922.353	14864
922.462	14758
922.571	14602
922.68	14511
922.789	14469
922.898	14503
923.007	14461
923.116	14537
923.224	14480
923.333	14412
923.442	14370
923.55	14328
923.659	14332
923.767	14370
923.876	14301
923.984	14343
924.092	14191
924.201	14111
924.309	14183
924.417	14153
924.525	14130
924.633	14134
924.741	15066
924.849	13955
924.956	14134
925.064	13925
925.172	13799
925.279	13852
925.387	13818
925.494	13799
925.602	13989
925.709	13887
925.816	13742
925.924	13769
926.031	13837
926.138	13769
926.245	13852
926.352	13670
926.459	13879
926.566	13868
926.673	13677
926.779	13647
926.886	13651
926.993	13476
927.099	13472
927.206	13244
927.312	13358
927.419	13426
927.525	13476
927.631	13411
927.737	13350
927.843	13282
927.95	13114
928.056	13293
928.162	13194
928.267	13221
928.373	13772
928.479	13320
928.585	13031
928.69	13141
928.796	13175
928.901	13042
929.007	12878
929.112	13103
929.218	12901
929.323	12962
929.428	12890
929.533	12947
929.638	12787
929.743	12886
929.848	12947
929.953	12867
930.058	12726
930.163	12506
930.267	12566
930.372	12745
930.477	12475
930.581	12662
930.685	12646
930.79	12448
930.894	12452
930.998	12380
931.103	12559
931.207	12182
931.311	12117
931.415	11946
931.519	11802
931.623	11775
