Data from test_V78500241_530.txt Node
Date: Fri Mar 25 15:45:28 CST 2022
User: usil
Spectrometer: V785-0024
Trigger mode: 0
Integration Time (sec): 4.000000E-1
Scans to average: 1
Nonlinearity correction enabled: false
Boxcar width: 0
Storing dark spectrum: false
XAxis mode: Wavelengths
Number of Pixels in Spectrum: 1024
>>>>>Begin Spectral Data<<<<<
801.071	27964
801.214	27888
801.356	27641
801.499	27519
801.641	27424
801.783	27420
801.926	27496
802.068	27496
802.211	27351
802.353	27386
802.496	27142
802.638	27066
802.78	27165
802.923	27138
803.065	27104
803.208	27154
803.35	27127
803.492	27218
803.635	27131
803.777	27116
803.919	27184
804.061	27618
804.204	27420
804.346	27207
804.488	27070
804.63	27363
804.773	27173
804.915	27363
805.057	27408
805.199	27310
805.341	27252
805.483	27481
805.626	27477
805.768	27351
805.91	27310
806.052	27401
806.194	27534
806.336	27618
806.478	27416
806.62	27439
806.762	27477
806.904	27663
807.046	27846
807.188	27781
807.33	27960
807.472	27930
807.614	27808
807.756	27747
807.898	27743
808.04	27717
808.182	27713
808.324	27770
808.465	27686
808.607	27983
808.749	28063
808.891	28090
809.033	28147
809.174	28280
809.316	28067
809.458	28048
809.6	28101
809.741	28166
809.883	28272
810.025	28280
810.166	28303
810.308	28401
810.45	28310
810.591	28318
810.733	28055
810.875	28010
811.016	27964
811.158	28040
811.299	28257
811.441	28196
811.582	28143
811.724	28093
811.865	28002
812.007	28093
812.148	28154
812.29	28101
812.431	28158
812.573	28398
812.714	28641
812.855	28736
812.997	28653
813.138	28942
813.279	28675
813.421	28691
813.562	28573
813.703	28291
813.845	28257
813.986	27994
814.127	27960
814.268	27724
814.41	27804
814.551	27869
814.692	27880
814.833	27751
814.974	27717
815.115	27713
815.256	27656
815.397	27557
815.539	27549
815.68	27587
815.821	27526
815.962	27580
816.103	27542
816.244	27412
816.385	27374
816.526	27321
816.666	27176
816.807	27195
816.948	27119
817.089	27154
817.23	27135
817.371	26967
817.512	27009
817.653	27047
817.793	26872
817.934	27055
818.075	27005
818.216	27058
818.356	27074
818.497	26910
818.638	26785
818.778	26712
818.919	26758
819.06	26880
819.2	26872
819.341	27051
819.481	26918
819.622	27135
819.762	27367
819.903	27329
820.043	27195
820.184	27279
820.324	27001
820.465	27245
820.605	27055
820.746	27108
820.886	27066
821.026	27173
821.167	27154
821.307	27138
821.447	27089
821.588	27055
821.728	26830
821.868	26716
822.008	26575
822.149	26461
822.289	26396
822.429	26244
822.569	26298
822.709	26225
822.849	26069
822.99	26046
823.13	26039
823.27	26096
823.41	25890
823.55	25651
823.69	25719
823.83	25868
823.97	25811
824.11	25658
824.25	25761
824.389	25613
824.529	25734
824.669	25693
824.809	25822
824.949	25776
825.089	25731
825.228	25742
825.368	25563
825.508	25445
825.648	25552
825.787	25632
825.927	25575
826.067	25460
826.206	25563
826.346	25643
826.485	25533
826.625	25639
826.765	25552
826.904	25594
827.044	25335
827.183	25392
827.323	25175
827.462	25282
827.601	25247
827.741	25259
827.88	25232
828.02	25122
828.159	25164
828.298	25202
828.437	25278
828.577	25179
828.716	25316
828.855	25091
828.994	24924
829.134	24817
829.273	24977
829.412	24901
829.551	24947
829.69	25008
829.829	24897
829.968	25038
830.107	25015
830.246	24970
830.385	24970
830.524	24768
830.663	24715
830.802	24570
830.941	24532
831.08	24563
831.219	24555
831.357	24795
831.496	24764
831.635	24597
831.774	24403
831.913	24486
832.051	24418
832.19	24292
832.329	24361
832.467	24247
832.606	24228
832.744	24304
832.883	24197
833.022	24216
833.16	24270
833.299	24319
833.437	24311
833.576	24350
833.714	24388
833.852	24289
833.991	24304
834.129	24353
834.267	24361
834.406	24342
834.544	24285
834.682	24380
834.821	24140
834.959	24426
835.097	24311
835.235	24388
835.373	24277
835.511	24452
835.65	24258
835.788	24171
835.926	24087
836.064	24011
836.202	23855
836.34	24057
836.478	24262
836.615	24171
836.753	24041
836.891	24232
837.029	23999
837.167	24155
837.305	24038
837.443	24049
837.58	24079
837.718	24030
837.856	23965
837.993	23965
838.131	23893
838.269	23741
838.406	23908
838.544	23809
838.681	23676
838.819	23600
838.956	23318
839.094	23490
839.231	23440
839.369	23535
839.506	23828
839.643	23764
839.781	23512
839.918	23410
840.055	23551
840.193	23452
840.33	23334
840.467	23414
840.604	23410
840.742	23687
840.879	23239
841.016	23132
841.153	23318
841.29	23512
841.427	23318
841.564	23444
841.701	23296
841.838	23334
841.975	23261
842.112	23284
842.249	23178
842.385	23246
842.522	23391
842.659	23189
842.796	23056
842.933	23143
843.069	23151
843.206	23037
843.343	23105
843.479	23003
843.616	23250
843.752	22869
843.889	22892
844.025	23033
844.162	22839
844.298	22915
844.435	22839
844.571	22839
844.708	22828
844.844	23064
844.98	23071
845.117	22873
845.253	22809
845.389	22854
845.525	22858
845.661	22733
845.798	22611
845.934	22725
846.07	22588
846.206	22721
846.342	22759
846.478	22580
846.614	22485
846.75	22314
846.886	22356
847.022	22432
847.158	22379
847.294	22379
847.429	22474
847.565	22291
847.701	22702
847.837	22051
847.972	22185
848.108	22173
848.244	22128
848.379	21937
848.515	22013
848.65	21854
848.786	21972
848.921	21930
849.057	22010
849.192	21994
849.328	22017
849.463	21911
849.598	21937
849.734	21918
849.869	21850
850.004	21644
850.14	21770
850.275	21717
850.41	21633
850.545	21622
850.68	21759
850.815	21736
850.95	21633
851.085	21861
851.22	21846
851.355	21595
851.49	21671
851.625	21606
851.76	21717
851.895	21629
852.03	21675
852.165	21641
852.299	21827
852.434	21819
852.569	21755
852.703	21648
852.838	21781
852.973	21869
853.107	21884
853.242	21618
853.376	21515
853.511	21405
853.645	21511
853.78	21671
853.914	21504
854.048	21530
854.183	21507
854.317	21523
854.451	21686
854.585	21519
854.72	21477
854.854	21614
854.988	21545
855.122	21648
855.256	21386
855.39	21511
855.524	21561
855.658	21488
855.792	21591
855.926	21488
856.06	21622
856.194	21549
856.327	21572
856.461	21545
856.595	21408
856.729	21412
856.862	21583
856.996	21477
857.13	21652
857.263	21610
857.397	21595
857.53	21530
857.664	21591
857.797	21580
857.931	21644
858.064	21447
858.197	21428
858.331	21580
858.464	21515
858.597	21374
858.731	21431
858.864	21572
858.997	21393
859.13	21500
859.263	21553
859.396	21549
859.529	21488
859.662	21549
859.795	21553
859.928	21656
860.061	21675
860.194	21667
860.327	21599
860.46	21492
860.592	21652
860.725	21671
860.858	21667
860.99	21583
861.123	21382
861.256	21428
861.388	21614
861.521	22131
861.653	21367
861.786	21241
861.918	21424
862.05	21431
862.183	21466
862.315	21363
862.447	21485
862.58	21485
862.712	21275
862.844	21207
862.976	21336
863.108	21382
863.24	21781
863.372	21207
863.504	21264
863.636	21192
863.768	21348
863.9	21214
864.032	21192
864.164	21116
864.296	21150
864.428	21222
864.559	21184
864.691	21317
864.823	21279
864.954	21233
865.086	21207
865.217	21055
865.349	21142
865.48	21188
865.612	21058
865.743	21184
865.875	21138
866.006	21066
866.137	21173
866.269	21203
866.4	21138
866.531	20975
866.662	21009
866.793	21116
866.924	21093
867.055	21051
867.186	21142
867.317	21020
867.448	20914
867.579	21009
867.71	20937
867.841	20952
867.972	21051
868.103	21032
868.233	21039
868.364	21032
868.495	21184
868.625	21275
868.756	21348
868.886	21188
869.017	21298
869.147	21359
869.278	21473
869.408	21359
869.539	21150
869.669	21310
869.799	21230
869.929	21450
870.06	21363
870.19	21511
870.32	21698
870.45	21660
870.58	21747
870.71	21797
870.84	21816
870.97	21614
871.1	21671
871.23	21797
871.36	21884
871.489	21812
871.619	21770
871.749	21842
871.879	21892
872.008	22010
872.138	21743
872.267	21876
872.397	21774
872.526	21637
872.656	21637
872.785	21705
872.915	21873
873.044	21991
873.173	21892
873.303	21930
873.432	21880
873.561	21937
873.69	21941
873.819	21964
873.948	21915
874.077	21953
874.206	21800
874.335	21888
874.464	22120
874.593	22078
874.722	22013
874.851	22154
874.979	22086
875.108	22139
875.237	22055
875.365	22032
875.494	22017
875.623	22135
875.751	22036
875.88	22086
876.008	22265
876.136	22249
876.265	22485
876.393	22687
876.521	22497
876.65	22557
876.778	22622
876.906	22451
877.034	22394
877.162	22428
877.29	22363
877.418	22398
877.546	22443
877.674	22413
877.802	22440
877.93	22493
878.058	22386
878.185	22352
878.313	22432
878.441	22432
878.568	22272
878.696	22493
878.824	22599
878.951	22447
879.079	22675
879.206	22759
879.333	22569
879.461	22546
879.588	22603
879.715	22656
879.842	22713
879.97	22546
880.097	22223
880.224	22337
880.351	22322
880.478	22219
880.605	22211
880.732	22280
880.859	22542
880.986	22287
881.112	22306
881.239	22067
881.366	21987
881.493	21911
881.619	21949
881.746	21945
881.872	21895
881.999	21827
882.125	21762
882.252	21941
882.378	21812
882.505	21983
882.631	21755
882.757	21644
882.883	21660
883.01	21557
883.136	21561
883.262	21428
883.388	21462
883.514	21580
883.64	21564
883.766	21416
883.892	21336
884.018	21374
884.143	21435
884.269	21618
884.395	21283
884.52	21218
884.646	21161
884.772	21100
884.897	20982
885.023	21279
885.148	21294
885.274	21306
885.399	21374
885.524	21230
885.65	21119
885.775	21222
885.9	21176
886.025	21241
886.15	21214
886.275	21211
886.4	20994
886.525	21096
886.65	21264
886.775	21104
886.9	21241
887.025	21466
887.149	21218
887.274	21062
887.399	20876
887.523	20960
887.648	20861
887.773	20895
887.897	20941
888.021	21146
888.146	20956
888.27	21009
888.395	20967
888.519	20960
888.643	21005
888.767	20986
888.891	20906
889.015	20754
889.139	20811
889.263	20750
889.387	20834
889.511	20941
889.635	20906
889.759	20735
889.883	20640
890.006	20777
890.13	20823
890.254	20769
890.377	20613
890.501	20431
890.624	20488
890.748	20602
890.871	20419
890.995	20332
891.118	20172
891.241	20389
891.364	20431
891.488	20404
891.611	20267
891.734	20305
891.857	20385
891.98	20419
892.103	20396
892.226	20385
892.349	20271
892.471	20054
892.594	20267
892.717	20275
892.839	20157
892.962	20252
893.085	20248
893.207	20290
893.33	20161
893.452	20092
893.575	20271
893.697	20259
893.819	20298
893.941	20415
894.064	20412
894.186	20267
894.308	20103
894.43	20301
894.552	20381
894.674	20233
894.796	20191
894.918	20172
895.04	20145
895.161	20233
895.283	20320
895.405	20153
895.526	20130
895.648	20256
895.769	20252
895.891	20244
896.012	20328
896.134	20267
896.255	20275
896.376	20294
896.498	20275
896.619	20290
896.74	20225
896.861	20225
896.982	20564
897.103	20716
897.224	20526
897.345	20556
897.466	20389
897.587	20503
897.708	20670
897.828	20575
897.949	20351
898.07	20229
898.19	20438
898.311	20541
898.431	20351
898.552	20480
898.672	20530
898.792	20495
898.913	20511
899.033	20408
899.153	20339
899.273	20103
899.393	20252
899.513	20149
899.633	20244
899.753	20221
899.873	20145
899.993	20020
900.113	20229
900.232	20142
900.352	20115
900.472	19951
900.591	19921
900.711	20020
900.83	19860
900.95	20210
901.069	20084
901.189	19860
901.308	19594
901.427	19518
901.546	19548
901.665	19575
901.784	19620
901.904	19460
902.023	19232
902.141	19137
902.26	19141
902.379	19198
902.498	19164
902.617	18985
902.735	19061
902.854	19050
902.973	18996
903.091	18658
903.21	18684
903.328	18806
903.446	18585
903.565	18582
903.683	18574
903.801	18525
903.919	18620
904.038	18441
904.156	18235
904.274	18410
904.392	18350
904.51	18247
904.627	18262
904.745	18399
904.863	18399
904.981	18106
905.098	17954
905.216	17950
905.334	18068
905.451	17973
905.569	17939
905.686	17973
905.803	18022
905.921	17756
906.038	17874
906.155	17737
906.272	17699
906.389	17710
906.506	17558
906.623	17505
906.74	17421
906.857	17406
906.974	17471
907.091	17577
907.208	17684
907.324	17551
907.441	17421
907.557	17318
907.674	17227
907.79	17231
907.907	17136
908.023	17372
908.139	17277
908.256	17181
908.372	17105
908.488	17086
908.604	16934
908.72	16930
908.836	17018
908.952	16900
909.068	17037
909.184	17079
909.3	16987
909.415	16976
909.531	16911
909.647	16801
909.762	16698
909.878	16615
909.993	16649
910.108	16596
910.224	16535
910.339	16637
910.454	16478
910.57	16459
910.685	16356
910.8	16733
910.915	16493
911.03	16363
911.145	16268
911.259	16192
911.374	16169
911.489	16185
911.604	16059
911.718	15983
911.833	16006
911.947	15960
912.062	15884
912.176	15956
912.291	16048
912.405	15949
912.519	16097
912.633	16230
912.748	15945
912.862	16040
912.976	15964
913.09	15789
913.204	15789
913.318	15823
913.431	15918
913.545	15854
913.659	15888
913.772	15720
913.886	15705
914	15618
914.113	15705
914.226	15705
914.34	15622
914.453	15435
914.566	15641
914.68	15515
914.793	15424
914.906	15291
915.019	15230
915.132	15226
915.245	15275
915.358	15279
915.47	15249
915.583	15214
915.696	15237
915.809	15348
915.921	15386
916.034	15119
916.146	15108
916.259	15093
916.371	15184
916.483	15081
916.595	15150
916.708	15070
916.82	15058
916.932	14956
917.044	15081
917.156	15036
917.268	14811
917.38	14952
917.491	14792
917.603	14785
917.715	14868
917.826	14975
917.938	14773
918.049	14701
918.161	14800
918.272	14967
918.384	14914
918.495	14724
918.606	14636
918.717	14507
918.828	14663
918.939	14610
919.05	14503
919.161	14598
919.272	14286
919.383	14476
919.494	14629
919.604	14735
919.715	14617
919.826	14511
919.936	14522
920.047	14583
920.157	14579
920.267	14735
920.378	14564
920.488	14526
920.598	14720
920.708	14842
920.818	14674
920.928	14727
921.038	14842
921.148	14750
921.258	14503
921.368	14473
921.477	14377
921.587	14366
921.697	14229
921.806	14282
921.916	14123
922.025	14027
922.134	13921
922.244	13849
922.353	14005
922.462	13841
922.571	13811
922.68	13681
922.789	13552
922.898	13624
923.007	13586
923.116	13556
923.224	13567
923.333	13540
923.442	13514
923.55	13377
923.659	13510
923.767	13441
923.876	13301
923.984	13434
924.092	13240
924.201	13369
924.309	13301
924.417	13354
924.525	13263
924.633	13282
924.741	14111
924.849	13206
924.956	13213
925.064	13057
925.172	13004
925.279	12882
925.387	13050
925.494	12954
925.602	13114
925.709	13038
925.816	12829
925.924	12913
926.031	12958
926.138	12970
926.245	13057
926.352	12878
926.459	12916
926.566	13046
926.673	12943
926.779	12791
926.886	12749
926.993	12662
927.099	12593
927.206	12578
927.312	12479
927.419	12627
927.525	12582
927.631	12570
927.737	12471
927.843	12460
927.95	12235
928.056	12395
928.162	12395
928.267	12338
928.373	13034
928.479	12445
928.585	12197
928.69	12372
928.796	12361
928.901	12323
929.007	12087
929.112	12209
929.218	12254
929.323	12136
929.428	12049
929.533	12220
929.638	12087
929.743	12045
929.848	12152
929.953	12079
930.058	11992
930.163	11821
930.267	11790
930.372	11920
930.477	11790
930.581	12026
930.685	11889
930.79	11718
930.894	11764
930.998	11608
931.103	11802
931.207	11471
931.311	11429
931.415	11280
931.519	11102
931.623	11041
