Data from test_V78500241_2192.txt Node
Date: Fri Mar 25 15:56:59 CST 2022
User: usil
Spectrometer: V785-0024
Trigger mode: 0
Integration Time (sec): 4.000000E-1
Scans to average: 1
Nonlinearity correction enabled: false
Boxcar width: 0
Storing dark spectrum: false
XAxis mode: Wavelengths
Number of Pixels in Spectrum: 1024
>>>>>Begin Spectral Data<<<<<
801.071	28862
801.214	28733
801.356	28504
801.499	28561
801.641	28413
801.783	28405
801.926	28440
802.068	28554
802.211	28306
802.353	28284
802.496	28112
802.638	28234
802.78	27994
802.923	28013
803.065	28101
803.208	27991
803.35	28158
803.492	28253
803.635	28352
803.777	28112
803.919	28314
804.061	28736
804.204	28436
804.346	28337
804.488	28314
804.63	28325
804.773	28382
804.915	28394
805.057	28546
805.199	28303
805.341	28493
805.483	28455
805.626	28474
805.768	28440
805.91	28535
806.052	28409
806.194	28291
806.336	28569
806.478	28599
806.62	28367
806.762	28748
806.904	28843
807.046	28949
807.188	28888
807.33	29029
807.472	29025
807.614	29033
807.756	28896
807.898	28892
808.04	28687
808.182	28634
808.324	28881
808.465	28881
808.607	29003
808.749	29227
808.891	29242
809.033	29349
809.174	29075
809.316	29086
809.458	29029
809.6	29212
809.741	29307
809.883	29520
810.025	29512
810.166	29524
810.308	29459
810.45	29269
810.591	29474
810.733	29254
810.875	29227
811.016	29044
811.158	29155
811.299	29223
811.441	29421
811.582	29368
811.724	29140
811.865	29231
812.007	29086
812.148	29155
812.29	29200
812.431	29414
812.573	29547
812.714	29516
812.855	29707
812.997	29813
813.138	29942
813.279	29859
813.421	29657
813.562	29642
813.703	29596
813.845	29353
813.986	29083
814.127	28995
814.268	28790
814.41	29056
814.551	29037
814.692	28919
814.833	28892
814.974	28820
815.115	29014
815.256	28847
815.397	28679
815.539	28965
815.68	28668
815.821	28786
815.962	28767
816.103	28706
816.244	28580
816.385	28531
816.526	28474
816.666	28287
816.807	28196
816.948	28356
817.089	28360
817.23	28238
817.371	28318
817.512	28219
817.653	28299
817.793	28017
817.934	28181
818.075	28291
818.216	28219
818.356	28135
818.497	28067
818.638	27766
818.778	27854
818.919	28055
819.06	28032
819.2	28120
819.341	28371
819.481	28207
819.622	28322
819.762	28554
819.903	28485
820.043	28341
820.184	28306
820.324	28322
820.465	28322
820.605	28424
820.746	28318
820.886	28158
821.026	28371
821.167	28249
821.307	28413
821.447	28215
821.588	28169
821.728	28063
821.868	27914
822.008	27644
822.149	27739
822.289	27736
822.429	27454
822.569	27450
822.709	27469
822.849	27218
822.99	27123
823.13	27218
823.27	27245
823.41	26933
823.55	26902
823.69	27180
823.83	27123
823.97	26967
824.11	26876
824.25	26823
824.389	26857
824.529	26921
824.669	26975
824.809	26952
824.949	26868
825.089	26887
825.228	26861
825.368	26735
825.508	26807
825.648	26750
825.787	26693
825.927	26739
826.067	26727
826.206	26716
826.346	26800
826.485	26788
826.625	26743
826.765	26826
826.904	26739
827.044	26549
827.183	26682
827.323	26434
827.462	26495
827.601	26434
827.741	26336
827.88	26537
828.02	26393
828.159	26442
828.298	26427
828.437	26552
828.577	26415
828.716	26549
828.855	26355
828.994	26126
829.134	26168
829.273	26244
829.412	26084
829.551	26142
829.69	26199
829.829	26298
829.968	26282
830.107	26126
830.246	26142
830.385	26100
830.524	26073
830.663	26039
830.802	26054
830.941	25715
831.08	25757
831.219	25818
831.357	25772
831.496	25902
831.635	25803
831.774	25837
831.913	25708
832.051	25624
832.19	25586
832.329	25552
832.467	25422
832.606	25400
832.744	25354
832.883	25567
833.022	25472
833.16	25453
833.299	25533
833.437	25548
833.576	25540
833.714	25445
833.852	25624
833.991	25681
834.129	25647
834.267	25586
834.406	25453
834.544	25518
834.682	25510
834.821	25411
834.959	25510
835.097	25453
835.235	25628
835.373	25479
835.511	25548
835.65	25400
835.788	25441
835.926	25251
836.064	25247
836.202	25263
836.34	25320
836.478	25392
836.615	25171
836.753	25373
836.891	25411
837.029	25335
837.167	25198
837.305	25244
837.443	25236
837.58	25213
837.718	25247
837.856	25225
837.993	25084
838.131	25122
838.269	24970
838.406	25160
838.544	24890
838.681	24924
838.819	24730
838.956	24703
839.094	24635
839.231	24669
839.369	24776
839.506	24943
839.643	24837
839.781	24597
839.918	24673
840.055	24597
840.193	24574
840.33	24555
840.467	24502
840.604	24551
840.742	24810
840.879	24311
841.016	24410
841.153	24426
841.29	24547
841.427	24422
841.564	24547
841.701	24490
841.838	24429
841.975	24384
842.112	24376
842.249	24475
842.385	24247
842.522	24479
842.659	24372
842.796	24213
842.933	24247
843.069	24330
843.206	24182
843.343	24239
843.479	24384
843.616	24289
843.752	24068
843.889	24155
844.025	24228
844.162	24053
844.298	24110
844.435	24038
844.571	23916
844.708	24064
844.844	24216
844.98	24079
845.117	24125
845.253	24015
845.389	24095
845.525	23866
845.661	23832
845.798	23726
845.934	23843
846.07	23775
846.206	23737
846.342	23961
846.478	23668
846.614	23623
846.75	23501
846.886	23516
847.022	23535
847.158	23573
847.294	23315
847.429	23554
847.565	23531
847.701	23707
847.837	23254
847.972	23170
848.108	23345
848.244	23356
848.379	23128
848.515	23086
848.65	23014
848.786	23075
848.921	23086
849.057	23189
849.192	23124
849.328	23064
849.463	23136
849.598	23044
849.734	23006
849.869	22908
850.004	22850
850.14	22908
850.275	22904
850.41	22801
850.545	22683
850.68	22854
850.815	22869
850.95	22885
851.085	22987
851.22	22862
851.355	22847
851.49	22839
851.625	22824
851.76	22953
851.895	22782
852.03	22691
852.165	22733
852.299	22942
852.434	22938
852.569	22980
852.703	22850
852.838	22976
852.973	22927
853.107	22858
853.242	22839
853.376	22672
853.511	22554
853.645	22672
853.78	22854
853.914	22565
854.048	22649
854.183	22637
854.317	22634
854.451	22881
854.585	22710
854.72	22713
854.854	22702
854.988	22679
855.122	22797
855.256	22580
855.39	22839
855.524	22797
855.658	22691
855.792	22694
855.926	22702
856.06	22607
856.194	22778
856.327	22641
856.461	22618
856.595	22679
856.729	22771
856.862	22717
856.996	22588
857.13	22637
857.263	22725
857.397	22710
857.53	22744
857.664	22721
857.797	22767
857.931	22717
858.064	22687
858.197	22759
858.331	22660
858.464	22565
858.597	22611
858.731	22596
858.864	22580
858.997	22702
859.13	22717
859.263	22725
859.396	22679
859.529	22668
859.662	22615
859.795	22531
859.928	22729
860.061	22828
860.194	22980
860.327	22759
860.46	22736
860.592	22790
860.725	22763
860.858	22725
860.99	22736
861.123	22618
861.256	22538
861.388	22713
861.521	23311
861.653	22459
861.786	22497
861.918	22523
862.05	22565
862.183	22561
862.315	22713
862.447	22660
862.58	22622
862.712	22375
862.844	22272
862.976	22390
863.108	22523
863.24	22911
863.372	22310
863.504	22382
863.636	22462
863.768	22363
863.9	22329
864.032	22337
864.164	22382
864.296	22314
864.428	22516
864.559	22497
864.691	22428
864.823	22306
864.954	22287
865.086	22379
865.217	22363
865.349	22124
865.48	22265
865.612	22261
865.743	22489
865.875	22246
866.006	22154
866.137	22162
866.269	22215
866.4	22158
866.531	22226
866.662	22051
866.793	22207
866.924	22143
867.055	22188
867.186	22234
867.317	22162
867.448	22185
867.579	22135
867.71	22036
867.841	22162
867.972	22188
868.103	22017
868.233	22109
868.364	22169
868.495	22287
868.625	22417
868.756	22402
868.886	22341
869.017	22363
869.147	22577
869.278	22554
869.408	22447
869.539	22337
869.669	22443
869.799	22481
869.929	22649
870.06	22405
870.19	22664
870.32	22649
870.45	22759
870.58	22809
870.71	22721
870.84	22778
870.97	22687
871.1	22782
871.23	22927
871.36	22866
871.489	22968
871.619	22991
871.749	22965
871.879	23018
872.008	23197
872.138	22957
872.267	22908
872.397	22889
872.526	22763
872.656	22850
872.785	22908
872.915	23124
873.044	23033
873.173	23060
873.303	23071
873.432	23003
873.561	23098
873.69	23048
873.819	23086
873.948	23064
874.077	23109
874.206	22923
874.335	23006
874.464	23193
874.593	23284
874.722	23121
874.851	23216
874.979	23227
875.108	23269
875.237	23128
875.365	23060
875.494	23250
875.623	23235
875.751	23303
875.88	23349
876.008	23269
876.136	23417
876.265	23589
876.393	23680
876.521	23745
876.65	23619
876.778	23562
876.906	23516
877.034	23543
877.162	23547
877.29	23482
877.418	23539
877.546	23592
877.674	23566
877.802	23528
877.93	23680
878.058	23440
878.185	23417
878.313	23539
878.441	23577
878.568	23364
878.696	23516
878.824	23630
878.951	23611
879.079	23703
879.206	23916
879.333	23653
879.461	23589
879.588	23623
879.715	23684
879.842	23878
879.97	23566
880.097	23433
880.224	23391
880.351	23433
880.478	23520
880.605	23436
880.732	23528
880.859	23665
880.986	23429
881.112	23341
881.239	23227
881.366	23220
881.493	23143
881.619	22892
881.746	22854
881.872	23037
881.999	22858
882.125	22942
882.252	22999
882.378	22911
882.505	23010
882.631	22771
882.757	22675
882.883	22672
883.01	22698
883.136	22565
883.262	22466
883.388	22527
883.514	22679
883.64	22550
883.766	22500
883.892	22382
884.018	22398
884.143	22611
884.269	22599
884.395	22295
884.52	22177
884.646	22337
884.772	22295
884.897	22109
885.023	22185
885.148	22261
885.274	22405
885.399	22287
885.524	22291
885.65	22253
885.775	22253
885.9	22242
886.025	22306
886.15	22329
886.275	22188
886.4	22223
886.525	22215
886.65	22185
886.775	22169
886.9	22234
887.025	22470
887.149	22196
887.274	21998
887.399	21972
887.523	22055
887.648	21956
887.773	21804
887.897	22090
888.021	22013
888.146	21930
888.27	21975
888.395	22120
888.519	21956
888.643	21975
888.767	22112
888.891	21861
889.015	21850
889.139	21808
889.263	21679
889.387	21903
889.511	21953
889.635	21960
889.759	21800
889.883	21861
890.006	21778
890.13	21968
890.254	21751
890.377	21736
890.501	21580
890.624	21469
890.748	21488
890.871	21519
890.995	21405
891.118	21218
891.241	21249
891.364	21237
891.488	21355
891.611	21329
891.734	21245
891.857	21340
891.98	21416
892.103	21332
892.226	21294
892.349	21104
892.471	21180
892.594	21275
892.717	21275
892.839	21294
892.962	21116
893.085	21222
893.207	21317
893.33	21173
893.452	21127
893.575	21199
893.697	21150
893.819	21374
893.941	21435
894.064	21447
894.186	21024
894.308	21135
894.43	21279
894.552	21408
894.674	21363
894.796	21047
894.918	21237
895.04	21127
895.161	21188
895.283	21241
895.405	21173
895.526	21249
895.648	21260
895.769	21237
895.891	21138
896.012	21279
896.134	21272
896.255	21226
896.376	21226
896.498	21283
896.619	21233
896.74	21214
896.861	21310
896.982	21450
897.103	21675
897.224	21393
897.345	21340
897.466	21428
897.587	21401
897.708	21485
897.828	21523
897.949	21279
898.07	21192
898.19	21363
898.311	21447
898.431	21298
898.552	21488
898.672	21412
898.792	21534
898.913	21428
899.033	21363
899.153	21131
899.273	21214
899.393	21146
899.513	21218
899.633	21211
899.753	21055
899.873	21089
899.993	21096
900.113	21058
900.232	21089
900.352	21043
900.472	20914
900.591	20849
900.711	20902
900.83	20765
900.95	20979
901.069	20910
901.189	20750
901.308	20484
901.427	20454
901.546	20434
901.665	20507
901.784	20412
901.904	20324
902.023	20244
902.141	20054
902.26	19974
902.379	19997
902.498	19940
902.617	19852
902.735	19986
902.854	19875
902.973	19932
903.091	19613
903.21	19559
903.328	19655
903.446	19438
903.565	19464
903.683	19438
903.801	19354
903.919	19388
904.038	19350
904.156	19278
904.274	19312
904.392	19168
904.51	19148
904.627	19148
904.745	19148
904.863	19168
904.981	19000
905.098	18779
905.216	18779
905.334	18787
905.451	18810
905.569	18863
905.686	18848
905.803	18875
905.921	18608
906.038	18654
906.155	18597
906.272	18574
906.389	18563
906.506	18441
906.623	18372
906.74	18315
906.857	18243
906.974	18239
907.091	18407
907.208	18445
907.324	18388
907.441	18258
907.557	18030
907.674	18019
907.79	18106
907.907	18030
908.023	18038
908.139	18049
908.256	18083
908.372	17863
908.488	17931
908.604	17840
908.72	17870
908.836	17775
908.952	17836
909.068	17767
909.184	17802
909.3	17802
909.415	17828
909.531	17783
909.647	17505
909.762	17562
909.878	17433
909.993	17455
910.108	17433
910.224	17436
910.339	17482
910.454	17220
910.57	17269
910.685	17200
910.8	17467
910.915	17402
911.03	17200
911.145	17064
911.259	17094
911.374	17033
911.489	17010
911.604	16957
911.718	16778
911.833	16786
911.947	16569
912.062	16607
912.176	16740
912.291	16786
912.405	16748
912.519	16965
912.633	16961
912.748	16767
912.862	16740
912.976	16668
913.09	16527
913.204	16607
913.318	16527
913.431	16702
913.545	16691
913.659	16755
913.772	16542
913.886	16405
914	16363
914.113	16504
914.226	16485
914.34	16451
914.453	16261
914.566	16386
914.68	16219
914.793	16181
914.906	16029
915.019	15915
915.132	15926
915.245	15865
915.358	15899
915.47	15998
915.583	15941
915.696	16025
915.809	16112
915.921	16185
916.034	15846
916.146	15922
916.259	15819
916.371	15941
916.483	15850
916.595	15747
916.708	15766
916.82	15831
916.932	15732
917.044	15720
917.156	15736
917.268	15530
917.38	15641
917.491	15648
917.603	15534
917.715	15641
917.826	15743
917.938	15504
918.049	15462
918.161	15511
918.272	15762
918.384	15724
918.495	15561
918.606	15272
918.717	15245
918.828	15340
918.939	15313
919.05	15272
919.161	15321
919.272	15154
919.383	15211
919.494	15313
919.604	15511
919.715	15283
919.826	15199
919.936	15325
920.047	15359
920.157	15374
920.267	15450
920.378	15302
920.488	15233
920.598	15473
920.708	15557
920.818	15359
920.928	15310
921.038	15599
921.148	15553
921.258	15211
921.368	15097
921.477	15028
921.587	14994
921.697	14887
921.806	14971
921.916	14853
922.025	14720
922.134	14644
922.244	14511
922.353	14610
922.462	14583
922.571	14484
922.68	14370
922.789	14305
922.898	14404
923.007	14225
923.116	14278
923.224	14252
923.333	14218
923.442	14107
923.55	14031
923.659	14100
923.767	14039
923.876	14046
923.984	14016
924.092	13932
924.201	14039
924.309	14065
924.417	13955
924.525	13837
924.633	13788
924.741	14640
924.849	13772
924.956	13849
925.064	13715
925.172	13552
925.279	13582
925.387	13597
925.494	13647
925.602	13807
925.709	13605
925.816	13521
925.924	13540
926.031	13578
926.138	13518
926.245	13552
926.352	13460
926.459	13639
926.566	13575
926.673	13514
926.779	13365
926.886	13384
926.993	13141
927.099	13168
927.206	13190
927.312	13149
927.419	13266
927.525	13129
927.631	13187
927.737	13080
927.843	13031
927.95	12894
928.056	13031
928.162	12970
928.267	12993
928.373	13567
928.479	12935
928.585	12806
928.69	12916
928.796	12966
928.901	12829
929.007	12650
929.112	12844
929.218	12844
929.323	12745
929.428	12669
929.533	12749
929.638	12635
929.743	12635
929.848	12635
929.953	12665
930.058	12555
930.163	12327
930.267	12327
930.372	12521
930.477	12296
930.581	12547
930.685	12346
930.79	12304
930.894	12270
930.998	12197
931.103	12380
931.207	12003
931.311	11897
931.415	11832
931.519	11551
931.623	11581
