Data from test_V78500241_2380.txt Node
Date: Fri Mar 25 15:58:17 CST 2022
User: usil
Spectrometer: V785-0024
Trigger mode: 0
Integration Time (sec): 4.000000E-1
Scans to average: 1
Nonlinearity correction enabled: false
Boxcar width: 0
Storing dark spectrum: false
XAxis mode: Wavelengths
Number of Pixels in Spectrum: 1024
>>>>>Begin Spectral Data<<<<<
801.071	28847
801.214	28816
801.356	28622
801.499	28702
801.641	28413
801.783	28322
801.926	28474
802.068	28371
802.211	28401
802.353	28436
802.496	28204
802.638	28181
802.78	28101
802.923	28036
803.065	27979
803.208	27972
803.35	28116
803.492	28356
803.635	28371
803.777	28185
803.919	28424
804.061	28664
804.204	28516
804.346	28443
804.488	28303
804.63	28382
804.773	28280
804.915	28497
805.057	28508
805.199	28405
805.341	28641
805.483	28580
805.626	28508
805.768	28367
805.91	28607
806.052	28470
806.194	28428
806.336	28607
806.478	28641
806.62	28592
806.762	28706
806.904	28816
807.046	29121
807.188	29018
807.33	29033
807.472	29079
807.614	28854
807.756	29044
807.898	28923
808.04	28736
808.182	28748
808.324	28786
808.465	28900
808.607	29181
808.749	29022
808.891	29330
809.033	29345
809.174	29311
809.316	29273
809.458	29322
809.6	29121
809.741	29136
809.883	29444
810.025	29566
810.166	29566
810.308	29604
810.45	29577
810.591	29410
810.733	29227
810.875	29307
811.016	29273
811.158	29159
811.299	29315
811.441	29402
811.582	29509
811.724	29216
811.865	29170
812.007	29185
812.148	29109
812.29	29398
812.431	29387
812.573	29512
812.714	29729
812.855	29737
812.997	29764
813.138	30011
813.279	30015
813.421	29809
813.562	29817
813.703	29630
813.845	29391
813.986	29299
814.127	29113
814.268	28949
814.41	28923
814.551	29178
814.692	29162
814.833	28904
814.974	28934
815.115	28987
815.256	28786
815.397	28767
815.539	28881
815.68	28748
815.821	28748
815.962	28805
816.103	28858
816.244	28584
816.385	28675
816.526	28694
816.666	28455
816.807	28417
816.948	28363
817.089	28348
817.23	28261
817.371	28265
817.512	28211
817.653	28162
817.793	28116
817.934	28192
818.075	28318
818.216	28257
818.356	28223
818.497	28200
818.638	28090
818.778	28223
818.919	28215
819.06	28120
819.2	28284
819.341	28200
819.481	28299
819.622	28592
819.762	28500
819.903	28493
820.043	28497
820.184	28573
820.324	28421
820.465	28622
820.605	28428
820.746	28421
820.886	28344
821.026	28295
821.167	28478
821.307	28436
821.447	28261
821.588	28169
821.728	28200
821.868	27869
822.008	27739
822.149	27816
822.289	27713
822.429	27530
822.569	27389
822.709	27530
822.849	27393
822.99	27367
823.13	27093
823.27	27237
823.41	27108
823.55	27043
823.69	27256
823.83	27081
823.97	27070
824.11	26933
824.25	26925
824.389	27032
824.529	27074
824.669	26967
824.809	27112
824.949	27112
825.089	26979
825.228	27051
825.368	26788
825.508	26845
825.648	26933
825.787	26895
825.927	26921
826.067	26720
826.206	26800
826.346	26731
826.485	26853
826.625	26819
826.765	26948
826.904	26868
827.044	26518
827.183	26682
827.323	26393
827.462	26465
827.601	26579
827.741	26617
827.88	26518
828.02	26495
828.159	26514
828.298	26442
828.437	26731
828.577	26431
828.716	26609
828.855	26396
828.994	26130
829.134	26195
829.273	26389
829.412	26157
829.551	26161
829.69	26183
829.829	26305
829.968	26362
830.107	26206
830.246	26286
830.385	26294
830.524	26115
830.663	25947
830.802	25875
830.941	25856
831.08	25830
831.219	25913
831.357	25974
831.496	26054
831.635	25799
831.774	25670
831.913	25597
832.051	25457
832.19	25647
832.329	25696
832.467	25594
832.606	25460
832.744	25415
832.883	25476
833.022	25350
833.16	25521
833.299	25400
833.437	25548
833.576	25578
833.714	25639
833.852	25556
833.991	25628
834.129	25502
834.267	25715
834.406	25582
834.544	25578
834.682	25624
834.821	25567
834.959	25761
835.097	25479
835.235	25571
835.373	25487
835.511	25582
835.65	25445
835.788	25483
835.926	25301
836.064	25247
836.202	25156
836.34	25354
836.478	25460
836.615	25479
836.753	25297
836.891	25499
837.029	25381
837.167	25221
837.305	25285
837.443	25129
837.58	25297
837.718	25270
837.856	25350
837.993	25126
838.131	25171
838.269	24973
838.406	25118
838.544	25031
838.681	24806
838.819	24772
838.956	24730
839.094	24563
839.231	24753
839.369	24848
839.506	25088
839.643	24924
839.781	24734
839.918	24654
840.055	24578
840.193	24623
840.33	24540
840.467	24669
840.604	24578
840.742	24867
840.879	24456
841.016	24399
841.153	24395
841.29	24574
841.427	24646
841.564	24464
841.701	24585
841.838	24407
841.975	24388
842.112	24456
842.249	24448
842.385	24380
842.522	24433
842.659	24460
842.796	24338
842.933	24342
843.069	24296
843.206	24254
843.343	24410
843.479	24338
843.616	24273
843.752	24057
843.889	24076
844.025	24121
844.162	24091
844.298	24167
844.435	24091
844.571	24201
844.708	24117
844.844	24194
844.98	24239
845.117	24117
845.253	24038
845.389	23958
845.525	24064
845.661	23958
845.798	23752
845.934	23798
846.07	23817
846.206	23748
846.342	23859
846.478	23707
846.614	23600
846.75	23368
846.886	23596
847.022	23592
847.158	23627
847.294	23551
847.429	23726
847.565	23486
847.701	23707
847.837	23178
847.972	23235
848.108	23410
848.244	23417
848.379	23102
848.515	23113
848.65	23117
848.786	23064
848.921	23204
849.057	23277
849.192	23280
849.328	23208
849.463	23132
849.598	23162
849.734	23010
849.869	22965
850.004	22805
850.14	22877
850.275	22885
850.41	22873
850.545	22843
850.68	22835
850.815	22953
850.95	23113
851.085	23014
851.22	22995
851.355	22889
851.49	22995
851.625	22949
851.76	22869
851.895	22710
852.03	22862
852.165	23056
852.299	22949
852.434	22961
852.569	22892
852.703	22961
852.838	22934
852.973	23166
853.107	22911
853.242	22873
853.376	22767
853.511	22672
853.645	22637
853.78	22896
853.914	22809
854.048	22755
854.183	22653
854.317	22637
854.451	22873
854.585	22771
854.72	22641
854.854	22812
854.988	22687
855.122	22668
855.256	22554
855.39	22630
855.524	22824
855.658	22733
855.792	22675
855.926	22691
856.06	22801
856.194	22771
856.327	22805
856.461	22653
856.595	22660
856.729	22729
856.862	22820
856.996	22755
857.13	22759
857.263	22786
857.397	22904
857.53	22672
857.664	22801
857.797	22774
857.931	22759
858.064	22748
858.197	22790
858.331	22717
858.464	22725
858.597	22489
858.731	22717
858.864	22793
858.997	22721
859.13	22858
859.263	22637
859.396	22866
859.529	22733
859.662	22744
859.795	22603
859.928	22672
860.061	22862
860.194	22828
860.327	22790
860.46	22771
860.592	22824
860.725	22847
860.858	22812
860.99	22721
861.123	22622
861.256	22664
861.388	22820
861.521	23429
861.653	22618
861.786	22504
861.918	22599
862.05	22500
862.183	22622
862.315	22767
862.447	22687
862.58	22542
862.712	22497
862.844	22394
862.976	22493
863.108	22417
863.24	22949
863.372	22447
863.504	22375
863.636	22329
863.768	22508
863.9	22436
864.032	22360
864.164	22371
864.296	22508
864.428	22451
864.559	22500
864.691	22459
864.823	22447
864.954	22409
865.086	22348
865.217	22356
865.349	22177
865.48	22360
865.612	22310
865.743	22447
865.875	22299
866.006	22116
866.137	22352
866.269	22303
866.4	22223
866.531	22276
866.662	22143
866.793	22147
866.924	22162
867.055	22287
867.186	22318
867.317	22177
867.448	22101
867.579	22139
867.71	22200
867.841	22215
867.972	22295
868.103	22147
868.233	22188
868.364	22242
868.495	22276
868.625	22386
868.756	22500
868.886	22428
869.017	22440
869.147	22474
869.278	22607
869.408	22421
869.539	22474
869.669	22580
869.799	22489
869.929	22546
870.06	22527
870.19	22923
870.32	22809
870.45	22782
870.58	22854
870.71	22858
870.84	23018
870.97	22812
871.1	22812
871.23	23064
871.36	23105
871.489	22953
871.619	23033
871.749	23064
871.879	23029
872.008	23105
872.138	23022
872.267	23109
872.397	22877
872.526	22934
872.656	22816
872.785	22889
872.915	23025
873.044	23151
873.173	23079
873.303	23121
873.432	23208
873.561	23147
873.69	23056
873.819	23067
873.948	23174
874.077	23105
874.206	22896
874.335	23136
874.464	23117
874.593	23254
874.722	23197
874.851	23296
874.979	23345
875.108	23269
875.237	23197
875.365	23242
875.494	23315
875.623	23337
875.751	23303
875.88	23258
876.008	23398
876.136	23474
876.265	23760
876.393	23775
876.521	23699
876.65	23604
876.778	23672
876.906	23653
877.034	23653
877.162	23539
877.29	23611
877.418	23573
877.546	23710
877.674	23520
877.802	23726
877.93	23592
878.058	23646
878.185	23452
878.313	23577
878.441	23539
878.568	23505
878.696	23509
878.824	23535
878.951	23672
879.079	23794
879.206	23927
879.333	23676
879.461	23710
879.588	23805
879.715	23737
879.842	23866
879.97	23802
880.097	23512
880.224	23402
880.351	23463
880.478	23421
880.605	23429
880.732	23406
880.859	23668
880.986	23509
881.112	23554
881.239	23269
881.366	23105
881.493	22987
881.619	22972
881.746	22965
881.872	23094
881.999	22858
882.125	22854
882.252	23079
882.378	23033
882.505	23037
882.631	22843
882.757	22774
882.883	22740
883.01	22573
883.136	22603
883.262	22649
883.388	22519
883.514	22725
883.64	22584
883.766	22554
883.892	22440
884.018	22504
884.143	22717
884.269	22702
884.395	22413
884.52	22223
884.646	22371
884.772	22226
884.897	22177
885.023	22234
885.148	22493
885.274	22485
885.399	22432
885.524	22314
885.65	22265
885.775	22257
885.9	22379
886.025	22367
886.15	22276
886.275	22147
886.4	22154
886.525	22272
886.65	22166
886.775	22207
886.9	22455
887.025	22512
887.149	22249
887.274	21998
887.399	22211
887.523	22017
887.648	21983
887.773	21937
887.897	22021
888.021	22010
888.146	22051
888.27	22109
888.395	22147
888.519	22010
888.643	22200
888.767	21918
888.891	21945
889.015	21884
889.139	21846
889.263	21911
889.387	21983
889.511	22067
889.635	21899
889.759	21842
889.883	21762
890.006	21899
890.13	21926
890.254	21770
890.377	21724
890.501	21561
890.624	21538
890.748	21633
890.871	21401
890.995	21488
891.118	21302
891.241	21329
891.364	21268
891.488	21412
891.611	21458
891.734	21393
891.857	21477
891.98	21428
892.103	21420
892.226	21317
892.349	21401
892.471	21245
892.594	21195
892.717	21412
892.839	21298
892.962	21157
893.085	21313
893.207	21203
893.33	21138
893.452	21112
893.575	21325
893.697	21157
893.819	21393
893.941	21386
894.064	21313
894.186	21294
894.308	21039
894.43	21332
894.552	21416
894.674	21336
894.796	21237
894.918	21195
895.04	21272
895.161	21420
895.283	21291
895.405	21252
895.526	21291
895.648	21230
895.769	21340
895.891	21180
896.012	21294
896.134	21302
896.255	21302
896.376	21180
896.498	21214
896.619	21294
896.74	21298
896.861	21321
896.982	21492
897.103	21644
897.224	21488
897.345	21431
897.466	21332
897.587	21500
897.708	21530
897.828	21534
897.949	21401
898.07	21306
898.19	21336
898.311	21462
898.431	21424
898.552	21424
898.672	21641
898.792	21435
898.913	21428
899.033	21298
899.153	21150
899.273	21112
899.393	21214
899.513	21184
899.633	21142
899.753	21169
899.873	21173
899.993	21218
900.113	21036
900.232	21165
900.352	21036
900.472	21085
900.591	20910
900.711	20941
900.83	20910
900.95	21028
901.069	21077
901.189	20804
901.308	20629
901.427	20568
901.546	20461
901.665	20587
901.784	20446
901.904	20389
902.023	20339
902.141	20248
902.26	20183
902.379	20046
902.498	19989
902.617	20027
902.735	20020
902.854	20077
902.973	19875
903.091	19696
903.21	19658
903.328	19597
903.446	19575
903.565	19510
903.683	19502
903.801	19354
903.919	19381
904.038	19430
904.156	19316
904.274	19221
904.392	19148
904.51	19164
904.627	19160
904.745	19179
904.863	19190
904.981	18996
905.098	18958
905.216	18852
905.334	18985
905.451	18939
905.569	18871
905.686	18863
905.803	18776
905.921	18677
906.038	18779
906.155	18772
906.272	18582
906.389	18616
906.506	18384
906.623	18262
906.74	18490
906.857	18296
906.974	18285
907.091	18380
907.208	18426
907.324	18388
907.441	18262
907.557	18190
907.674	18117
907.79	18125
907.907	18087
908.023	18091
908.139	18117
908.256	18079
908.372	17984
908.488	18038
908.604	17832
908.72	17760
908.836	17813
908.952	17779
909.068	17836
909.184	17996
909.3	17851
909.415	17885
909.531	17809
909.647	17634
909.762	17486
909.878	17474
909.993	17512
910.108	17421
910.224	17604
910.339	17547
910.454	17383
910.57	17402
910.685	17307
910.8	17547
910.915	17410
911.03	17368
911.145	17090
911.259	17083
911.374	17109
911.489	17075
911.604	16877
911.718	16839
911.833	16900
911.947	16672
912.062	16752
912.176	16816
912.291	16793
912.405	16835
912.519	16980
912.633	17022
912.748	16744
912.862	16698
912.976	16717
913.09	16554
913.204	16478
913.318	16717
913.431	16725
913.545	16679
913.659	16656
913.772	16618
913.886	16459
914	16363
914.113	16504
914.226	16459
914.34	16512
914.453	16257
914.566	16466
914.68	16440
914.793	16211
914.906	16071
915.019	16025
915.132	16082
915.245	16010
915.358	16021
915.47	15968
915.583	16040
915.696	16029
915.809	15972
915.921	16124
916.034	15934
916.146	15854
916.259	15816
916.371	16002
916.483	15880
916.595	15755
916.708	15854
916.82	15797
916.932	15789
917.044	15812
917.156	15690
917.268	15603
917.38	15675
917.491	15622
917.603	15686
917.715	15720
917.826	15732
917.938	15553
918.049	15439
918.161	15580
918.272	15679
918.384	15652
918.495	15530
918.606	15496
918.717	15283
918.828	15473
918.939	15382
919.05	15233
919.161	15389
919.272	15093
919.383	15237
919.494	15485
919.604	15576
919.715	15420
919.826	15260
919.936	15344
920.047	15222
920.157	15245
920.267	15439
920.378	15370
920.488	15336
920.598	15469
920.708	15625
920.818	15447
920.928	15336
921.038	15564
921.148	15561
921.258	15142
921.368	15195
921.477	15066
921.587	15032
921.697	14811
921.806	15032
921.916	14887
922.025	14648
922.134	14670
922.244	14659
922.353	14640
922.462	14537
922.571	14454
922.68	14309
922.789	14256
922.898	14355
923.007	14301
923.116	14381
923.224	14317
923.333	14298
923.442	14210
923.55	14031
923.659	14149
923.767	14164
923.876	14081
923.984	14176
924.092	13974
924.201	14027
924.309	13940
924.417	13917
924.525	13887
924.633	13978
924.741	14891
924.849	13822
924.956	13875
925.064	13708
925.172	13647
925.279	13586
925.387	13742
925.494	13807
925.602	13799
925.709	13731
925.816	13590
925.924	13563
926.031	13670
926.138	13658
926.245	13613
926.352	13403
926.459	13670
926.566	13639
926.673	13483
926.779	13377
926.886	13365
926.993	13244
927.099	13183
927.206	13160
927.312	13244
927.419	13168
927.525	13179
927.631	13160
927.737	13110
927.843	13080
927.95	12958
928.056	13091
928.162	13046
928.267	13095
928.373	13685
928.479	13084
928.585	12882
928.69	12943
928.796	12981
928.901	12856
929.007	12772
929.112	12738
929.218	12863
929.323	12749
929.428	12795
929.533	12795
929.638	12662
929.743	12582
929.848	12730
929.953	12627
930.058	12589
930.163	12388
930.267	12437
930.372	12555
930.477	12334
930.581	12696
930.685	12422
930.79	12266
930.894	12338
930.998	12224
931.103	12452
931.207	12102
931.311	11821
931.415	11866
931.519	11680
931.623	11615
