Data from test_V78500241_3597.txt Node
Date: Fri Mar 25 16:06:43 CST 2022
User: usil
Spectrometer: V785-0024
Trigger mode: 0
Integration Time (sec): 4.000000E-1
Scans to average: 1
Nonlinearity correction enabled: false
Boxcar width: 0
Storing dark spectrum: false
XAxis mode: Wavelengths
Number of Pixels in Spectrum: 1024
>>>>>Begin Spectral Data<<<<<
801.071	29140
801.214	28999
801.356	28653
801.499	28660
801.641	28519
801.783	28596
801.926	28660
802.068	28668
802.211	28634
802.353	28390
802.496	28348
802.638	28375
802.78	28287
802.923	28188
803.065	28074
803.208	28280
803.35	28204
803.492	28386
803.635	28443
803.777	28375
803.919	28489
804.061	28790
804.204	28489
804.346	28474
804.488	28447
804.63	28440
804.773	28535
804.915	28668
805.057	28683
805.199	28371
805.341	28580
805.483	28645
805.626	28672
805.768	28565
805.91	28721
806.052	28736
806.194	28485
806.336	28968
806.478	28744
806.62	28816
806.762	28873
806.904	28949
807.046	29315
807.188	29174
807.33	29132
807.472	29121
807.614	29022
807.756	29132
807.898	29033
808.04	28999
808.182	28896
808.324	29060
808.465	28995
808.607	29375
808.749	29474
808.891	29562
809.033	29421
809.174	29452
809.316	29436
809.458	29512
809.6	29277
809.741	29467
809.883	29505
810.025	29615
810.166	29558
810.308	29611
810.45	29566
810.591	29554
810.733	29501
810.875	29398
811.016	29330
811.158	29258
811.299	29493
811.441	29615
811.582	29687
811.724	29395
811.865	29497
812.007	29486
812.148	29337
812.29	29296
812.431	29642
812.573	29737
812.714	29843
812.855	29885
812.997	29927
813.138	30095
813.279	30167
813.421	30003
813.562	29862
813.703	29878
813.845	29722
813.986	29334
814.127	29216
814.268	29128
814.41	29216
814.551	29128
814.692	29189
814.833	28915
814.974	29041
815.115	29162
815.256	29086
815.397	28888
815.539	28976
815.68	29010
815.821	28839
815.962	28923
816.103	28915
816.244	28771
816.385	28816
816.526	28721
816.666	28634
816.807	28398
816.948	28577
817.089	28527
817.23	28440
817.371	28363
817.512	28424
817.653	28554
817.793	28470
817.934	28303
818.075	28421
818.216	28440
818.356	28417
818.497	28246
818.638	28124
818.778	28013
818.919	28299
819.06	28398
819.2	28500
819.341	28554
819.481	28451
819.622	28641
819.762	28702
819.903	28869
820.043	28702
820.184	28462
820.324	28637
820.465	28744
820.605	28611
820.746	28637
820.886	28519
821.026	28603
821.167	28584
821.307	28455
821.447	28550
821.588	28470
821.728	28242
821.868	28078
822.008	27994
822.149	27964
822.289	27972
822.429	27709
822.569	27656
822.709	27743
822.849	27492
822.99	27408
823.13	27705
823.27	27344
823.41	27298
823.55	27233
823.69	27294
823.83	27332
823.97	27268
824.11	27081
824.25	27077
824.389	27169
824.529	27066
824.669	27100
824.809	27150
824.949	27230
825.089	27279
825.228	27112
825.368	27013
825.508	26918
825.648	27028
825.787	27028
825.927	27058
826.067	26944
826.206	27055
826.346	27009
826.485	26921
826.625	26982
826.765	26940
826.904	26883
827.044	26887
827.183	26777
827.323	26731
827.462	26693
827.601	26659
827.741	26800
827.88	26842
828.02	26640
828.159	26625
828.298	26758
828.437	26746
828.577	26670
828.716	26754
828.855	26556
828.994	26526
829.134	26385
829.273	26404
829.412	26473
829.551	26305
829.69	26336
829.829	26473
829.968	26590
830.107	26377
830.246	26377
830.385	26366
830.524	26442
830.663	26309
830.802	26142
830.941	26020
831.08	25970
831.219	26168
831.357	26016
831.496	26176
831.635	26012
831.774	25826
831.913	25993
832.051	25822
832.19	25772
832.329	25791
832.467	25715
832.606	25590
832.744	25689
832.883	25609
833.022	25639
833.16	25712
833.299	25693
833.437	25616
833.576	25811
833.714	25830
833.852	25776
833.991	25837
834.129	25913
834.267	25871
834.406	25765
834.544	25753
834.682	25704
834.821	25628
834.959	25852
835.097	25715
835.235	25727
835.373	25693
835.511	25655
835.65	25605
835.788	25647
835.926	25434
836.064	25453
836.202	25415
836.34	25597
836.478	25696
836.615	25510
836.753	25525
836.891	25647
837.029	25567
837.167	25499
837.305	25354
837.443	25449
837.58	25441
837.718	25388
837.856	25419
837.993	25369
838.131	25282
838.269	25202
838.406	25263
838.544	25324
838.681	24981
838.819	25019
838.956	24909
839.094	24798
839.231	24825
839.369	24943
839.506	25168
839.643	25145
839.781	24951
839.918	24939
840.055	24924
840.193	24764
840.33	24837
840.467	24722
840.604	24829
840.742	24985
840.879	24623
841.016	24635
841.153	24642
841.29	24787
841.427	24798
841.564	24753
841.701	24700
841.838	24696
841.975	24604
842.112	24635
842.249	24559
842.385	24559
842.522	24726
842.659	24597
842.796	24475
842.933	24570
843.069	24437
843.206	24475
843.343	24547
843.479	24486
843.616	24566
843.752	24213
843.889	24277
844.025	24266
844.162	24194
844.298	24361
844.435	24270
844.571	24186
844.708	24308
844.844	24456
844.98	24490
845.117	24388
845.253	24163
845.389	24213
845.525	24102
845.661	24106
845.798	24022
845.934	23874
846.07	24018
846.206	24091
846.342	24079
846.478	23984
846.614	23813
846.75	23726
846.886	23627
847.022	23904
847.158	23733
847.294	23745
847.429	23653
847.565	23745
847.701	23935
847.837	23554
847.972	23417
848.108	23551
848.244	23455
848.379	23288
848.515	23265
848.65	23269
848.786	23337
848.921	23360
849.057	23372
849.192	23220
849.328	23288
849.463	23216
849.598	23280
849.734	23273
849.869	23174
850.004	23098
850.14	23102
850.275	23037
850.41	23083
850.545	23056
850.68	23060
850.815	23037
850.95	23090
851.085	23433
851.22	23162
851.355	23094
851.49	23109
851.625	23064
851.76	23025
851.895	23136
852.03	23067
852.165	23189
852.299	23086
852.434	23200
852.569	23136
852.703	23132
852.838	23079
852.973	23212
853.107	23216
853.242	23006
853.376	22843
853.511	22824
853.645	22782
853.78	22999
853.914	22927
854.048	22877
854.183	22957
854.317	22980
854.451	23044
854.585	22835
854.72	22869
854.854	23003
854.988	22740
855.122	23033
855.256	22805
855.39	22831
855.524	22915
855.658	22896
855.792	22877
855.926	22953
856.06	22839
856.194	22805
856.327	22831
856.461	22885
856.595	22942
856.729	22862
856.862	22938
856.996	22850
857.13	23044
857.263	23044
857.397	22972
857.53	22824
857.664	22980
857.797	22892
857.931	22946
858.064	23014
858.197	22984
858.331	22968
858.464	22778
858.597	22847
858.731	22782
858.864	22877
858.997	22839
859.13	22809
859.263	22904
859.396	22949
859.529	22862
859.662	22957
859.795	22786
859.928	22816
860.061	23022
860.194	23132
860.327	23018
860.46	22828
860.592	22961
860.725	23033
860.858	22915
860.99	22927
861.123	22725
861.256	22877
861.388	22847
861.521	23501
861.653	22824
861.786	22664
861.918	22565
862.05	22763
862.183	22873
862.315	22790
862.447	22991
862.58	22869
862.712	22702
862.844	22603
862.976	22637
863.108	22569
863.24	22984
863.372	22470
863.504	22607
863.636	22668
863.768	22630
863.9	22531
864.032	22497
864.164	22786
864.296	22527
864.428	22622
864.559	22717
864.691	22584
864.823	22672
864.954	22626
865.086	22500
865.217	22512
865.349	22360
865.48	22500
865.612	22588
865.743	22702
865.875	22440
866.006	22512
866.137	22489
866.269	22409
866.4	22519
866.531	22314
866.662	22432
866.793	22318
866.924	22337
867.055	22497
867.186	22402
867.317	22188
867.448	22314
867.579	22440
867.71	22261
867.841	22280
867.972	22306
868.103	22352
868.233	22413
868.364	22440
868.495	22367
868.625	22664
868.756	22668
868.886	22542
869.017	22561
869.147	22755
869.278	22824
869.408	22687
869.539	22782
869.669	22698
869.799	22630
869.929	22828
870.06	22752
870.19	22957
870.32	22881
870.45	23003
870.58	22850
870.71	22999
870.84	23109
870.97	23128
871.1	22953
871.23	23170
871.36	23197
871.489	23117
871.619	23178
871.749	23208
871.879	23200
872.008	23406
872.138	23246
872.267	23193
872.397	23102
872.526	23033
872.656	23044
872.785	23132
872.915	23208
873.044	23307
873.173	23162
873.303	23391
873.432	23433
873.561	23414
873.69	23193
873.819	23143
873.948	23269
874.077	23277
874.206	23136
874.335	23200
874.464	23322
874.593	23433
874.722	23471
874.851	23429
874.979	23592
875.108	23531
875.237	23349
875.365	23429
875.494	23452
875.623	23604
875.751	23509
875.88	23551
876.008	23585
876.136	23558
876.265	23851
876.393	23942
876.521	23992
876.65	24018
876.778	23847
876.906	23741
877.034	23821
877.162	23840
877.29	23832
877.418	23786
877.546	23764
877.674	23794
877.802	23767
877.93	23646
878.058	23855
878.185	23790
878.313	23767
878.441	23752
878.568	23657
878.696	23676
878.824	23676
878.951	23737
879.079	24076
879.206	24064
879.333	23851
879.461	23805
879.588	23878
879.715	24057
879.842	24049
879.97	23836
880.097	23627
880.224	23589
880.351	23748
880.478	23638
880.605	23672
880.732	23573
880.859	23821
880.986	23619
881.112	23665
881.239	23471
881.366	23341
881.493	23212
881.619	23143
881.746	23216
881.872	23151
881.999	23113
882.125	23147
882.252	23330
882.378	23185
882.505	23258
882.631	22995
882.757	22980
882.883	22881
883.01	22839
883.136	22755
883.262	22691
883.388	22733
883.514	22847
883.64	22805
883.766	22748
883.892	22607
884.018	22675
884.143	22721
884.269	22869
884.395	22527
884.52	22436
884.646	22478
884.772	22379
884.897	22485
885.023	22497
885.148	22573
885.274	22634
885.399	22485
885.524	22470
885.65	22519
885.775	22500
885.9	22523
886.025	22516
886.15	22538
886.275	22432
886.4	22432
886.525	22459
886.65	22421
886.775	22409
886.9	22516
887.025	22611
887.149	22386
887.274	22280
887.399	22139
887.523	22109
887.648	22310
887.773	22131
887.897	22402
888.021	22223
888.146	22097
888.27	22196
888.395	22276
888.519	22390
888.643	22280
888.767	22154
888.891	22196
889.015	21987
889.139	21979
889.263	22021
889.387	22124
889.511	22219
889.635	22086
889.759	22006
889.883	21960
890.006	22112
890.13	22051
890.254	22002
890.377	21861
890.501	21781
890.624	21804
890.748	21747
890.871	21591
890.995	21618
891.118	21519
891.241	21587
891.364	21603
891.488	21610
891.611	21622
891.734	21496
891.857	21595
891.98	21545
892.103	21625
892.226	21606
892.349	21500
892.471	21386
892.594	21412
892.717	21435
892.839	21329
892.962	21428
893.085	21435
893.207	21310
893.33	21188
893.452	21298
893.575	21424
893.697	21408
893.819	21595
893.941	21458
894.064	21538
894.186	21302
894.308	21340
894.43	21447
894.552	21534
894.674	21485
894.796	21344
894.918	21321
895.04	21515
895.161	21481
895.283	21583
895.405	21462
895.526	21431
895.648	21405
895.769	21393
895.891	21412
896.012	21447
896.134	21477
896.255	21348
896.376	21359
896.498	21291
896.619	21329
896.74	21408
896.861	21496
896.982	21751
897.103	21808
897.224	21701
897.345	21557
897.466	21572
897.587	21595
897.708	21633
897.828	21698
897.949	21557
898.07	21458
898.19	21641
898.311	21656
898.431	21591
898.552	21648
898.672	21545
898.792	21694
898.913	21568
899.033	21538
899.153	21370
899.273	21180
899.393	21397
899.513	21321
899.633	21420
899.753	21454
899.873	21195
899.993	21367
900.113	21340
900.232	21355
900.352	21127
900.472	21161
900.591	21036
900.711	21009
900.83	20941
900.95	21176
901.069	21135
901.189	20994
901.308	20811
901.427	20727
901.546	20708
901.665	20731
901.784	20708
901.904	20507
902.023	20374
902.141	20221
902.26	20218
902.379	20317
902.498	20180
902.617	20134
902.735	20271
902.854	20119
902.973	19967
903.091	19818
903.21	19852
903.328	19738
903.446	19769
903.565	19624
903.683	19601
903.801	19449
903.919	19537
904.038	19464
904.156	19411
904.274	19403
904.392	19369
904.51	19426
904.627	19282
904.745	19339
904.863	19369
904.981	19072
905.098	19114
905.216	19000
905.334	19046
905.451	18985
905.569	19072
905.686	19042
905.803	19091
905.921	18802
906.038	18905
906.155	18730
906.272	18753
906.389	18658
906.506	18506
906.623	18650
906.74	18612
906.857	18361
906.974	18448
907.091	18464
907.208	18642
907.324	18445
907.441	18460
907.557	18273
907.674	18319
907.79	18155
907.907	18258
908.023	18311
908.139	18140
908.256	18209
908.372	18163
908.488	18144
908.604	17969
908.72	17920
908.836	18060
908.952	17973
909.068	17992
909.184	18079
909.3	17958
909.415	17999
909.531	18019
909.647	17691
909.762	17699
909.878	17630
909.993	17592
910.108	17600
910.224	17589
910.339	17547
910.454	17425
910.57	17448
910.685	17288
910.8	17707
910.915	17577
911.03	17459
911.145	17353
911.259	17189
911.374	17223
911.489	17041
911.604	17041
911.718	16957
911.833	16927
911.947	17041
912.062	16824
912.176	17041
912.291	17029
912.405	16991
912.519	17109
912.633	17109
912.748	17041
912.862	16938
912.976	16729
913.09	16645
913.204	16771
913.318	16713
913.431	16904
913.545	16820
913.659	16782
913.772	16694
913.886	16607
914	16645
914.113	16626
914.226	16656
914.34	16687
914.453	16318
914.566	16618
914.68	16504
914.793	16363
914.906	16097
915.019	16211
915.132	15968
915.245	16276
915.358	16147
915.47	16105
915.583	16139
915.696	16128
915.809	16329
915.921	16337
916.034	16093
916.146	16002
916.259	16036
916.371	16192
916.483	16071
916.595	15968
916.708	15953
916.82	15873
916.932	15827
917.044	15899
917.156	15808
917.268	15701
917.38	15759
917.491	15728
917.603	15671
917.715	15797
917.826	15816
917.938	15686
918.049	15641
918.161	15713
918.272	15850
918.384	15789
918.495	15660
918.606	15564
918.717	15481
918.828	15542
918.939	15538
919.05	15477
919.161	15500
919.272	15199
919.383	15310
919.494	15530
919.604	15728
919.715	15359
919.826	15355
919.936	15477
920.047	15580
920.157	15477
920.267	15523
920.378	15469
920.488	15473
920.598	15595
920.708	15732
920.818	15500
920.928	15580
921.038	15770
921.148	15698
921.258	15363
921.368	15249
921.477	15222
921.587	15100
921.697	15058
921.806	15176
921.916	14960
922.025	14842
922.134	14804
922.244	14670
922.353	14781
922.462	14613
922.571	14594
922.68	14427
922.789	14488
922.898	14385
923.007	14347
923.116	14434
923.224	14351
923.333	14343
923.442	14278
923.55	14259
923.659	14275
923.767	14305
923.876	14164
923.984	14298
924.092	14065
924.201	14153
924.309	14149
924.417	14153
924.525	13970
924.633	14115
924.741	14937
924.849	13864
924.956	13951
925.064	13826
925.172	13780
925.279	13746
925.387	13841
925.494	13818
925.602	13898
925.709	13784
925.816	13681
925.924	13658
926.031	13753
926.138	13696
926.245	13750
926.352	13677
926.459	13677
926.566	13658
926.673	13681
926.779	13495
926.886	13540
926.993	13312
927.099	13289
927.206	13282
927.312	13274
927.419	13270
927.525	13373
927.631	13335
927.737	13126
927.843	13213
927.95	13084
928.056	12981
928.162	13190
928.267	13122
928.373	13807
928.479	13228
928.585	12958
928.69	13141
928.796	13099
928.901	12913
929.007	12875
929.112	13012
929.218	12977
929.323	12829
929.428	12848
929.533	12890
929.638	12798
929.743	12814
929.848	12840
929.953	12726
930.058	12646
930.163	12547
930.267	12441
930.372	12574
930.477	12399
930.581	12696
930.685	12563
930.79	12277
930.894	12380
930.998	12277
931.103	12460
931.207	12163
931.311	12068
931.415	11874
931.519	11695
931.623	11623
