Data from test_V78500241_818.txt Node
Date: Fri Mar 25 15:47:28 CST 2022
User: usil
Spectrometer: V785-0024
Trigger mode: 0
Integration Time (sec): 4.000000E-1
Scans to average: 1
Nonlinearity correction enabled: false
Boxcar width: 0
Storing dark spectrum: false
XAxis mode: Wavelengths
Number of Pixels in Spectrum: 1024
>>>>>Begin Spectral Data<<<<<
801.071	27770
801.214	27644
801.356	27389
801.499	27370
801.641	27108
801.783	27317
801.926	27439
802.068	27165
802.211	27207
802.353	27161
802.496	26921
802.638	26918
802.78	26975
802.923	26804
803.065	26883
803.208	26902
803.35	26895
803.492	26895
803.635	27043
803.777	26887
803.919	27169
804.061	27420
804.204	27176
804.346	26880
804.488	26933
804.63	27066
804.773	27131
804.915	27108
805.057	27294
805.199	27157
805.341	27199
805.483	27211
805.626	27268
805.768	27127
805.91	27272
806.052	27211
806.194	27184
806.336	27351
806.478	27237
806.62	27336
806.762	27443
806.904	27606
807.046	27854
807.188	27793
807.33	27583
807.472	27580
807.614	27709
807.756	27530
807.898	27427
808.04	27256
808.182	27477
808.324	27538
808.465	27504
808.607	27736
808.749	28063
808.891	27941
809.033	27972
809.174	27945
809.316	27793
809.458	28067
809.6	27903
809.741	27949
809.883	28185
810.025	28097
810.166	28055
810.308	28131
810.45	28124
810.591	28002
810.733	27819
810.875	27804
811.016	27705
811.158	27884
811.299	28040
811.441	28185
811.582	28105
811.724	27914
811.865	27937
812.007	27812
812.148	27956
812.29	27934
812.431	27964
812.573	28200
812.714	28261
812.855	28360
812.997	28398
813.138	28706
813.279	28493
813.421	28527
813.562	28325
813.703	28318
813.845	27994
813.986	27865
814.127	27549
814.268	27515
814.41	27534
814.551	27431
814.692	27633
814.833	27538
814.974	27671
815.115	27625
815.256	27405
815.397	27416
815.539	27439
815.68	27393
815.821	27275
815.962	27370
816.103	27325
816.244	27367
816.385	27157
816.526	26990
816.666	26906
816.807	26887
816.948	26937
817.089	26899
817.23	26811
817.371	26811
817.512	26868
817.653	26963
817.793	26781
817.934	26994
818.075	26887
818.216	26960
818.356	26826
818.497	26785
818.638	26537
818.778	26564
818.919	26648
819.06	26636
819.2	26735
819.341	26967
819.481	27001
819.622	26811
819.762	27211
819.903	27135
820.043	27028
820.184	26948
820.324	26895
820.465	27070
820.605	26956
820.746	26990
820.886	26807
821.026	26819
821.167	26868
821.307	27081
821.447	26826
821.588	26674
821.728	26609
821.868	26393
822.008	26366
822.149	26385
822.289	26233
822.429	25940
822.569	26050
822.709	25932
822.849	25887
822.99	25814
823.13	25753
823.27	25723
823.41	25776
823.55	25559
823.69	25826
823.83	25693
823.97	25601
824.11	25358
824.25	25434
824.389	25457
824.529	25567
824.669	25472
824.809	25613
824.949	25571
825.089	25666
825.228	25529
825.368	25251
825.508	25266
825.648	25320
825.787	25373
825.927	25449
826.067	25373
826.206	25282
826.346	25350
826.485	25449
826.625	25426
826.765	25438
826.904	25422
827.044	25084
827.183	25110
827.323	25027
827.462	25110
827.601	25065
827.741	25050
827.88	25065
828.02	25027
828.159	25027
828.298	25133
828.437	25126
828.577	24970
828.716	25084
828.855	24992
828.994	24821
829.134	24787
829.273	24859
829.412	24783
829.551	24696
829.69	24859
829.829	24768
829.968	24821
830.107	24821
830.246	24783
830.385	24661
830.524	24612
830.663	24532
830.802	24555
830.941	24483
831.08	24323
831.219	24513
831.357	24403
831.496	24658
831.635	24334
831.774	24285
831.913	24247
832.051	24144
832.19	24121
832.329	24102
832.467	24038
832.606	23847
832.744	23984
832.883	24045
833.022	24045
833.16	23897
833.299	24159
833.437	24034
833.576	24159
833.714	24106
833.852	24209
833.991	24239
834.129	24194
834.267	24060
834.406	24254
834.544	24060
834.682	23984
834.821	24015
834.959	24323
835.097	24079
835.235	24045
835.373	24045
835.511	24163
835.65	23897
835.788	23980
835.926	23836
836.064	23729
836.202	23748
836.34	23954
836.478	23942
836.615	23885
836.753	23973
836.891	23931
837.029	24003
837.167	23893
837.305	23813
837.443	23767
837.58	23805
837.718	23859
837.856	23855
837.993	23592
838.131	23798
838.269	23676
838.406	23771
838.544	23718
838.681	23444
838.819	23364
838.956	23174
839.094	23356
839.231	23299
839.369	23364
839.506	23551
839.643	23490
839.781	23288
839.918	23162
840.055	23155
840.193	23204
840.33	23159
840.467	23296
840.604	23193
840.742	23337
840.879	23014
841.016	23105
841.153	22949
841.29	23193
841.427	23166
841.564	23216
841.701	23094
841.838	23117
841.975	23166
842.112	23083
842.249	22892
842.385	22923
842.522	23022
842.659	23041
842.796	23037
842.933	22847
843.069	22755
843.206	22805
843.343	22968
843.479	22942
843.616	22957
843.752	22622
843.889	22702
844.025	22801
844.162	22516
844.298	22740
844.435	22748
844.571	22717
844.708	22733
844.844	22782
844.98	22915
845.117	22812
845.253	22573
845.389	22573
845.525	22519
845.661	22508
845.798	22459
845.934	22367
846.07	22284
846.206	22382
846.342	22474
846.478	22436
846.614	22128
846.75	22200
846.886	22143
847.022	22105
847.158	22147
847.294	22173
847.429	22128
847.565	22131
847.701	22325
847.837	21857
847.972	21808
848.108	22044
848.244	21770
848.379	21827
848.515	21823
848.65	21857
848.786	21743
848.921	21743
849.057	21759
849.192	21842
849.328	21785
849.463	21633
849.598	21637
849.734	21644
849.869	21515
850.004	21599
850.14	21526
850.275	21500
850.41	21401
850.545	21412
850.68	21523
850.815	21500
850.95	21553
851.085	21591
851.22	21705
851.355	21477
851.49	21401
851.625	21469
851.76	21469
851.895	21382
852.03	21363
852.165	21500
852.299	21485
852.434	21568
852.569	21382
852.703	21431
852.838	21473
852.973	21576
853.107	21583
853.242	21481
853.376	21378
853.511	21245
853.645	21298
853.78	21435
853.914	21348
854.048	21222
854.183	21313
854.317	21405
854.451	21526
854.585	21405
854.72	21405
854.854	21348
854.988	21256
855.122	21367
855.256	21146
855.39	21393
855.524	21370
855.658	21275
855.792	21252
855.926	21389
856.06	21344
856.194	21283
856.327	21367
856.461	21218
856.595	21150
856.729	21249
856.862	21351
856.996	21420
857.13	21374
857.263	21313
857.397	21447
857.53	21401
857.664	21329
857.797	21420
857.931	21450
858.064	21310
858.197	21477
858.331	21393
858.464	21199
858.597	21256
858.731	21233
858.864	21150
858.997	21230
859.13	21340
859.263	21367
859.396	21454
859.529	21359
859.662	21302
859.795	21252
859.928	21329
860.061	21431
860.194	21576
860.327	21268
860.46	21302
860.592	21336
860.725	21397
860.858	21321
860.99	21245
861.123	21150
861.256	21100
861.388	21211
861.521	22021
861.653	21173
861.786	21150
861.918	21161
862.05	21237
862.183	21222
862.315	21218
862.447	21325
862.58	21287
862.712	21028
862.844	20941
862.976	21005
863.108	21005
863.24	21481
863.372	20963
863.504	21028
863.636	21066
863.768	21081
863.9	20971
864.032	21104
864.164	20944
864.296	20914
864.428	21096
864.559	20963
864.691	21127
864.823	21039
864.954	21009
865.086	20986
865.217	20895
865.349	20929
865.48	20925
865.612	20925
865.743	20971
865.875	20872
866.006	20899
866.137	20937
866.269	20925
866.4	20819
866.531	20815
866.662	20754
866.793	20883
866.924	20815
867.055	20948
867.186	20891
867.317	20861
867.448	20785
867.579	20815
867.71	20864
867.841	20861
867.972	20811
868.103	20838
868.233	20845
868.364	20883
868.495	20861
868.625	21108
868.756	21211
868.886	20941
869.017	21055
869.147	21279
869.278	21157
869.408	21085
869.539	20979
869.669	21131
869.799	21024
869.929	21230
870.06	21207
870.19	21416
870.32	21416
870.45	21447
870.58	21420
870.71	21507
870.84	21564
870.97	21454
871.1	21458
871.23	21679
871.36	21583
871.489	21477
871.619	21686
871.749	21641
871.879	21835
872.008	21724
872.138	21637
872.267	21614
872.397	21526
872.526	21439
872.656	21447
872.785	21458
872.915	21675
873.044	21808
873.173	21728
873.303	21675
873.432	21797
873.561	21873
873.69	21953
873.819	21785
873.948	21789
874.077	21709
874.206	21732
874.335	21679
874.464	21785
874.593	21964
874.722	21804
874.851	21956
874.979	21831
875.108	22013
875.237	21865
875.365	22021
875.494	21907
875.623	21994
875.751	21979
875.88	21937
876.008	22131
876.136	22196
876.265	22291
876.393	22436
876.521	22341
876.65	22352
876.778	22310
876.906	22303
877.034	22367
877.162	22226
877.29	22249
877.418	22322
877.546	22185
877.674	22181
877.802	22310
877.93	22268
878.058	22261
878.185	22055
878.313	22200
878.441	22265
878.568	22226
878.696	22287
878.824	22386
878.951	22451
879.079	22535
879.206	22561
879.333	22478
879.461	22352
879.588	22333
879.715	22478
879.842	22531
879.97	22394
880.097	22211
880.224	22131
880.351	22143
880.478	22181
880.605	21926
880.732	22112
880.859	22303
880.986	22097
881.112	22143
881.239	21934
881.366	21861
881.493	21842
881.619	21625
881.746	21705
881.872	21724
881.999	21583
882.125	21599
882.252	21709
882.378	21652
882.505	21846
882.631	21698
882.757	21348
882.883	21507
883.01	21450
883.136	21408
883.262	21241
883.388	21245
883.514	21355
883.64	21344
883.766	21382
883.892	21146
884.018	21188
884.143	21237
884.269	21389
884.395	21058
884.52	21039
884.646	21005
884.772	20986
884.897	20857
885.023	21017
885.148	21165
885.274	21154
885.399	21047
885.524	20956
885.65	21104
885.775	20960
885.9	21055
886.025	21138
886.15	21169
886.275	20982
886.4	20819
886.525	21039
886.65	20975
886.775	20944
886.9	21093
887.025	21264
887.149	21074
887.274	20864
887.399	20781
887.523	20830
887.648	20724
887.773	20758
887.897	20857
888.021	20956
888.146	20754
888.27	20842
888.395	21066
888.519	20842
888.643	20921
888.767	20967
888.891	20796
889.015	20670
889.139	20720
889.263	20609
889.387	20708
889.511	20705
889.635	20735
889.759	20705
889.883	20644
890.006	20754
890.13	20663
890.254	20499
890.377	20537
890.501	20259
890.624	20343
890.748	20427
890.871	20366
890.995	20206
891.118	20142
891.241	20298
891.364	20229
891.488	20282
891.611	20252
891.734	20145
891.857	20229
891.98	20263
892.103	20275
892.226	20218
892.349	20183
892.471	20065
892.594	20122
892.717	20157
892.839	20027
892.962	20157
893.085	20191
893.207	20119
893.33	20054
893.452	19887
893.575	20088
893.697	20058
893.819	20176
893.941	20374
894.064	20294
894.186	20050
894.308	20100
894.43	20180
894.552	20256
894.674	20122
894.796	19967
894.918	20073
895.04	20031
895.161	20206
895.283	20172
895.405	19982
895.526	20122
895.648	20134
895.769	20176
895.891	20237
896.012	20317
896.134	20161
896.255	20027
896.376	20092
896.498	20039
896.619	20088
896.74	20248
896.861	20183
896.982	20396
897.103	20568
897.224	20442
897.345	20301
897.466	20313
897.587	20415
897.708	20446
897.828	20465
897.949	20320
898.07	20180
898.19	20206
898.311	20339
898.431	20305
898.552	20298
898.672	20366
898.792	20377
898.913	20355
899.033	20286
899.153	20096
899.273	20081
899.393	20092
899.513	20058
899.633	20039
899.753	20084
899.873	19993
899.993	20138
900.113	20058
900.232	20111
900.352	20012
900.472	19909
900.591	19875
900.711	19868
900.83	19799
900.95	19947
901.069	19989
901.189	19738
901.308	19521
901.427	19563
901.546	19495
901.665	19460
901.784	19487
901.904	19263
902.023	19206
902.141	19095
902.26	18951
902.379	19065
902.498	18897
902.617	18951
902.735	19095
902.854	18882
902.973	18928
903.091	18677
903.21	18684
903.328	18692
903.446	18483
903.565	18452
903.683	18433
903.801	18346
903.919	18391
904.038	18448
904.156	18300
904.274	18209
904.392	18068
904.51	18194
904.627	18235
904.745	18281
904.863	18228
904.981	18026
905.098	17824
905.216	17961
905.334	17805
905.451	17923
905.569	17870
905.686	17863
905.803	17828
905.921	17630
906.038	17691
906.155	17638
906.272	17558
906.389	17573
906.506	17448
906.623	17478
906.74	17414
906.857	17360
906.974	17277
907.091	17505
907.208	17551
907.324	17410
907.441	17269
907.557	17159
907.674	17227
907.79	17075
907.907	17143
908.023	17212
908.139	17083
908.256	17136
908.372	17056
908.488	17067
908.604	16908
908.72	16820
908.836	16721
908.952	16793
909.068	16774
909.184	16942
909.3	16881
909.415	16858
909.531	16892
909.647	16584
909.762	16550
909.878	16481
909.993	16565
910.108	16481
910.224	16558
910.339	16462
910.454	16379
910.57	16337
910.685	16348
910.8	16561
910.915	16599
911.03	16310
911.145	16299
911.259	16154
911.374	16181
911.489	15953
911.604	15960
911.718	15876
911.833	15968
911.947	15835
912.062	15728
912.176	15899
912.291	15991
912.405	15949
912.519	16063
912.633	16074
912.748	15975
912.862	15724
912.976	15720
913.09	15458
913.204	15663
913.318	15667
913.431	15831
913.545	15770
913.659	15800
913.772	15682
913.886	15542
914	15538
914.113	15599
914.226	15587
914.34	15610
914.453	15370
914.566	15568
914.68	15363
914.793	15397
914.906	15230
915.019	15188
915.132	15039
915.245	15131
915.358	15123
915.47	15165
915.583	15119
915.696	15203
915.809	15154
915.921	15237
916.034	15055
916.146	15032
916.259	15062
916.371	14971
916.483	15039
916.595	14906
916.708	14979
916.82	14948
916.932	14845
917.044	14857
917.156	14769
917.268	14746
917.38	14823
917.491	14758
917.603	14872
917.715	14834
917.826	14830
917.938	14720
918.049	14552
918.161	14765
918.272	14830
918.384	14792
918.495	14693
918.606	14632
918.717	14366
918.828	14537
918.939	14473
919.05	14469
919.161	14564
919.272	14271
919.383	14377
919.494	14484
919.604	14659
919.715	14522
919.826	14377
919.936	14423
920.047	14621
920.157	14476
920.267	14655
920.378	14465
920.488	14511
920.598	14530
920.708	14815
920.818	14579
920.928	14670
921.038	14743
921.148	14754
921.258	14446
921.368	14256
921.477	14244
921.587	14259
921.697	14069
921.806	14187
921.916	14088
922.025	13883
922.134	13963
922.244	13776
922.353	13913
922.462	13803
922.571	13742
922.68	13499
922.789	13559
922.898	13457
923.007	13506
923.116	13590
923.224	13502
923.333	13430
923.442	13403
923.55	13369
923.659	13354
923.767	13392
923.876	13255
923.984	13320
924.092	13274
924.201	13384
924.309	13244
924.417	13202
924.525	13175
924.633	13244
924.741	14077
924.849	13000
924.956	13099
925.064	13000
925.172	12844
925.279	12954
925.387	12981
925.494	12966
925.602	13027
925.709	12905
925.816	12856
925.924	12844
926.031	12970
926.138	12829
926.245	12829
926.352	12783
926.459	12985
926.566	12905
926.673	12795
926.779	12749
926.886	12612
926.993	12570
927.099	12570
927.206	12494
927.312	12452
927.419	12578
927.525	12513
927.631	12502
927.737	12369
927.843	12384
927.95	12289
928.056	12315
928.162	12296
928.267	12395
928.373	12935
928.479	12399
928.585	12133
928.69	12213
928.796	12311
928.901	12277
929.007	12053
929.112	12197
929.218	12140
929.323	12095
929.428	12098
929.533	12277
929.638	12026
929.743	11977
929.848	12011
929.953	12007
930.058	11923
930.163	11718
930.267	11802
930.372	11950
930.477	11718
930.581	11889
930.685	11760
930.79	11592
930.894	11688
930.998	11611
931.103	11665
931.207	11425
931.311	11345
931.415	11140
931.519	11045
931.623	10999
