Data from test_V78500241_2167.txt Node
Date: Fri Mar 25 15:56:48 CST 2022
User: usil
Spectrometer: V785-0024
Trigger mode: 0
Integration Time (sec): 4.000000E-1
Scans to average: 1
Nonlinearity correction enabled: false
Boxcar width: 0
Storing dark spectrum: false
XAxis mode: Wavelengths
Number of Pixels in Spectrum: 1024
>>>>>Begin Spectral Data<<<<<
801.071	28934
801.214	28919
801.356	28729
801.499	28493
801.641	28512
801.783	28588
801.926	28592
802.068	28527
802.211	28432
802.353	28466
802.496	28139
802.638	28230
802.78	28093
802.923	28215
803.065	28177
803.208	28063
803.35	28234
803.492	28333
803.635	28413
803.777	28375
803.919	28535
804.061	28713
804.204	28447
804.346	28367
804.488	28360
804.63	28436
804.773	28253
804.915	28493
805.057	28577
805.199	28489
805.341	28451
805.483	28683
805.626	28603
805.768	28466
805.91	28592
806.052	28618
806.194	28485
806.336	28706
806.478	28565
806.62	28542
806.762	28748
806.904	28835
807.046	29067
807.188	29010
807.33	29056
807.472	29181
807.614	29048
807.756	28999
807.898	28911
808.04	28778
808.182	28740
808.324	28911
808.465	29064
808.607	29128
808.749	29292
808.891	29395
809.033	29212
809.174	29330
809.316	29303
809.458	29292
809.6	29185
809.741	29459
809.883	29467
810.025	29668
810.166	29364
810.308	29562
810.45	29551
810.591	29490
810.733	29288
810.875	29254
811.016	29193
811.158	29140
811.299	29444
811.441	29463
811.582	29482
811.724	29280
811.865	29387
812.007	29322
812.148	29372
812.29	29277
812.431	29425
812.573	29539
812.714	29665
812.855	29680
812.997	29942
813.138	30167
813.279	30045
813.421	29809
813.562	29638
813.703	29608
813.845	29592
813.986	29288
814.127	29143
814.268	29071
814.41	29022
814.551	29025
814.692	29151
814.833	28927
814.974	29014
815.115	29052
815.256	28965
815.397	28934
815.539	28801
815.68	28683
815.821	28687
815.962	28953
816.103	28866
816.244	28694
816.385	28569
816.526	28653
816.666	28459
816.807	28344
816.948	28329
817.089	28276
817.23	28352
817.371	28291
817.512	28280
817.653	28284
817.793	28306
817.934	28413
818.075	28401
818.216	28333
818.356	28280
818.497	28192
818.638	28048
818.778	28021
818.919	28120
819.06	28200
819.2	28238
819.341	28375
819.481	28409
819.622	28694
819.762	28653
819.903	28626
820.043	28618
820.184	28348
820.324	28470
820.465	28588
820.605	28455
820.746	28424
820.886	28284
821.026	28466
821.167	28344
821.307	28462
821.447	28226
821.588	28322
821.728	28063
821.868	27949
822.008	27831
822.149	27926
822.289	27793
822.429	27587
822.569	27629
822.709	27591
822.849	27325
822.99	27146
823.13	27427
823.27	27416
823.41	27119
823.55	27104
823.69	27093
823.83	27150
823.97	27207
824.11	26910
824.25	27096
824.389	27013
824.529	26914
824.669	27070
824.809	27062
824.949	27093
825.089	27226
825.228	27146
825.368	26762
825.508	26899
825.648	26975
825.787	26952
825.927	27009
826.067	26887
826.206	26921
826.346	26845
826.485	27005
826.625	27005
826.765	26925
826.904	26826
827.044	26754
827.183	26640
827.323	26651
827.462	26617
827.601	26629
827.741	26705
827.88	26667
828.02	26621
828.159	26503
828.298	26590
828.437	26602
828.577	26571
828.716	26720
828.855	26488
828.994	26347
829.134	26320
829.273	26450
829.412	26138
829.551	26233
829.69	26332
829.829	26320
829.968	26476
830.107	26427
830.246	26309
830.385	26164
830.524	26328
830.663	26172
830.802	26088
830.941	25925
831.08	25951
831.219	25997
831.357	26035
831.496	26077
831.635	25940
831.774	25887
831.913	25818
832.051	25651
832.19	25655
832.329	25639
832.467	25597
832.606	25449
832.744	25521
832.883	25544
833.022	25411
833.16	25624
833.299	25742
833.437	25677
833.576	25597
833.714	25544
833.852	25674
833.991	25712
834.129	25772
834.267	25681
834.406	25681
834.544	25677
834.682	25597
834.821	25624
834.959	25696
835.097	25571
835.235	25731
835.373	25674
835.511	25582
835.65	25487
835.788	25537
835.926	25316
836.064	25343
836.202	25209
836.34	25396
836.478	25472
836.615	25441
836.753	25499
836.891	25594
837.029	25384
837.167	25419
837.305	25365
837.443	25156
837.58	25274
837.718	25350
837.856	25396
837.993	25263
838.131	25228
838.269	25084
838.406	25145
838.544	25168
838.681	24913
838.819	24924
838.956	24749
839.094	24719
839.231	24741
839.369	24939
839.506	25217
839.643	24977
839.781	24646
839.918	24681
840.055	24608
840.193	24688
840.33	24692
840.467	24681
840.604	24555
840.742	24943
840.879	24585
841.016	24639
841.153	24566
841.29	24730
841.427	24536
841.564	24684
841.701	24715
841.838	24604
841.975	24566
842.112	24448
842.249	24498
842.385	24414
842.522	24612
842.659	24490
842.796	24410
842.933	24418
843.069	24315
843.206	24216
843.343	24289
843.479	24403
843.616	24296
843.752	24117
843.889	24254
844.025	24361
844.162	24213
844.298	24167
844.435	24171
844.571	24133
844.708	24178
844.844	24232
844.98	24289
845.117	24201
845.253	23954
845.389	23980
845.525	24007
845.661	24076
845.798	23912
845.934	23969
846.07	23821
846.206	23863
846.342	24053
846.478	23828
846.614	23821
846.75	23596
846.886	23581
847.022	23661
847.158	23558
847.294	23562
847.429	23653
847.565	23535
847.701	23866
847.837	23520
847.972	23315
848.108	23372
848.244	23535
848.379	23356
848.515	23223
848.65	23284
848.786	23322
848.921	23227
849.057	23463
849.192	23242
849.328	23220
849.463	23189
849.598	23303
849.734	23102
849.869	23098
850.004	22953
850.14	22968
850.275	22934
850.41	22927
850.545	22919
850.68	22968
850.815	22900
850.95	22980
851.085	23242
851.22	23090
851.355	22949
851.49	22942
851.625	23006
851.76	22953
851.895	22915
852.03	23056
852.165	22984
852.299	22957
852.434	22991
852.569	22995
852.703	22911
852.838	23132
852.973	23037
853.107	23048
853.242	22816
853.376	22858
853.511	22542
853.645	22801
853.78	22892
853.914	22809
854.048	22622
854.183	22767
854.317	22793
854.451	22889
854.585	22866
854.72	22733
854.854	22801
854.988	22702
855.122	22889
855.256	22649
855.39	22679
855.524	22824
855.658	22812
855.792	22672
855.926	22850
856.06	22892
856.194	22892
856.327	22938
856.461	22599
856.595	22649
856.729	22915
856.862	22892
856.996	22862
857.13	22908
857.263	22843
857.397	22877
857.53	22664
857.664	22862
857.797	22862
857.931	22767
858.064	22767
858.197	22847
858.331	22729
858.464	22599
858.597	22698
858.731	22725
858.864	22793
858.997	22748
859.13	22744
859.263	22706
859.396	22828
859.529	22843
859.662	22664
859.795	22710
859.928	22908
860.061	23029
860.194	22927
860.327	22793
860.46	22793
860.592	22934
860.725	22919
860.858	22953
860.99	22869
861.123	22653
861.256	22786
861.388	22782
861.521	23474
861.653	22618
861.786	22512
861.918	22592
862.05	22577
862.183	22618
862.315	22675
862.447	22881
862.58	22565
862.712	22481
862.844	22455
862.976	22588
863.108	22519
863.24	22900
863.372	22428
863.504	22394
863.636	22424
863.768	22466
863.9	22519
864.032	22379
864.164	22409
864.296	22523
864.428	22500
864.559	22485
864.691	22535
864.823	22535
864.954	22455
865.086	22413
865.217	22382
865.349	22322
865.48	22447
865.612	22219
865.743	22485
865.875	22314
866.006	22375
866.137	22417
866.269	22341
866.4	22249
866.531	22318
866.662	22284
866.793	22375
866.924	22215
867.055	22276
867.186	22185
867.317	22249
867.448	22268
867.579	22325
867.71	22173
867.841	22265
867.972	22291
868.103	22344
868.233	22280
868.364	22162
868.495	22379
868.625	22516
868.756	22523
868.886	22428
869.017	22599
869.147	22630
869.278	22645
869.408	22607
869.539	22405
869.669	22630
869.799	22497
869.929	22626
870.06	22557
870.19	22911
870.32	22771
870.45	22930
870.58	22866
870.71	22946
870.84	22984
870.97	22774
871.1	23033
871.23	23075
871.36	23200
871.489	23098
871.619	22949
871.749	22984
871.879	23079
872.008	23311
872.138	23128
872.267	23041
872.397	22923
872.526	22881
872.656	22904
872.785	22949
872.915	23143
873.044	23239
873.173	23083
873.303	23083
873.432	23155
873.561	23189
873.69	23117
873.819	23075
873.948	23105
874.077	23052
874.206	22949
874.335	23083
874.464	23121
874.593	23193
874.722	23265
874.851	23292
874.979	23391
875.108	23337
875.237	23383
875.365	23227
875.494	23356
875.623	23379
875.751	23231
875.88	23387
876.008	23539
876.136	23547
876.265	23691
876.393	23817
876.521	23798
876.65	23840
876.778	23684
876.906	23638
877.034	23642
877.162	23684
877.29	23547
877.418	23680
877.546	23729
877.674	23573
877.802	23767
877.93	23680
878.058	23767
878.185	23615
878.313	23604
878.441	23653
878.568	23509
878.696	23684
878.824	23729
878.951	23786
879.079	23817
879.206	23931
879.333	23889
879.461	23703
879.588	23691
879.715	23939
879.842	23863
879.97	23722
880.097	23436
880.224	23512
880.351	23471
880.478	23459
880.605	23360
880.732	23497
880.859	23824
880.986	23501
881.112	23509
881.239	23288
881.366	23277
881.493	23265
881.619	22991
881.746	23044
881.872	23048
881.999	23006
882.125	22908
882.252	23067
882.378	23025
882.505	23113
882.631	22953
882.757	22759
882.883	22774
883.01	22755
883.136	22763
883.262	22660
883.388	22440
883.514	22790
883.64	22729
883.766	22596
883.892	22413
884.018	22504
884.143	22626
884.269	22725
884.395	22462
884.52	22341
884.646	22295
884.772	22215
884.897	22291
885.023	22421
885.148	22459
885.274	22451
885.399	22500
885.524	22390
885.65	22344
885.775	22200
885.9	22363
886.025	22382
886.15	22421
886.275	22131
886.4	22215
886.525	22215
886.65	22363
886.775	22295
886.9	22508
887.025	22428
887.149	22249
887.274	22177
887.399	22078
887.523	21964
887.648	22048
887.773	22036
887.897	22135
888.021	21968
888.146	21991
888.27	22196
888.395	22158
888.519	22090
888.643	22188
888.767	22154
888.891	22029
889.015	21956
889.139	21991
889.263	21819
889.387	22063
889.511	22093
889.635	21998
889.759	21892
889.883	21846
890.006	21865
890.13	21975
890.254	21690
890.377	21812
890.501	21481
890.624	21599
890.748	21679
890.871	21481
890.995	21428
891.118	21412
891.241	21511
891.364	21450
891.488	21477
891.611	21431
891.734	21416
891.857	21488
891.98	21481
892.103	21591
892.226	21386
892.349	21313
892.471	21321
892.594	21283
892.717	21332
892.839	21450
892.962	21332
893.085	21340
893.207	21325
893.33	21268
893.452	21199
893.575	21416
893.697	21233
893.819	21332
893.941	21557
894.064	21431
894.186	21313
894.308	21176
894.43	21233
894.552	21469
894.674	21405
894.796	21192
894.918	21268
895.04	21317
895.161	21237
895.283	21370
895.405	21397
895.526	21245
895.648	21195
895.769	21317
895.891	21393
896.012	21275
896.134	21355
896.255	21283
896.376	21188
896.498	21329
896.619	21420
896.74	21252
896.861	21275
896.982	21675
897.103	21713
897.224	21542
897.345	21564
897.466	21336
897.587	21572
897.708	21485
897.828	21599
897.949	21428
898.07	21363
898.19	21405
898.311	21633
898.431	21378
898.552	21458
898.672	21469
898.792	21443
898.913	21431
899.033	21485
899.153	21272
899.273	21211
899.393	21218
899.513	21294
899.633	21173
899.753	21222
899.873	21241
899.993	21325
900.113	21058
900.232	21249
900.352	21188
900.472	21028
900.591	20906
900.711	21070
900.83	21043
900.95	21127
901.069	21028
901.189	20872
901.308	20507
901.427	20431
901.546	20454
901.665	20457
901.784	20598
901.904	20343
902.023	20298
902.141	20107
902.26	20065
902.379	20240
902.498	20008
902.617	19917
902.735	20046
902.854	19913
902.973	19947
903.091	19772
903.21	19685
903.328	19746
903.446	19529
903.565	19582
903.683	19502
903.801	19369
903.919	19346
904.038	19468
904.156	19278
904.274	19354
904.392	19297
904.51	19259
904.627	19270
904.745	19213
904.863	19274
904.981	19069
905.098	18859
905.216	18863
905.334	18886
905.451	18932
905.569	18897
905.686	18981
905.803	18909
905.921	18768
906.038	18856
906.155	18760
906.272	18597
906.389	18673
906.506	18498
906.623	18357
906.74	18414
906.857	18273
906.974	18277
907.091	18426
907.208	18563
907.324	18502
907.441	18292
907.557	18213
907.674	18121
907.79	18117
907.907	18098
908.023	18174
908.139	18117
908.256	18133
908.372	18072
908.488	18011
908.604	17931
908.72	17859
908.836	17859
908.952	17809
909.068	17805
909.184	17939
909.3	17878
909.415	17923
909.531	17863
909.647	17657
909.762	17570
909.878	17547
909.993	17497
910.108	17501
910.224	17524
910.339	17497
910.454	17395
910.57	17356
910.685	17280
910.8	17505
910.915	17486
911.03	17239
911.145	17105
911.259	17098
911.374	17086
911.489	17018
911.604	16991
911.718	16835
911.833	16980
911.947	16774
912.062	16820
912.176	16828
912.291	16900
912.405	16858
912.519	16999
912.633	17052
912.748	16942
912.862	16831
912.976	16778
913.09	16596
913.204	16721
913.318	16755
913.431	16790
913.545	16656
913.659	16805
913.772	16618
913.886	16497
914	16451
914.113	16523
914.226	16550
914.34	16489
914.453	16284
914.566	16588
914.68	16379
914.793	16386
914.906	16147
915.019	16029
915.132	15899
915.245	16044
915.358	15964
915.47	16059
915.583	16029
915.696	16044
915.809	16166
915.921	16078
916.034	16010
916.146	15987
916.259	15945
916.371	15979
916.483	16040
916.595	15827
916.708	15888
916.82	15823
916.932	15827
917.044	15850
917.156	15800
917.268	15625
917.38	15667
917.491	15671
917.603	15618
917.715	15660
917.826	15739
917.938	15618
918.049	15473
918.161	15519
918.272	15732
918.384	15736
918.495	15572
918.606	15310
918.717	15291
918.828	15405
918.939	15412
919.05	15389
919.161	15340
919.272	15268
919.383	15230
919.494	15412
919.604	15656
919.715	15382
919.826	15348
919.936	15329
920.047	15310
920.157	15397
920.267	15492
920.378	15428
920.488	15237
920.598	15488
920.708	15519
920.818	15367
920.928	15492
921.038	15701
921.148	15564
921.258	15218
921.368	15169
921.477	15112
921.587	15058
921.697	14906
921.806	15074
921.916	14845
922.025	14792
922.134	14735
922.244	14716
922.353	14674
922.462	14583
922.571	14457
922.68	14202
922.789	14320
922.898	14355
923.007	14294
923.116	14290
923.224	14313
923.333	14229
923.442	14237
923.55	14062
923.659	14237
923.767	14130
923.876	14107
923.984	14191
924.092	14039
924.201	14069
924.309	14084
924.417	13974
924.525	14027
924.633	13837
924.741	14796
924.849	13837
924.956	13959
925.064	13826
925.172	13738
925.279	13636
925.387	13662
925.494	13738
925.602	13826
925.709	13704
925.816	13567
925.924	13655
926.031	13696
926.138	13578
926.245	13647
926.352	13521
926.459	13689
926.566	13685
926.673	13575
926.779	13388
926.886	13434
926.993	13251
927.099	13331
927.206	13228
927.312	13202
927.419	13293
927.525	13149
927.631	13202
927.737	13091
927.843	13042
927.95	12897
928.056	12985
928.162	13031
928.267	13065
928.373	13708
928.479	13129
928.585	12795
928.69	12993
928.796	13023
928.901	12814
929.007	12753
929.112	12878
929.218	12833
929.323	12741
929.428	12753
929.533	12890
929.638	12627
929.743	12783
929.848	12700
929.953	12726
930.058	12612
930.163	12410
930.267	12448
930.372	12555
930.477	12422
930.581	12623
930.685	12486
930.79	12251
930.894	12311
930.998	12270
931.103	12365
931.207	12057
931.311	11961
931.415	11885
931.519	11634
931.623	11638
