Data from test_V78500241_2913.txt Node
Date: Fri Mar 25 16:01:58 CST 2022
User: usil
Spectrometer: V785-0024
Trigger mode: 0
Integration Time (sec): 4.000000E-1
Scans to average: 1
Nonlinearity correction enabled: false
Boxcar width: 0
Storing dark spectrum: false
XAxis mode: Wavelengths
Number of Pixels in Spectrum: 1024
>>>>>Begin Spectral Data<<<<<
801.071	28687
801.214	28664
801.356	28474
801.499	28459
801.641	28344
801.783	28204
801.926	28394
802.068	28257
802.211	28223
802.353	28109
802.496	28070
802.638	27918
802.78	28036
802.923	27914
803.065	27778
803.208	27892
803.35	27945
803.492	28112
803.635	28181
803.777	28177
803.919	28280
804.061	28542
804.204	28211
804.346	28192
804.488	28177
804.63	28223
804.773	28147
804.915	28226
805.057	28337
805.199	28276
805.341	28223
805.483	28363
805.626	28348
805.768	28295
805.91	28375
806.052	28459
806.194	28329
806.336	28561
806.478	28481
806.62	28436
806.762	28394
806.904	28618
807.046	28911
807.188	28755
807.33	28831
807.472	28961
807.614	28850
807.756	28786
807.898	28748
808.04	28588
808.182	28721
808.324	28736
808.465	28668
808.607	28866
808.749	29079
808.891	29197
809.033	29307
809.174	29136
809.316	29147
809.458	29132
809.6	29094
809.741	29189
809.883	29296
810.025	29459
810.166	29254
810.308	29368
810.45	29406
810.591	29311
810.733	29018
810.875	28999
811.016	29029
811.158	29052
811.299	29280
811.441	29170
811.582	29128
811.724	28938
811.865	29056
812.007	29067
812.148	29220
812.29	29056
812.431	29307
812.573	29455
812.714	29493
812.855	29570
812.997	29760
813.138	29969
813.279	29779
813.421	29718
813.562	29535
813.703	29383
813.845	29299
813.986	29056
814.127	28885
814.268	28911
814.41	28858
814.551	28645
814.692	28900
814.833	28755
814.974	28892
815.115	28896
815.256	28500
815.397	28778
815.539	28626
815.68	28554
815.821	28481
815.962	28752
816.103	28535
816.244	28538
816.385	28516
816.526	28356
816.666	28341
816.807	28013
816.948	28204
817.089	28105
817.23	28143
817.371	28166
817.512	28139
817.653	28105
817.793	28021
817.934	28078
818.075	28162
818.216	28211
818.356	28112
818.497	27987
818.638	27880
818.778	27831
818.919	27975
819.06	27914
819.2	28025
819.341	28040
819.481	28120
819.622	28234
819.762	28523
819.903	28432
820.043	28367
820.184	28181
820.324	28162
820.465	28337
820.605	28246
820.746	28234
820.886	28226
821.026	28177
821.167	28230
821.307	28382
821.447	28192
821.588	28032
821.728	27972
821.868	27766
822.008	27553
822.149	27572
822.289	27660
822.429	27462
822.569	27252
822.709	27329
822.849	27214
822.99	27112
823.13	27218
823.27	27043
823.41	26982
823.55	26845
823.69	26914
823.83	26940
823.97	26788
824.11	26834
824.25	26792
824.389	26716
824.529	26693
824.669	26739
824.809	26807
824.949	26883
825.089	26887
825.228	26868
825.368	26587
825.508	26560
825.648	26773
825.787	26602
825.927	26735
826.067	26541
826.206	26613
826.346	26792
826.485	26781
826.625	26716
826.765	26705
826.904	26606
827.044	26587
827.183	26408
827.323	26362
827.462	26309
827.601	26298
827.741	26381
827.88	26343
828.02	26244
828.159	26275
828.298	26408
828.437	26564
828.577	26332
828.716	26396
828.855	26358
828.994	26062
829.134	26267
829.273	26145
829.412	25963
829.551	25986
829.69	25978
829.829	26069
829.968	26001
830.107	26092
830.246	26024
830.385	25936
830.524	25818
830.663	25906
830.802	25784
830.941	25647
831.08	25601
831.219	25830
831.357	25852
831.496	25936
831.635	25727
831.774	25472
831.913	25499
832.051	25449
832.19	25491
832.329	25411
832.467	25331
832.606	25411
832.744	25362
832.883	25392
833.022	25255
833.16	25331
833.299	25384
833.437	25324
833.576	25365
833.714	25373
833.852	25384
833.991	25635
834.129	25582
834.267	25460
834.406	25453
834.544	25495
834.682	25312
834.821	25350
834.959	25521
835.097	25263
835.235	25514
835.373	25327
835.511	25346
835.65	25282
835.788	25228
835.926	25175
836.064	24992
836.202	25190
836.34	25206
836.478	25339
836.615	25057
836.753	25346
836.891	25308
837.029	25266
837.167	25217
837.305	25137
837.443	25099
837.58	25012
837.718	25076
837.856	25050
837.993	25004
838.131	25019
838.269	24943
838.406	24886
838.544	24757
838.681	24700
838.819	24544
838.956	24566
839.094	24395
839.231	24608
839.369	24768
839.506	24989
839.643	24795
839.781	24471
839.918	24498
840.055	24433
840.193	24544
840.33	24319
840.467	24460
840.604	24525
840.742	24741
840.879	24194
841.016	24380
841.153	24422
841.29	24532
841.427	24407
841.564	24353
841.701	24426
841.838	24304
841.975	24289
842.112	24228
842.249	24369
842.385	24076
842.522	24247
842.659	24277
842.796	24178
842.933	24133
843.069	24110
843.206	24182
843.343	24205
843.479	24167
843.616	24171
843.752	23984
843.889	24030
844.025	24083
844.162	23916
844.298	23958
844.435	24011
844.571	23843
844.708	24018
844.844	24018
844.98	24095
845.117	24034
845.253	23882
845.389	23646
845.525	23821
845.661	23684
845.798	23771
845.934	23775
846.07	23642
846.206	23691
846.342	23786
846.478	23638
846.614	23482
846.75	23326
846.886	23528
847.022	23406
847.158	23490
847.294	23376
847.429	23482
847.565	23303
847.701	23630
847.837	23208
847.972	23136
848.108	23159
848.244	23292
848.379	23056
848.515	22999
848.65	23006
848.786	23033
848.921	23037
849.057	23124
849.192	23094
849.328	22980
849.463	22991
849.598	23033
849.734	22927
849.869	22831
850.004	22850
850.14	22847
850.275	22778
850.41	22637
850.545	22653
850.68	22698
850.815	22786
850.95	22835
851.085	22953
851.22	22987
851.355	22774
851.49	22752
851.625	22618
851.76	22755
851.895	22694
852.03	22717
852.165	22759
852.299	22828
852.434	22847
852.569	22778
852.703	22710
852.838	22748
852.973	22957
853.107	22892
853.242	22641
853.376	22630
853.511	22478
853.645	22523
853.78	22702
853.914	22596
854.048	22542
854.183	22462
854.317	22554
854.451	22713
854.585	22645
854.72	22573
854.854	22649
854.988	22592
855.122	22649
855.256	22417
855.39	22519
855.524	22713
855.658	22698
855.792	22542
855.926	22596
856.06	22508
856.194	22672
856.327	22596
856.461	22478
856.595	22588
856.729	22516
856.862	22778
856.996	22596
857.13	22622
857.263	22767
857.397	22679
857.53	22634
857.664	22615
857.797	22599
857.931	22755
858.064	22573
858.197	22573
858.331	22649
858.464	22565
858.597	22596
858.731	22596
858.864	22538
858.997	22478
859.13	22440
859.263	22691
859.396	22584
859.529	22485
859.662	22375
859.795	22497
859.928	22603
860.061	22877
860.194	22790
860.327	22622
860.46	22500
860.592	22713
860.725	22900
860.858	22603
860.99	22683
861.123	22497
861.256	22531
861.388	22580
861.521	23398
861.653	22402
861.786	22424
861.918	22371
862.05	22489
862.183	22485
862.315	22603
862.447	22573
862.58	22470
862.712	22268
862.844	22306
862.976	22481
863.108	22310
863.24	22736
863.372	22242
863.504	22337
863.636	22379
863.768	22341
863.9	22341
864.032	22204
864.164	22246
864.296	22341
864.428	22527
864.559	22512
864.691	22337
864.823	22287
864.954	22211
865.086	22280
865.217	22147
865.349	22040
865.48	22173
865.612	22067
865.743	22223
865.875	22265
866.006	22207
866.137	22173
866.269	22158
866.4	22200
866.531	22131
866.662	22112
866.793	22162
866.924	21964
867.055	22249
867.186	22082
867.317	22021
867.448	21953
867.579	22067
867.71	22029
867.841	21949
867.972	22048
868.103	22116
868.233	22181
868.364	22051
868.495	22322
868.625	22386
868.756	22398
868.886	22257
869.017	22318
869.147	22470
869.278	22550
869.408	22299
869.539	22280
869.669	22516
869.799	22382
869.929	22470
870.06	22436
870.19	22592
870.32	22626
870.45	22706
870.58	22622
870.71	22710
870.84	22877
870.97	22687
871.1	22752
871.23	22816
871.36	22915
871.489	22850
871.619	22889
871.749	22877
871.879	22881
872.008	23083
872.138	22915
872.267	22984
872.397	22805
872.526	22744
872.656	22675
872.785	22782
872.915	22858
873.044	23086
873.173	23025
873.303	22991
873.432	22946
873.561	23090
873.69	23025
873.819	23018
873.948	23121
874.077	23109
874.206	22904
874.335	23010
874.464	23117
874.593	23170
874.722	23060
874.851	23239
874.979	23250
875.108	23181
875.237	23014
875.365	23048
875.494	23060
875.623	23197
875.751	23090
875.88	23128
876.008	23280
876.136	23345
876.265	23520
876.393	23634
876.521	23528
876.65	23783
876.778	23551
876.906	23414
877.034	23463
877.162	23493
877.29	23509
877.418	23429
877.546	23467
877.674	23440
877.802	23531
877.93	23554
878.058	23482
878.185	23303
878.313	23448
878.441	23497
878.568	23349
878.696	23638
878.824	23425
878.951	23592
879.079	23661
879.206	23855
879.333	23615
879.461	23459
879.588	23604
879.715	23668
879.842	23707
879.97	23687
880.097	23455
880.224	23296
880.351	23292
880.478	23356
880.605	23334
880.732	23444
880.859	23589
880.986	23322
881.112	23239
881.239	23197
881.366	23250
881.493	23033
881.619	22790
881.746	22881
881.872	22892
881.999	22733
882.125	22885
882.252	22889
882.378	22828
882.505	22930
882.631	22733
882.757	22538
882.883	22618
883.01	22611
883.136	22641
883.262	22508
883.388	22299
883.514	22470
883.64	22531
883.766	22356
883.892	22306
884.018	22382
884.143	22424
884.269	22607
884.395	22310
884.52	22139
884.646	22272
884.772	22105
884.897	22086
885.023	22253
885.148	22310
885.274	22253
885.399	22280
885.524	22215
885.65	22139
885.775	22257
885.9	22200
886.025	22325
886.15	22173
886.275	22131
886.4	22097
886.525	22215
886.65	22120
886.775	22067
886.9	22188
887.025	22348
887.149	22097
887.274	22029
887.399	22013
887.523	21941
887.648	21930
887.773	21876
887.897	22139
888.021	22048
888.146	21850
888.27	22093
888.395	22032
888.519	21975
888.643	21892
888.767	21930
888.891	21701
889.015	21736
889.139	21846
889.263	21603
889.387	21865
889.511	21934
889.635	21964
889.759	21587
889.883	21637
890.006	21800
890.13	21720
890.254	21625
890.377	21667
890.501	21599
890.624	21545
890.748	21561
890.871	21477
890.995	21264
891.118	21123
891.241	21348
891.364	21329
891.488	21416
891.611	21264
891.734	21321
891.857	21317
891.98	21374
892.103	21306
892.226	21260
892.349	21173
892.471	21207
892.594	21279
892.717	21264
892.839	21188
892.962	21180
893.085	21218
893.207	21135
893.33	21119
893.452	21028
893.575	21336
893.697	21135
893.819	21272
893.941	21401
894.064	21298
894.186	21032
894.308	21005
894.43	21161
894.552	21393
894.674	21230
894.796	21066
894.918	21222
895.04	21214
895.161	21123
895.283	21180
895.405	21138
895.526	21157
895.648	21161
895.769	21165
895.891	21150
896.012	21214
896.134	21222
896.255	21184
896.376	21104
896.498	21112
896.619	21214
896.74	21180
896.861	21173
896.982	21473
897.103	21587
897.224	21367
897.345	21313
897.466	21279
897.587	21420
897.708	21412
897.828	21408
897.949	21245
898.07	21195
898.19	21272
898.311	21374
898.431	21302
898.552	21443
898.672	21496
898.792	21412
898.913	21336
899.033	21302
899.153	21264
899.273	21020
899.393	21043
899.513	21043
899.633	21081
899.753	21066
899.873	20891
899.993	21104
900.113	21066
900.232	21024
900.352	20876
900.472	20887
900.591	20792
900.711	20804
900.83	20918
900.95	20986
901.069	20937
901.189	20708
901.308	20484
901.427	20332
901.546	20332
901.665	20412
901.784	20454
901.904	20252
902.023	20172
902.141	20050
902.26	19982
902.379	19989
902.498	19909
902.617	19811
902.735	19997
902.854	19925
902.973	19658
903.091	19723
903.21	19552
903.328	19518
903.446	19434
903.565	19270
903.683	19445
903.801	19206
903.919	19327
904.038	19247
904.156	19179
904.274	19152
904.392	19103
904.51	19038
904.627	19099
904.745	19122
904.863	19126
904.981	18954
905.098	18867
905.216	18837
905.334	18829
905.451	18726
905.569	18665
905.686	18897
905.803	18745
905.921	18574
906.038	18646
906.155	18654
906.272	18502
906.389	18513
906.506	18285
906.623	18327
906.74	18437
906.857	18186
906.974	18129
907.091	18369
907.208	18388
907.324	18327
907.441	18216
907.557	18117
907.674	17935
907.79	17901
907.907	18041
908.023	17996
908.139	18045
908.256	17908
908.372	17840
908.488	17904
908.604	17809
908.72	17756
908.836	17638
908.952	17805
909.068	17729
909.184	17863
909.3	17592
909.415	17790
909.531	17703
909.647	17421
909.762	17490
909.878	17273
909.993	17490
910.108	17376
910.224	17349
910.339	17395
910.454	17269
910.57	17273
910.685	17235
910.8	17467
910.915	17337
911.03	17242
911.145	17083
911.259	17067
911.374	16995
911.489	16908
911.604	16957
911.718	16660
911.833	16786
911.947	16645
912.062	16679
912.176	16805
912.291	16778
912.405	16721
912.519	16976
912.633	16946
912.748	16797
912.862	16717
912.976	16596
913.09	16527
913.204	16512
913.318	16538
913.431	16637
913.545	16706
913.659	16694
913.772	16538
913.886	16459
914	16318
914.113	16459
914.226	16519
914.34	16386
914.453	16169
914.566	16265
914.68	16276
914.793	16242
914.906	16002
915.019	15991
915.132	15911
915.245	16048
915.358	15960
915.47	15956
915.583	15835
915.696	15937
915.809	16044
915.921	15983
916.034	15873
916.146	15903
916.259	15759
916.371	15880
916.483	15819
916.595	15724
916.708	15823
916.82	15728
916.932	15686
917.044	15728
917.156	15671
917.268	15572
917.38	15545
917.491	15496
917.603	15504
917.715	15572
917.826	15709
917.938	15534
918.049	15268
918.161	15549
918.272	15606
918.384	15568
918.495	15477
918.606	15370
918.717	15199
918.828	15310
918.939	15424
919.05	15268
919.161	15138
919.272	15055
919.383	15207
919.494	15317
919.604	15389
919.715	15237
919.826	15070
919.936	15237
920.047	15298
920.157	15230
920.267	15435
920.378	15176
920.488	15188
920.598	15428
920.708	15473
920.818	15405
920.928	15424
921.038	15545
921.148	15466
921.258	15226
921.368	15131
921.477	14986
921.587	15009
921.697	14929
921.806	14994
921.916	14842
922.025	14587
922.134	14686
922.244	14556
922.353	14689
922.462	14476
922.571	14431
922.68	14278
922.789	14271
922.898	14275
923.007	14123
923.116	14259
923.224	14221
923.333	14199
923.442	14123
923.55	14073
923.659	14062
923.767	14134
923.876	13993
923.984	14206
924.092	14016
924.201	13970
924.309	13974
924.417	13963
924.525	13989
924.633	13909
924.741	14864
924.849	13677
924.956	13822
925.064	13674
925.172	13715
925.279	13502
925.387	13597
925.494	13578
925.602	13780
925.709	13647
925.816	13487
925.924	13590
926.031	13628
926.138	13548
926.245	13628
926.352	13544
926.459	13540
926.566	13548
926.673	13518
926.779	13377
926.886	13411
926.993	13232
927.099	13141
927.206	13183
927.312	13107
927.419	13236
927.525	13152
927.631	13152
927.737	12966
927.843	12954
927.95	12894
928.056	12954
928.162	12962
928.267	12970
928.373	13632
928.479	13095
928.585	12749
928.69	12996
928.796	12935
928.901	12798
929.007	12719
929.112	12821
929.218	12829
929.323	12726
929.428	12684
929.533	12783
929.638	12681
929.743	12585
929.848	12608
929.953	12639
930.058	12479
930.163	12357
930.267	12350
930.372	12513
930.477	12353
930.581	12525
930.685	12361
930.79	12243
930.894	12232
930.998	12205
931.103	12315
931.207	11946
931.311	11840
931.415	11882
931.519	11516
931.623	11543
