Data from test_V78500241_188.txt Node
Date: Fri Mar 25 15:43:06 CST 2022
User: usil
Spectrometer: V785-0024
Trigger mode: 0
Integration Time (sec): 4.000000E-1
Scans to average: 1
Nonlinearity correction enabled: false
Boxcar width: 0
Storing dark spectrum: false
XAxis mode: Wavelengths
Number of Pixels in Spectrum: 1024
>>>>>Begin Spectral Data<<<<<
801.071	29570
801.214	29585
801.356	29280
801.499	29231
801.641	29185
801.783	29208
801.926	29132
802.068	29159
802.211	29151
802.353	29037
802.496	28900
802.638	28660
802.78	28801
802.923	28839
803.065	28580
803.208	28626
803.35	28850
803.492	28812
803.635	28900
803.777	28748
803.919	28797
804.061	29128
804.204	28927
804.346	28755
804.488	28835
804.63	28801
804.773	28809
804.915	28919
805.057	28991
805.199	28839
805.341	28896
805.483	29083
805.626	29037
805.768	28881
805.91	28987
806.052	28942
806.194	28869
806.336	29181
806.478	28976
806.62	28972
806.762	29060
806.904	29212
807.046	29566
807.188	29410
807.33	29318
807.472	29440
807.614	29375
807.756	29261
807.898	29083
808.04	29102
808.182	29242
808.324	29292
808.465	29151
808.607	29337
808.749	29528
808.891	29577
809.033	29752
809.174	29687
809.316	29653
809.458	29490
809.6	29611
809.741	29627
809.883	29581
810.025	29615
810.166	29840
810.308	29908
810.45	29798
810.591	29745
810.733	29592
810.875	29425
811.016	29334
811.158	29463
811.299	29726
811.441	29638
811.582	29703
811.724	29547
811.865	29478
812.007	29353
812.148	29395
812.29	29490
812.431	29528
812.573	29809
812.714	29817
812.855	30018
812.997	30076
813.138	30235
813.279	30174
813.421	29969
813.562	29916
813.703	29870
813.845	29665
813.986	29448
814.127	29189
814.268	29155
814.41	29197
814.551	29071
814.692	29280
814.833	29162
814.974	29105
815.115	29151
815.256	28911
815.397	28919
815.539	28862
815.68	28915
815.821	28793
815.962	28984
816.103	28877
816.244	28774
816.385	28653
816.526	28618
816.666	28421
816.807	28314
816.948	28478
817.089	28531
817.23	28386
817.371	28386
817.512	28253
817.653	28226
817.793	28207
817.934	28363
818.075	28375
818.216	28265
818.356	28303
818.497	28109
818.638	27869
818.778	27987
818.919	27960
819.06	27975
819.2	28078
819.341	28112
819.481	28154
819.622	28417
819.762	28538
819.903	28405
820.043	28363
820.184	28360
820.324	28295
820.465	28470
820.605	28363
820.746	28257
820.886	28162
821.026	28215
821.167	28204
821.307	28341
821.447	28215
821.588	28147
821.728	27895
821.868	27949
822.008	27759
822.149	27686
822.289	27614
822.429	27485
822.569	27336
822.709	27268
822.849	27173
822.99	27081
823.13	27047
823.27	27165
823.41	26944
823.55	26845
823.69	26994
823.83	27013
823.97	26883
824.11	26716
824.25	26746
824.389	26762
824.529	26708
824.669	26727
824.809	26876
824.949	26811
825.089	26804
825.228	26720
825.368	26667
825.508	26545
825.648	26651
825.787	26571
825.927	26655
826.067	26568
826.206	26511
826.346	26651
826.485	26556
826.625	26560
826.765	26663
826.904	26667
827.044	26366
827.183	26233
827.323	26218
827.462	26100
827.601	26168
827.741	26275
827.88	26210
828.02	26195
828.159	26126
828.298	26157
828.437	26290
828.577	26210
828.716	26332
828.855	26069
828.994	25883
829.134	25890
829.273	25936
829.412	25811
829.551	25837
829.69	25932
829.829	25921
829.968	25978
830.107	26008
830.246	25989
830.385	25757
830.524	25693
830.663	25620
830.802	25487
830.941	25468
831.08	25403
831.219	25609
831.357	25601
831.496	25639
831.635	25426
831.774	25373
831.913	25365
832.051	25194
832.19	25137
832.329	25076
832.467	25126
832.606	24947
832.744	25042
832.883	24947
833.022	24928
833.16	24996
833.299	25038
833.437	25046
833.576	25038
833.714	25053
833.852	25213
833.991	25141
834.129	25179
834.267	25023
834.406	25198
834.544	25107
834.682	25053
834.821	25012
834.959	25240
835.097	25008
835.235	24992
835.373	25050
835.511	25031
835.65	24844
835.788	24856
835.926	24730
836.064	24658
836.202	24719
836.34	24916
836.478	25000
836.615	24707
836.753	24863
836.891	24958
837.029	24935
837.167	24840
837.305	24741
837.443	24620
837.58	24559
837.718	24764
837.856	24730
837.993	24738
838.131	24684
838.269	24593
838.406	24498
838.544	24593
838.681	24254
838.819	24350
838.956	24076
839.094	24174
839.231	24209
839.369	24266
839.506	24452
839.643	24399
839.781	24129
839.918	23855
840.055	24011
840.193	24030
840.33	24034
840.467	24098
840.604	24216
840.742	24258
840.879	23828
841.016	23923
841.153	23805
841.29	23984
841.427	23950
841.564	23961
841.701	24038
841.838	23984
841.975	23687
842.112	23912
842.249	23756
842.385	23676
842.522	23866
842.659	23802
842.796	23707
842.933	23566
843.069	23558
843.206	23608
843.343	23615
843.479	23684
843.616	23630
843.752	23440
843.889	23463
844.025	23623
844.162	23383
844.298	23520
844.435	23398
844.571	23258
844.708	23429
844.844	23551
844.98	23516
845.117	23573
845.253	23383
845.389	23315
845.525	23284
845.661	23334
845.798	23147
845.934	23086
846.07	23102
846.206	23159
846.342	23292
846.478	22984
846.614	22873
846.75	22847
846.886	22976
847.022	22835
847.158	22877
847.294	22911
847.429	22896
847.565	22763
847.701	22995
847.837	22565
847.972	22409
848.108	22740
848.244	22546
848.379	22493
848.515	22440
848.65	22527
848.786	22398
848.921	22413
849.057	22409
849.192	22451
849.328	22360
849.463	22299
849.598	22325
849.734	22337
849.869	22242
850.004	22051
850.14	22109
850.275	22135
850.41	22078
850.545	22082
850.68	22067
850.815	22257
850.95	22082
851.085	22246
851.22	22192
851.355	22067
851.49	22029
851.625	22082
851.76	22010
851.895	21945
852.03	21972
852.165	21972
852.299	22116
852.434	22116
852.569	22006
852.703	22177
852.838	22109
852.973	22067
853.107	22173
853.242	21994
853.376	21895
853.511	21873
853.645	21835
853.78	21934
853.914	21899
854.048	21903
854.183	21808
854.317	21968
854.451	21979
854.585	21945
854.72	21838
854.854	22010
854.988	21793
855.122	21861
855.256	21705
855.39	21728
855.524	21918
855.658	21930
855.792	21865
855.926	21945
856.06	21915
856.194	22051
856.327	21926
856.461	21850
856.595	21751
856.729	21789
856.862	21926
856.996	21922
857.13	21781
857.263	22086
857.397	21926
857.53	21876
857.664	21873
857.797	21873
857.931	21876
858.064	21861
858.197	21994
858.331	21812
858.464	21667
858.597	21736
858.731	21819
858.864	21789
858.997	21770
859.13	21789
859.263	21797
859.396	21895
859.529	21724
859.662	21739
859.795	21781
859.928	21781
860.061	21991
860.194	22032
860.327	21869
860.46	21816
860.592	21838
860.725	21930
860.858	21953
860.99	21728
861.123	21587
861.256	21728
861.388	21888
861.521	22459
861.653	21694
861.786	21568
861.918	21709
862.05	21835
862.183	21789
862.315	21918
862.447	21846
862.58	21846
862.712	21694
862.844	21614
862.976	21625
863.108	21545
863.24	21865
863.372	21549
863.504	21549
863.636	21553
863.768	21526
863.9	21397
864.032	21481
864.164	21397
864.296	21545
864.428	21618
864.559	21641
864.691	21523
864.823	21408
864.954	21545
865.086	21420
865.217	21435
865.349	21386
865.48	21393
865.612	21587
865.743	21511
865.875	21374
866.006	21367
866.137	21408
866.269	21370
866.4	21329
866.531	21298
866.662	21272
866.793	21260
866.924	21443
867.055	21428
867.186	21325
867.317	21306
867.448	21211
867.579	21218
867.71	21218
867.841	21203
867.972	21397
868.103	21226
868.233	21424
868.364	21329
868.495	21374
868.625	21591
868.756	21701
868.886	21477
869.017	21610
869.147	21747
869.278	21637
869.408	21534
869.539	21572
869.669	21633
869.799	21629
869.929	21679
870.06	21652
870.19	21899
870.32	21846
870.45	21846
870.58	21850
870.71	22032
870.84	22006
870.97	21937
871.1	21941
871.23	22090
871.36	22173
871.489	21972
871.619	22154
871.749	22169
871.879	22101
872.008	22211
872.138	22204
872.267	22097
872.397	22086
872.526	22013
872.656	21994
872.785	21918
872.915	22207
873.044	22207
873.173	22116
873.303	22150
873.432	22063
873.561	22181
873.69	22177
873.819	22169
873.948	22356
874.077	22204
874.206	22143
874.335	22215
874.464	22234
874.593	22363
874.722	22291
874.851	22348
874.979	22390
875.108	22379
875.237	22257
875.365	22348
875.494	22257
875.623	22329
875.751	22333
875.88	22497
876.008	22546
876.136	22694
876.265	22797
876.393	22889
876.521	22873
876.65	22847
876.778	22900
876.906	22717
877.034	22641
877.162	22733
877.29	22778
877.418	22911
877.546	22649
877.674	22653
877.802	22626
877.93	22656
878.058	22653
878.185	22622
878.313	22694
878.441	22740
878.568	22569
878.696	22706
878.824	22668
878.951	22816
879.079	22946
879.206	22987
879.333	22877
879.461	22793
879.588	22835
879.715	22843
879.842	22923
879.97	22752
880.097	22535
880.224	22531
880.351	22459
880.478	22554
880.605	22417
880.732	22440
880.859	22828
880.986	22470
881.112	22622
881.239	22443
881.366	22276
881.493	22246
881.619	22211
881.746	22200
881.872	22272
881.999	22116
882.125	21994
882.252	22196
882.378	22074
882.505	22253
882.631	21983
882.757	21911
882.883	21975
883.01	21861
883.136	21800
883.262	21564
883.388	21660
883.514	21876
883.64	21934
883.766	21778
883.892	21652
884.018	21629
884.143	21808
884.269	21797
884.395	21469
884.52	21496
884.646	21542
884.772	21496
884.897	21420
885.023	21466
885.148	21553
885.274	21618
885.399	21610
885.524	21545
885.65	21344
885.775	21428
885.9	21447
886.025	21553
886.15	21481
886.275	21378
886.4	21302
886.525	21435
886.65	21275
886.775	21397
886.9	21564
887.025	21686
887.149	21355
887.274	21260
887.399	21150
887.523	21192
887.648	21085
887.773	21112
887.897	21294
888.021	21344
888.146	21150
888.27	21272
888.395	21291
888.519	21283
888.643	21214
888.767	21138
888.891	20990
889.015	20994
889.139	21055
889.263	20971
889.387	21119
889.511	21245
889.635	21104
889.759	20921
889.883	20842
890.006	21005
890.13	21146
890.254	20918
890.377	20880
890.501	20838
890.624	20746
890.748	20785
890.871	20629
890.995	20511
891.118	20450
891.241	20651
891.364	20503
891.488	20663
891.611	20545
891.734	20495
891.857	20575
891.98	20537
892.103	20667
892.226	20549
892.349	20461
892.471	20343
892.594	20533
892.717	20469
892.839	20461
892.962	20514
893.085	20518
893.207	20400
893.33	20313
893.452	20313
893.575	20465
893.697	20412
893.819	20602
893.941	20659
894.064	20484
894.186	20347
894.308	20423
894.43	20484
894.552	20659
894.674	20492
894.796	20267
894.918	20423
895.04	20511
895.161	20571
895.283	20499
895.405	20374
895.526	20480
895.648	20374
895.769	20377
895.891	20533
896.012	20454
896.134	20514
896.255	20488
896.376	20415
896.498	20514
896.619	20632
896.74	20431
896.861	20564
896.982	20872
897.103	20880
897.224	20765
897.345	20804
897.466	20473
897.587	20689
897.708	20712
897.828	20678
897.949	20640
898.07	20518
898.19	20697
898.311	20762
898.431	20579
898.552	20564
898.672	20701
898.792	20693
898.913	20693
899.033	20545
899.153	20469
899.273	20347
899.393	20404
899.513	20298
899.633	20404
899.753	20313
899.873	20286
899.993	20374
900.113	20393
900.232	20275
900.352	20275
900.472	20142
900.591	20122
900.711	20107
900.83	19986
900.95	20271
901.069	20298
901.189	20088
901.308	19902
901.427	19609
901.546	19811
901.665	19734
901.784	19731
901.904	19559
902.023	19453
902.141	19335
902.26	19213
902.379	19392
902.498	19194
902.617	19183
902.735	19126
902.854	19050
902.973	19179
903.091	18871
903.21	18821
903.328	18859
903.446	18825
903.565	18681
903.683	18681
903.801	18555
903.919	18566
904.038	18623
904.156	18452
904.274	18521
904.392	18380
904.51	18361
904.627	18342
904.745	18479
904.863	18479
904.981	18178
905.098	18068
905.216	18110
905.334	18144
905.451	18064
905.569	18110
905.686	18125
905.803	18015
905.921	17821
906.038	18045
906.155	17779
906.272	17695
906.389	17882
906.506	17627
906.623	17684
906.74	17551
906.857	17539
906.974	17482
907.091	17714
907.208	17691
907.324	17707
907.441	17509
907.557	17364
907.674	17311
907.79	17193
907.907	17216
908.023	17334
908.139	17326
908.256	17208
908.372	17151
908.488	17181
908.604	17003
908.72	16930
908.836	17041
908.952	17018
909.068	17006
909.184	17022
909.3	16904
909.415	17006
909.531	16965
909.647	16637
909.762	16561
909.878	16656
909.993	16797
910.108	16683
910.224	16607
910.339	16626
910.454	16535
910.57	16337
910.685	16371
910.8	16797
910.915	16531
911.03	16493
911.145	16185
911.259	16291
911.374	16185
911.489	16261
911.604	16147
911.718	15918
911.833	15983
911.947	15937
912.062	15804
912.176	15911
912.291	16063
912.405	16040
912.519	16128
912.633	16154
912.748	16010
912.862	15911
912.976	15724
913.09	15694
913.204	15724
913.318	15736
913.431	15819
913.545	15850
913.659	15816
913.772	15755
913.886	15641
914	15534
914.113	15648
914.226	15682
914.34	15545
914.453	15439
914.566	15492
914.68	15572
914.793	15393
914.906	15207
915.019	15249
915.132	15131
915.245	15207
915.358	15218
915.47	15249
915.583	15161
915.696	15074
915.809	15237
915.921	15344
916.034	15043
916.146	15135
916.259	15108
916.371	15135
916.483	15093
916.595	15020
916.708	14986
916.82	14986
916.932	15032
917.044	14902
917.156	14925
917.268	14830
917.38	14758
917.491	14788
917.603	14823
917.715	14956
917.826	14861
917.938	14765
918.049	14731
918.161	14743
918.272	14975
918.384	14899
918.495	14830
918.606	14590
918.717	14552
918.828	14617
918.939	14480
919.05	14476
919.161	14594
919.272	14286
919.383	14366
919.494	14583
919.604	14727
919.715	14507
919.826	14412
919.936	14393
920.047	14514
920.157	14400
920.267	14712
920.378	14556
920.488	14381
920.598	14705
920.708	14785
920.818	14590
920.928	14549
921.038	14872
921.148	14674
921.258	14412
921.368	14358
921.477	14267
921.587	14164
921.697	14035
921.806	14164
921.916	14024
922.025	13986
922.134	13913
922.244	13807
922.353	13928
922.462	13849
922.571	13685
922.68	13544
922.789	13559
922.898	13525
923.007	13415
923.116	13567
923.224	13502
923.333	13491
923.442	13297
923.55	13457
923.659	13339
923.767	13320
923.876	13373
923.984	13369
924.092	13213
924.201	13183
924.309	13232
924.417	13149
924.525	13145
924.633	13149
924.741	13906
924.849	12985
924.956	13152
925.064	13061
925.172	12817
925.279	12897
925.387	12981
925.494	12916
925.602	13034
925.709	12970
925.816	12749
925.924	12897
926.031	12935
926.138	12821
926.245	12939
926.352	12734
926.459	12897
926.566	12916
926.673	12837
926.779	12631
926.886	12700
926.993	12521
927.099	12486
927.206	12445
927.312	12361
927.419	12498
927.525	12429
927.631	12528
927.737	12410
927.843	12315
927.95	12220
928.056	12281
928.162	12232
928.267	12357
928.373	13046
928.479	12384
928.585	12144
928.69	12216
928.796	12308
928.901	12235
929.007	11973
929.112	12186
929.218	12095
929.323	12015
929.428	12041
929.533	12243
929.638	11950
929.743	12015
929.848	12034
929.953	11916
930.058	11821
930.163	11786
930.267	11684
930.372	11855
930.477	11627
930.581	11912
930.685	11737
930.79	11535
930.894	11710
930.998	11554
931.103	11577
931.207	11364
931.311	11204
931.415	11185
931.519	10984
931.623	10889
