Data from test_V78500241_2178.txt Node
Date: Fri Mar 25 15:56:53 CST 2022
User: usil
Spectrometer: V785-0024
Trigger mode: 0
Integration Time (sec): 4.000000E-1
Scans to average: 1
Nonlinearity correction enabled: false
Boxcar width: 0
Storing dark spectrum: false
XAxis mode: Wavelengths
Number of Pixels in Spectrum: 1024
>>>>>Begin Spectral Data<<<<<
801.071	29041
801.214	28812
801.356	28554
801.499	28561
801.641	28462
801.783	28455
801.926	28565
802.068	28459
802.211	28535
802.353	28436
802.496	28105
802.638	28021
802.78	28116
802.923	28067
803.065	28055
803.208	28226
803.35	28303
803.492	28337
803.635	28291
803.777	28192
803.919	28341
804.061	28721
804.204	28394
804.346	28318
804.488	28398
804.63	28325
804.773	28428
804.915	28379
805.057	28523
805.199	28390
805.341	28519
805.483	28519
805.626	28607
805.768	28550
805.91	28577
806.052	28546
806.194	28478
806.336	28660
806.478	28641
806.62	28519
806.762	28725
806.904	28694
807.046	29071
807.188	28976
807.33	28965
807.472	29014
807.614	28930
807.756	28999
807.898	28843
808.04	28946
808.182	28771
808.324	28915
808.465	28881
808.607	29124
808.749	29280
808.891	29463
809.033	29543
809.174	29383
809.316	29318
809.458	29181
809.6	29345
809.741	29383
809.883	29315
810.025	29448
810.166	29703
810.308	29600
810.45	29543
810.591	29471
810.733	29296
810.875	29334
811.016	29159
811.158	29151
811.299	29467
811.441	29383
811.582	29387
811.724	29311
811.865	29265
812.007	29265
812.148	29288
812.29	29395
812.431	29478
812.573	29687
812.714	29691
812.855	29813
812.997	29901
813.138	30015
813.279	29950
813.421	29836
813.562	29684
813.703	29714
813.845	29551
813.986	29284
814.127	29121
814.268	29083
814.41	29117
814.551	29018
814.692	28938
814.833	29064
814.974	29056
815.115	28984
815.256	28835
815.397	28828
815.539	28904
815.68	28873
815.821	28782
815.962	28866
816.103	28885
816.244	28577
816.385	28611
816.526	28615
816.666	28447
816.807	28325
816.948	28390
817.089	28379
817.23	28299
817.371	28303
817.512	28322
817.653	28261
817.793	28249
817.934	28348
818.075	28398
818.216	28333
818.356	28325
818.497	28265
818.638	28242
818.778	28112
818.919	28082
819.06	28097
819.2	28238
819.341	28424
819.481	28310
819.622	28538
819.762	28679
819.903	28630
820.043	28310
820.184	28440
820.324	28348
820.465	28512
820.605	28470
820.746	28478
820.886	28226
821.026	28428
821.167	28329
821.307	28485
821.447	28322
821.588	28139
821.728	28013
821.868	28017
822.008	27774
822.149	27838
822.289	27842
822.429	27515
822.569	27439
822.709	27473
822.849	27211
822.99	27306
823.13	27401
823.27	27272
823.41	27104
823.55	27009
823.69	27157
823.83	27218
823.97	27165
824.11	27066
824.25	26906
824.389	26990
824.529	26914
824.669	26982
824.809	27100
824.949	27051
825.089	27013
825.228	27058
825.368	26773
825.508	26800
825.648	26864
825.787	26883
825.927	26902
826.067	26640
826.206	26880
826.346	26937
826.485	26853
826.625	26781
826.765	26899
826.904	26872
827.044	26667
827.183	26571
827.323	26632
827.462	26636
827.601	26651
827.741	26640
827.88	26644
828.02	26446
828.159	26438
828.298	26522
828.437	26594
828.577	26518
828.716	26762
828.855	26355
828.994	26267
829.134	26199
829.273	26267
829.412	26214
829.551	26142
829.69	26218
829.829	26142
829.968	26377
830.107	26385
830.246	26240
830.385	26046
830.524	26176
830.663	26043
830.802	25932
830.941	25849
831.08	25738
831.219	25959
831.357	25871
831.496	26058
831.635	25807
831.774	25655
831.913	25674
832.051	25609
832.19	25655
832.329	25647
832.467	25400
832.606	25422
832.744	25495
832.883	25460
833.022	25479
833.16	25506
833.299	25540
833.437	25514
833.576	25510
833.714	25727
833.852	25601
833.991	25632
834.129	25746
834.267	25571
834.406	25567
834.544	25571
834.682	25693
834.821	25552
834.959	25799
835.097	25552
835.235	25693
835.373	25487
835.511	25632
835.65	25392
835.788	25369
835.926	25396
836.064	25164
836.202	25244
836.34	25445
836.478	25441
836.615	25320
836.753	25293
836.891	25384
837.029	25438
837.167	25346
837.305	25209
837.443	25335
837.58	25187
837.718	25240
837.856	25339
837.993	25168
838.131	25156
838.269	25050
838.406	24966
838.544	24977
838.681	24932
838.819	24894
838.956	24639
839.094	24627
839.231	24715
839.369	24787
839.506	25031
839.643	24939
839.781	24616
839.918	24608
840.055	24635
840.193	24585
840.33	24582
840.467	24570
840.604	24635
840.742	24760
840.879	24433
841.016	24582
841.153	24582
841.29	24578
841.427	24604
841.564	24498
841.701	24566
841.838	24479
841.975	24483
842.112	24471
842.249	24391
842.385	24319
842.522	24582
842.659	24273
842.796	24365
842.933	24304
843.069	24292
843.206	24205
843.343	24380
843.479	24437
843.616	24273
843.752	24121
843.889	24129
844.025	24319
844.162	24197
844.298	24262
844.435	24034
844.571	23988
844.708	24133
844.844	24289
844.98	24270
845.117	24220
845.253	23939
845.389	23992
845.525	24072
845.661	23901
845.798	23904
845.934	23832
846.07	23775
846.206	23901
846.342	24034
846.478	23836
846.614	23653
846.75	23600
846.886	23429
847.022	23608
847.158	23634
847.294	23448
847.429	23535
847.565	23452
847.701	23668
847.837	23204
847.972	23307
848.108	23448
848.244	23326
848.379	23121
848.515	23121
848.65	23060
848.786	23098
848.921	23140
849.057	23121
849.192	23280
849.328	23132
849.463	23231
849.598	23105
849.734	23025
849.869	23029
850.004	22839
850.14	22980
850.275	22995
850.41	22938
850.545	22824
850.68	22980
850.815	22965
850.95	22980
851.085	23048
851.22	22976
851.355	22904
851.49	22934
851.625	22949
851.76	22782
851.895	22782
852.03	22786
852.165	22957
852.299	22835
852.434	22850
852.569	22934
852.703	22850
852.838	22957
852.973	22953
853.107	22942
853.242	22930
853.376	22790
853.511	22603
853.645	22687
853.78	22801
853.914	22748
854.048	22729
854.183	22721
854.317	22672
854.451	22999
854.585	22767
854.72	22767
854.854	22824
854.988	22569
855.122	22869
855.256	22557
855.39	22672
855.524	22752
855.658	22767
855.792	22706
855.926	22645
856.06	22831
856.194	22698
856.327	22664
856.461	22736
856.595	22744
856.729	22630
856.862	22873
856.996	22854
857.13	22816
857.263	22736
857.397	22812
857.53	22721
857.664	22763
857.797	22805
857.931	22683
858.064	22744
858.197	22683
858.331	22649
858.464	22725
858.597	22649
858.731	22675
858.864	22630
858.997	22656
859.13	22755
859.263	22683
859.396	22850
859.529	22649
859.662	22615
859.795	22626
859.928	22786
860.061	22782
860.194	22942
860.327	22866
860.46	22668
860.592	22869
860.725	22892
860.858	22713
860.99	22812
861.123	22618
861.256	22725
861.388	22736
861.521	23459
861.653	22584
861.786	22527
861.918	22546
862.05	22538
862.183	22607
862.315	22607
862.447	22679
862.58	22637
862.712	22375
862.844	22356
862.976	22447
863.108	22443
863.24	22847
863.372	22428
863.504	22295
863.636	22341
863.768	22394
863.9	22470
864.032	22318
864.164	22226
864.296	22379
864.428	22481
864.559	22622
864.691	22432
864.823	22443
864.954	22291
865.086	22333
865.217	22287
865.349	22268
865.48	22379
865.612	22405
865.743	22344
865.875	22341
866.006	22238
866.137	22394
866.269	22276
866.4	22223
866.531	22173
866.662	22063
866.793	22139
866.924	22306
867.055	22196
867.186	22246
867.317	22314
867.448	22097
867.579	22272
867.71	22150
867.841	22086
867.972	22177
868.103	22234
868.233	22261
868.364	22242
868.495	22257
868.625	22402
868.756	22569
868.886	22337
869.017	22443
869.147	22500
869.278	22630
869.408	22451
869.539	22413
869.669	22607
869.799	22443
869.929	22478
870.06	22436
870.19	22706
870.32	22755
870.45	22736
870.58	22812
870.71	22915
870.84	23006
870.97	22744
871.1	22904
871.23	23022
871.36	22984
871.489	22816
871.619	22980
871.749	22999
871.879	23067
872.008	23060
872.138	23014
872.267	23048
872.397	22873
872.526	22866
872.656	22923
872.785	22881
872.915	23060
873.044	23254
873.173	22980
873.303	23124
873.432	23140
873.561	23254
873.69	23124
873.819	23014
873.948	23067
874.077	23048
874.206	23025
874.335	22942
874.464	23006
874.593	23292
874.722	23292
874.851	23273
874.979	23318
875.108	23364
875.237	23128
875.365	23147
875.494	23242
875.623	23353
875.751	23170
875.88	23284
876.008	23490
876.136	23497
876.265	23657
876.393	23684
876.521	23608
876.65	23722
876.778	23501
876.906	23581
877.034	23619
877.162	23615
877.29	23512
877.418	23703
877.546	23649
877.674	23573
877.802	23623
877.93	23589
878.058	23623
878.185	23512
878.313	23687
878.441	23562
878.568	23387
878.696	23478
878.824	23611
878.951	23634
879.079	23745
879.206	23946
879.333	23745
879.461	23649
879.588	23653
879.715	23764
879.842	23977
879.97	23707
880.097	23497
880.224	23391
880.351	23459
880.478	23573
880.605	23360
880.732	23459
880.859	23657
880.986	23391
881.112	23414
881.239	23231
881.366	23102
881.493	23105
881.619	23090
881.746	23052
881.872	23075
881.999	22904
882.125	22938
882.252	22911
882.378	22995
882.505	23094
882.631	22748
882.757	22664
882.883	22797
883.01	22733
883.136	22645
883.262	22478
883.388	22561
883.514	22725
883.64	22759
883.766	22527
883.892	22459
884.018	22413
884.143	22557
884.269	22645
884.395	22478
884.52	22280
884.646	22379
884.772	22181
884.897	22223
885.023	22318
885.148	22405
885.274	22421
885.399	22413
885.524	22379
885.65	22394
885.775	22226
885.9	22242
886.025	22402
886.15	22375
886.275	22398
886.4	22120
886.525	22215
886.65	22291
886.775	22318
886.9	22272
887.025	22516
887.149	22344
887.274	22055
887.399	22147
887.523	22086
887.648	22070
887.773	21953
887.897	22143
888.021	22021
888.146	22105
888.27	22093
888.395	22109
888.519	22002
888.643	22086
888.767	21960
888.891	21873
889.015	22006
889.139	21915
889.263	21823
889.387	21960
889.511	22070
889.635	21991
889.759	21934
889.883	21736
890.006	21842
890.13	21766
890.254	21724
890.377	21743
890.501	21599
890.624	21519
890.748	21492
890.871	21416
890.995	21351
891.118	21378
891.241	21325
891.364	21351
891.488	21519
891.611	21492
891.734	21336
891.857	21504
891.98	21386
892.103	21389
892.226	21466
892.349	21279
892.471	21119
892.594	21306
892.717	21294
892.839	21313
892.962	21233
893.085	21260
893.207	21260
893.33	21081
893.452	21165
893.575	21294
893.697	21344
893.819	21382
893.941	21454
894.064	21313
894.186	21161
894.308	21127
894.43	21317
894.552	21405
894.674	21359
894.796	21161
894.918	21222
895.04	21226
895.161	21264
895.283	21279
895.405	21157
895.526	21264
895.648	21138
895.769	21222
895.891	21279
896.012	21237
896.134	21237
896.255	21272
896.376	21138
896.498	21298
896.619	21321
896.74	21157
896.861	21096
896.982	21610
897.103	21671
897.224	21447
897.345	21496
897.466	21272
897.587	21382
897.708	21583
897.828	21488
897.949	21386
898.07	21214
898.19	21298
898.311	21420
898.431	21424
898.552	21363
898.672	21424
898.792	21496
898.913	21458
899.033	21367
899.153	21249
899.273	21195
899.393	21131
899.513	21165
899.633	21104
899.753	21173
899.873	21142
899.993	21142
900.113	21199
900.232	21089
900.352	21135
900.472	21017
900.591	20880
900.711	20944
900.83	20899
900.95	21017
901.069	20944
901.189	20842
901.308	20621
901.427	20488
901.546	20625
901.665	20541
901.784	20552
901.904	20423
902.023	20191
902.141	20012
902.26	19947
902.379	20115
902.498	19989
902.617	19974
902.735	19974
902.854	19925
902.973	19921
903.091	19647
903.21	19719
903.328	19472
903.446	19601
903.565	19499
903.683	19502
903.801	19365
903.919	19343
904.038	19422
904.156	19282
904.274	19293
904.392	19236
904.51	19148
904.627	19240
904.745	19190
904.863	19232
904.981	19023
905.098	18779
905.216	18954
905.334	18909
905.451	18977
905.569	18863
905.686	18947
905.803	18772
905.921	18677
906.038	18703
906.155	18555
906.272	18490
906.389	18426
906.506	18494
906.623	18448
906.74	18376
906.857	18323
906.974	18353
907.091	18498
907.208	18532
907.324	18388
907.441	18296
907.557	18213
907.674	18144
907.79	18095
907.907	18064
908.023	18068
908.139	17973
908.256	18064
908.372	17904
908.488	17965
908.604	17863
908.72	17843
908.836	17840
908.952	17783
909.068	17790
909.184	17958
909.3	17790
909.415	17923
909.531	17779
909.647	17478
909.762	17539
909.878	17474
909.993	17562
910.108	17444
910.224	17535
910.339	17497
910.454	17406
910.57	17356
910.685	17246
910.8	17410
910.915	17444
911.03	17277
911.145	17113
911.259	17067
911.374	17132
911.489	17075
911.604	16984
911.718	16778
911.833	16927
911.947	16744
912.062	16698
912.176	16839
912.291	16904
912.405	16778
912.519	16927
912.633	16942
912.748	16949
912.862	16854
912.976	16626
913.09	16481
913.204	16649
913.318	16675
913.431	16675
913.545	16752
913.659	16782
913.772	16554
913.886	16527
914	16462
914.113	16542
914.226	16432
914.34	16329
914.453	16219
914.566	16459
914.68	16352
914.793	16230
914.906	16124
915.019	16063
915.132	15911
915.245	16006
915.358	16051
915.47	15998
915.583	15983
915.696	16013
915.809	16173
915.921	16051
916.034	15884
916.146	15816
916.259	15884
916.371	16078
916.483	15937
916.595	15854
916.708	15831
916.82	15850
916.932	15736
917.044	15747
917.156	15743
917.268	15568
917.38	15648
917.491	15496
917.603	15595
917.715	15755
917.826	15599
917.938	15549
918.049	15466
918.161	15591
918.272	15656
918.384	15625
918.495	15526
918.606	15416
918.717	15336
918.828	15393
918.939	15355
919.05	15264
919.161	15298
919.272	15154
919.383	15146
919.494	15359
919.604	15500
919.715	15336
919.826	15351
919.936	15332
920.047	15370
920.157	15355
920.267	15454
920.378	15313
920.488	15272
920.598	15443
920.708	15526
920.818	15359
920.928	15268
921.038	15469
921.148	15500
921.258	15207
921.368	15131
921.477	15047
921.587	15047
921.697	14967
921.806	15013
921.916	14811
922.025	14708
922.134	14659
922.244	14651
922.353	14617
922.462	14499
922.571	14473
922.68	14252
922.789	14305
922.898	14374
923.007	14225
923.116	14343
923.224	14351
923.333	14240
923.442	14183
923.55	14183
923.659	14180
923.767	14298
923.876	14024
923.984	14183
924.092	14016
924.201	14031
924.309	14050
924.417	14065
924.525	13955
924.633	13974
924.741	14697
924.849	13795
924.956	13845
925.064	13677
925.172	13620
925.279	13708
925.387	13666
925.494	13731
925.602	13765
925.709	13696
925.816	13464
925.924	13613
926.031	13639
926.138	13578
926.245	13643
926.352	13426
926.459	13655
926.566	13674
926.673	13567
926.779	13346
926.886	13377
926.993	13373
927.099	13228
927.206	13107
927.312	13282
927.419	13259
927.525	13164
927.631	13240
927.737	13164
927.843	13122
927.95	12954
928.056	12954
928.162	13099
928.267	13076
928.373	13674
928.479	13088
928.585	12951
928.69	13015
928.796	13050
928.901	12833
929.007	12810
929.112	12909
929.218	12859
929.323	12791
929.428	12726
929.533	12954
929.638	12703
929.743	12623
929.848	12776
929.953	12623
930.058	12544
930.163	12437
930.267	12388
930.372	12563
930.477	12350
930.581	12669
930.685	12388
930.79	12376
930.894	12365
930.998	12456
931.103	12319
931.207	12087
931.311	11969
931.415	11866
931.519	11737
931.623	11703
