Data from test_V78500241_2119.txt Node
Date: Fri Mar 25 15:56:28 CST 2022
User: usil
Spectrometer: V785-0024
Trigger mode: 0
Integration Time (sec): 4.000000E-1
Scans to average: 1
Nonlinearity correction enabled: false
Boxcar width: 0
Storing dark spectrum: false
XAxis mode: Wavelengths
Number of Pixels in Spectrum: 1024
>>>>>Begin Spectral Data<<<<<
801.071	28984
801.214	28946
801.356	28786
801.499	28847
801.641	28535
801.783	28459
801.926	28649
802.068	28649
802.211	28451
802.353	28497
802.496	28272
802.638	28371
802.78	28314
802.923	28109
803.065	28246
803.208	28124
803.35	28211
803.492	28390
803.635	28698
803.777	28367
803.919	28523
804.061	28702
804.204	28580
804.346	28554
804.488	28428
804.63	28474
804.773	28466
804.915	28660
805.057	28550
805.199	28508
805.341	28615
805.483	28660
805.626	28698
805.768	28538
805.91	28668
806.052	28748
806.194	28557
806.336	28888
806.478	28637
806.62	28687
806.762	28778
806.904	28938
807.046	29170
807.188	29189
807.33	29235
807.472	29280
807.614	29079
807.756	29231
807.898	28995
808.04	28972
808.182	28942
808.324	28972
808.465	29010
808.607	29166
808.749	29474
808.891	29391
809.033	29471
809.174	29581
809.316	29406
809.458	29372
809.6	29341
809.741	29478
809.883	29528
810.025	29786
810.166	29634
810.308	29707
810.45	29630
810.591	29585
810.733	29429
810.875	29459
811.016	29261
811.158	29212
811.299	29505
811.441	29539
811.582	29547
811.724	29551
811.865	29250
812.007	29410
812.148	29490
812.29	29372
812.431	29661
812.573	29745
812.714	29935
812.855	29969
812.997	29969
813.138	30258
813.279	30041
813.421	29920
813.562	29779
813.703	29809
813.845	29554
813.986	29242
814.127	29197
814.268	29189
814.41	29178
814.551	28991
814.692	29189
814.833	28980
814.974	28991
815.115	29193
815.256	28847
815.397	29014
815.539	28919
815.68	28915
815.821	28809
815.962	29083
816.103	28915
816.244	28752
816.385	28725
816.526	28660
816.666	28554
816.807	28459
816.948	28527
817.089	28348
817.23	28466
817.371	28451
817.512	28382
817.653	28310
817.793	28303
817.934	28493
818.075	28432
818.216	28470
818.356	28516
818.497	28348
818.638	28154
818.778	28234
818.919	28246
819.06	28299
819.2	28436
819.341	28409
819.481	28417
819.622	28580
819.762	28812
819.903	28603
820.043	28599
820.184	28527
820.324	28485
820.465	28561
820.605	28618
820.746	28550
820.886	28538
821.026	28565
821.167	28531
821.307	28679
821.447	28474
821.588	28337
821.728	28276
821.868	28025
822.008	28131
822.149	27956
822.289	27914
822.429	27622
822.569	27629
822.709	27781
822.849	27466
822.99	27378
823.13	27443
823.27	27378
823.41	27287
823.55	27154
823.69	27325
823.83	27230
823.97	27165
824.11	27165
824.25	26963
824.389	27119
824.529	27157
824.669	26998
824.809	27123
824.949	27184
825.089	27096
825.228	27226
825.368	26956
825.508	27055
825.648	26845
825.787	27024
825.927	26998
826.067	26921
826.206	26940
826.346	26963
826.485	27039
826.625	26975
826.765	27058
826.904	27116
827.044	26807
827.183	26651
827.323	26552
827.462	26792
827.601	26701
827.741	26682
827.88	26659
828.02	26632
828.159	26575
828.298	26868
828.437	26644
828.577	26746
828.716	26796
828.855	26571
828.994	26423
829.134	26423
829.273	26396
829.412	26389
829.551	26309
829.69	26339
829.829	26404
829.968	26408
830.107	26351
830.246	26412
830.385	26278
830.524	26328
830.663	26183
830.802	26088
830.941	26027
831.08	25890
831.219	26016
831.357	26081
831.496	26111
831.635	26046
831.774	25875
831.913	25890
832.051	25818
832.19	25780
832.329	25742
832.467	25689
832.606	25670
832.744	25544
832.883	25696
833.022	25468
833.16	25582
833.299	25723
833.437	25746
833.576	25628
833.714	25723
833.852	25712
833.991	25708
834.129	25803
834.267	25769
834.406	25620
834.544	25681
834.682	25765
834.821	25731
834.959	25791
835.097	25518
835.235	25693
835.373	25814
835.511	25651
835.65	25537
835.788	25521
835.926	25453
836.064	25388
836.202	25324
836.34	25597
836.478	25521
836.615	25449
836.753	25495
836.891	25563
837.029	25514
837.167	25544
837.305	25346
837.443	25396
837.58	25415
837.718	25419
837.856	25422
837.993	25320
838.131	25407
838.269	25285
838.406	25354
838.544	24958
838.681	24989
838.819	24920
838.956	24894
839.094	24848
839.231	24905
839.369	25004
839.506	25244
839.643	25110
839.781	24924
839.918	24817
840.055	24776
840.193	24844
840.33	24661
840.467	24791
840.604	24692
840.742	25015
840.879	24578
841.016	24795
841.153	24608
841.29	24821
841.427	24722
841.564	24711
841.701	24665
841.838	24566
841.975	24559
842.112	24566
842.249	24589
842.385	24502
842.522	24604
842.659	24494
842.796	24388
842.933	24528
843.069	24361
843.206	24505
843.343	24479
843.479	24486
843.616	24429
843.752	24209
843.889	24251
844.025	24319
844.162	24167
844.298	24361
844.435	24194
844.571	24163
844.708	24232
844.844	24342
844.98	24384
845.117	24273
845.253	24155
845.389	23950
845.525	24057
845.661	23958
845.798	24038
845.934	24064
846.07	24045
846.206	23977
846.342	24106
846.478	23866
846.614	23813
846.75	23646
846.886	23619
847.022	23855
847.158	23714
847.294	23642
847.429	23771
847.565	23684
847.701	23912
847.837	23417
847.972	23356
848.108	23402
848.244	23509
848.379	23341
848.515	23292
848.65	23383
848.786	23193
848.921	23353
849.057	23360
849.192	23425
849.328	23261
849.463	23159
849.598	23299
849.734	23124
849.869	23105
850.004	23037
850.14	23067
850.275	23022
850.41	23006
850.545	22972
850.68	23090
850.815	22980
850.95	23060
851.085	23250
851.22	23052
851.355	22968
851.49	22877
851.625	23018
851.76	22968
851.895	22877
852.03	22946
852.165	23067
852.299	23037
852.434	23041
852.569	23181
852.703	22976
852.838	22968
852.973	23242
853.107	23208
853.242	23083
853.376	22930
853.511	22706
853.645	22763
853.78	22987
853.914	22927
854.048	22805
854.183	22885
854.317	22904
854.451	23109
854.585	22892
854.72	22976
854.854	22892
854.988	22729
855.122	22801
855.256	22664
855.39	22771
855.524	22824
855.658	22824
855.792	22896
855.926	22930
856.06	22908
856.194	22961
856.327	22839
856.461	22843
856.595	22801
856.729	22744
856.862	22904
856.996	22938
857.13	22972
857.263	22968
857.397	22942
857.53	22786
857.664	23022
857.797	22930
857.931	22968
858.064	22805
858.197	22942
858.331	22816
858.464	22793
858.597	22869
858.731	22797
858.864	22790
858.997	22801
859.13	22854
859.263	22919
859.396	22881
859.529	22812
859.662	22843
859.795	22805
859.928	22839
860.061	22976
860.194	23041
860.327	22854
860.46	22820
860.592	22949
860.725	23117
860.858	22999
860.99	22828
861.123	22793
861.256	22725
861.388	22843
861.521	23467
861.653	22736
861.786	22694
861.918	22694
862.05	22831
862.183	22721
862.315	22771
862.447	22858
862.58	22679
862.712	22599
862.844	22451
862.976	22691
863.108	22653
863.24	23052
863.372	22474
863.504	22542
863.636	22447
863.768	22523
863.9	22611
864.032	22405
864.164	22489
864.296	22634
864.428	22721
864.559	22565
864.691	22561
864.823	22440
864.954	22447
865.086	22542
865.217	22462
865.349	22394
865.48	22329
865.612	22436
865.743	22478
865.875	22478
866.006	22386
866.137	22398
866.269	22390
866.4	22409
866.531	22382
866.662	22363
866.793	22246
866.924	22356
867.055	22371
867.186	22459
867.317	22310
867.448	22215
867.579	22249
867.71	22287
867.841	22234
867.972	22352
868.103	22417
868.233	22440
868.364	22299
868.495	22459
868.625	22550
868.756	22721
868.886	22455
869.017	22725
869.147	22725
869.278	22782
869.408	22637
869.539	22603
869.669	22592
869.799	22561
869.929	22759
870.06	22618
870.19	22946
870.32	22835
870.45	22938
870.58	22881
870.71	22961
870.84	22991
870.97	23037
871.1	22942
871.23	23098
871.36	23170
871.489	23090
871.619	23204
871.749	23109
871.879	23296
872.008	23185
872.138	23151
872.267	23208
872.397	23029
872.526	22915
872.656	23071
872.785	23056
872.915	23143
873.044	23170
873.173	23208
873.303	23200
873.432	23200
873.561	23334
873.69	23159
873.819	23223
873.948	23258
874.077	23239
874.206	23037
874.335	23204
874.464	23254
874.593	23471
874.722	23406
874.851	23311
874.979	23467
875.108	23436
875.237	23341
875.365	23220
875.494	23368
875.623	23547
875.751	23398
875.88	23429
876.008	23372
876.136	23665
876.265	23798
876.393	23908
876.521	23813
876.65	23832
876.778	23908
876.906	23786
877.034	23638
877.162	23931
877.29	23699
877.418	23821
877.546	23802
877.674	23707
877.802	23912
877.93	23767
878.058	23695
878.185	23668
878.313	23764
878.441	23657
878.568	23482
878.696	23623
878.824	23874
878.951	23802
879.079	23946
879.206	24072
879.333	23920
879.461	23748
879.588	23843
879.715	23973
879.842	23977
879.97	23874
880.097	23539
880.224	23585
880.351	23562
880.478	23627
880.605	23512
880.732	23376
880.859	23699
880.986	23520
881.112	23554
881.239	23516
881.366	23353
881.493	23181
881.619	23162
881.746	23204
881.872	23083
881.999	22980
882.125	23025
882.252	23117
882.378	23071
882.505	23235
882.631	22854
882.757	22862
882.883	22812
883.01	22710
883.136	22801
883.262	22580
883.388	22557
883.514	22873
883.64	22805
883.766	22668
883.892	22607
884.018	22508
884.143	22683
884.269	22873
884.395	22478
884.52	22470
884.646	22421
884.772	22409
884.897	22333
885.023	22402
885.148	22466
885.274	22611
885.399	22557
885.524	22481
885.65	22447
885.775	22493
885.9	22379
886.025	22603
886.15	22409
886.275	22394
886.4	22329
886.525	22440
886.65	22219
886.775	22287
886.9	22596
887.025	22546
887.149	22367
887.274	22226
887.399	22181
887.523	22215
887.648	22093
887.773	22158
887.897	22295
888.021	22188
888.146	22082
888.27	22261
888.395	22276
888.519	22230
888.643	22207
888.767	22207
888.891	22086
889.015	22048
889.139	21945
889.263	21895
889.387	22036
889.511	22128
889.635	22093
889.759	21915
889.883	21884
890.006	21899
890.13	22131
890.254	21835
890.377	21930
890.501	21701
890.624	21713
890.748	21644
890.871	21667
890.995	21492
891.118	21435
891.241	21538
891.364	21367
891.488	21648
891.611	21439
891.734	21515
891.857	21606
891.98	21660
892.103	21492
892.226	21667
892.349	21443
892.471	21260
892.594	21389
892.717	21443
892.839	21332
892.962	21382
893.085	21561
893.207	21386
893.33	21272
893.452	21279
893.575	21431
893.697	21511
893.819	21545
893.941	21622
894.064	21534
894.186	21298
894.308	21252
894.43	21420
894.552	21542
894.674	21515
894.796	21313
894.918	21332
895.04	21359
895.161	21355
895.283	21313
895.405	21230
895.526	21287
895.648	21443
895.769	21420
895.891	21428
896.012	21363
896.134	21367
896.255	21355
896.376	21291
896.498	21397
896.619	21344
896.74	21325
896.861	21367
896.982	21682
897.103	21804
897.224	21629
897.345	21488
897.466	21504
897.587	21599
897.708	21720
897.828	21576
897.949	21549
898.07	21336
898.19	21420
898.311	21583
898.431	21431
898.552	21416
898.672	21519
898.792	21618
898.913	21408
899.033	21492
899.153	21351
899.273	21245
899.393	21313
899.513	21397
899.633	21272
899.753	21226
899.873	21192
899.993	21294
900.113	21176
900.232	21203
900.352	21116
900.472	21066
900.591	20967
900.711	20990
900.83	21024
900.95	21070
901.069	21119
901.189	20830
901.308	20670
901.427	20686
901.546	20518
901.665	20594
901.784	20674
901.904	20465
902.023	20313
902.141	20043
902.26	20142
902.379	20168
902.498	20020
902.617	19955
902.735	20240
902.854	19967
902.973	19974
903.091	19757
903.21	19784
903.328	19734
903.446	19681
903.565	19544
903.683	19609
903.801	19422
903.919	19483
904.038	19601
904.156	19430
904.274	19289
904.392	19251
904.51	19274
904.627	19304
904.745	19335
904.863	19274
904.981	19183
905.098	18939
905.216	19095
905.334	18981
905.451	18977
905.569	18932
905.686	19057
905.803	19000
905.921	18760
906.038	18916
906.155	18745
906.272	18616
906.389	18707
906.506	18479
906.623	18528
906.74	18528
906.857	18418
906.974	18330
907.091	18620
907.208	18570
907.324	18525
907.441	18376
907.557	18292
907.674	18235
907.79	18216
907.907	18163
908.023	18209
908.139	18201
908.256	18148
908.372	18106
908.488	18068
908.604	17889
908.72	17927
908.836	17889
908.952	17821
909.068	17969
909.184	18057
909.3	17885
909.415	17958
909.531	17893
909.647	17649
909.762	17566
909.878	17646
909.993	17566
910.108	17547
910.224	17433
910.339	17516
910.454	17478
910.57	17448
910.685	17436
910.8	17703
910.915	17501
911.03	17280
911.145	17189
911.259	17250
911.374	17113
911.489	17067
911.604	16980
911.718	16915
911.833	16877
911.947	16866
912.062	16778
912.176	16881
912.291	16927
912.405	16900
912.519	17159
912.633	17064
912.748	16911
912.862	16946
912.976	16744
913.09	16622
913.204	16744
913.318	16744
913.431	16793
913.545	16854
913.659	16771
913.772	16630
913.886	16554
914	16497
914.113	16630
914.226	16538
914.34	16474
914.453	16466
914.566	16565
914.68	16417
914.793	16386
914.906	16169
915.019	16158
915.132	16109
915.245	16120
915.358	16063
915.47	16048
915.583	16048
915.696	16147
915.809	16204
915.921	16150
916.034	16029
916.146	15869
916.259	15888
916.371	16120
916.483	16025
916.595	16010
916.708	15873
916.82	15899
916.932	15823
917.044	15766
917.156	15861
917.268	15690
917.38	15682
917.491	15720
917.603	15743
917.715	15781
917.826	15850
917.938	15629
918.049	15595
918.161	15629
918.272	15743
918.384	15732
918.495	15614
918.606	15447
918.717	15401
918.828	15469
918.939	15549
919.05	15412
919.161	15367
919.272	15150
919.383	15321
919.494	15576
919.604	15766
919.715	15405
919.826	15233
919.936	15435
920.047	15443
920.157	15348
920.267	15477
920.378	15435
920.488	15317
920.598	15534
920.708	15599
920.818	15545
920.928	15485
921.038	15690
921.148	15679
921.258	15363
921.368	15222
921.477	15161
921.587	15093
921.697	15028
921.806	15043
921.916	14990
922.025	14796
922.134	14659
922.244	14670
922.353	14758
922.462	14610
922.571	14495
922.68	14393
922.789	14362
922.898	14393
923.007	14259
923.116	14324
923.224	14332
923.333	14309
923.442	14244
923.55	14168
923.659	14218
923.767	14271
923.876	14206
923.984	14259
924.092	14103
924.201	14161
924.309	14005
924.417	14103
924.525	14050
924.633	13974
924.741	14716
924.849	13868
924.956	13917
925.064	13830
925.172	13712
925.279	13818
925.387	13803
925.494	13738
925.602	13750
925.709	13795
925.816	13658
925.924	13620
926.031	13750
926.138	13632
926.245	13674
926.352	13571
926.459	13700
926.566	13723
926.673	13651
926.779	13468
926.886	13480
926.993	13266
927.099	13289
927.206	13289
927.312	13149
927.419	13285
927.525	13297
927.631	13236
927.737	13171
927.843	13145
927.95	13008
928.056	13000
928.162	13137
928.267	13023
928.373	13719
928.479	13247
928.585	13042
928.69	13008
928.796	13034
928.901	13012
929.007	12760
929.112	12909
929.218	12867
929.323	12821
929.428	12741
929.533	12935
929.638	12585
929.743	12814
929.848	12791
929.953	12726
930.058	12677
930.163	12471
930.267	12407
930.372	12566
930.477	12426
930.581	12665
930.685	12407
930.79	12407
930.894	12350
930.998	12327
931.103	12369
931.207	12083
931.311	12003
931.415	11821
931.519	11745
931.623	11733
