Data from test_V78500241_2222.txt Node
Date: Fri Mar 25 15:57:11 CST 2022
User: usil
Spectrometer: V785-0024
Trigger mode: 0
Integration Time (sec): 4.000000E-1
Scans to average: 1
Nonlinearity correction enabled: false
Boxcar width: 0
Storing dark spectrum: false
XAxis mode: Wavelengths
Number of Pixels in Spectrum: 1024
>>>>>Begin Spectral Data<<<<<
801.071	29064
801.214	29025
801.356	28752
801.499	28885
801.641	28637
801.783	28691
801.926	28580
802.068	28740
802.211	28596
802.353	28432
802.496	28508
802.638	28379
802.78	28390
802.923	28348
803.065	28394
803.208	28306
803.35	28421
803.492	28462
803.635	28618
803.777	28538
803.919	28637
804.061	29010
804.204	28793
804.346	28626
804.488	28565
804.63	28698
804.773	28527
804.915	28763
805.057	28622
805.199	28618
805.341	28767
805.483	28824
805.626	28786
805.768	28793
805.91	28767
806.052	28831
806.194	28694
806.336	28980
806.478	28755
806.62	28904
806.762	28965
806.904	29178
807.046	29315
807.188	29368
807.33	29349
807.472	29406
807.614	29174
807.756	29223
807.898	29109
808.04	29048
808.182	29117
808.324	29311
808.465	29189
808.607	29379
808.749	29429
808.891	29600
809.033	29638
809.174	29668
809.316	29467
809.458	29452
809.6	29531
809.741	29562
809.883	29653
810.025	29878
810.166	29893
810.308	29878
810.45	29783
810.591	29760
810.733	29619
810.875	29737
811.016	29379
811.158	29493
811.299	29722
811.441	29687
811.582	29764
811.724	29653
811.865	29535
812.007	29528
812.148	29619
812.29	29581
812.431	29862
812.573	29790
812.714	30007
812.855	30007
812.997	30148
813.138	30395
813.279	30152
813.421	30220
813.562	29961
813.703	29965
813.845	29866
813.986	29543
814.127	29410
814.268	29246
814.41	29425
814.551	29193
814.692	29406
814.833	29246
814.974	29254
815.115	29307
815.256	29204
815.397	29083
815.539	29220
815.68	29132
815.821	29136
815.962	29060
816.103	28896
816.244	29041
816.385	28927
816.526	28809
816.666	28668
816.807	28519
816.948	28679
817.089	28679
817.23	28554
817.371	28550
817.512	28630
817.653	28546
817.793	28550
817.934	28538
818.075	28668
818.216	28660
818.356	28428
818.497	28497
818.638	28287
818.778	28451
818.919	28394
819.06	28371
819.2	28538
819.341	28733
819.481	28493
819.622	28850
819.762	28888
819.903	28923
820.043	28805
820.184	28793
820.324	28694
820.465	28850
820.605	28763
820.746	28771
820.886	28512
821.026	28603
821.167	28706
821.307	28637
821.447	28752
821.588	28523
821.728	28466
821.868	28207
822.008	28169
822.149	28150
822.289	27994
822.429	27778
822.569	27698
822.709	27827
822.849	27606
822.99	27580
823.13	27568
823.27	27625
823.41	27450
823.55	27256
823.69	27351
823.83	27405
823.97	27393
824.11	27329
824.25	27226
824.389	27275
824.529	27233
824.669	27161
824.809	27321
824.949	27382
825.089	27283
825.228	27268
825.368	27108
825.508	27131
825.648	27070
825.787	27241
825.927	27180
826.067	27032
826.206	27165
826.346	27165
826.485	27104
826.625	26979
826.765	27272
826.904	27096
827.044	26956
827.183	26933
827.323	26921
827.462	26940
827.601	26967
827.741	26876
827.88	26857
828.02	26834
828.159	26842
828.298	26777
828.437	26891
828.577	26807
828.716	26842
828.855	26861
828.994	26617
829.134	26518
829.273	26655
829.412	26670
829.551	26526
829.69	26499
829.829	26549
829.968	26701
830.107	26587
830.246	26484
830.385	26488
830.524	26518
830.663	26381
830.802	26298
830.941	26138
831.08	26073
831.219	26305
831.357	26237
831.496	26503
831.635	26062
831.774	26081
831.913	25989
832.051	26100
832.19	25966
832.329	25936
832.467	25814
832.606	25689
832.744	25655
832.883	25795
833.022	25833
833.16	25913
833.299	25875
833.437	25814
833.576	25864
833.714	25871
833.852	25974
833.991	25875
834.129	25993
834.267	26115
834.406	26058
834.544	25913
834.682	25898
834.821	25826
834.959	25932
835.097	25822
835.235	25951
835.373	25871
835.511	25879
835.65	25712
835.788	25742
835.926	25632
836.064	25620
836.202	25643
836.34	25761
836.478	25772
836.615	25780
836.753	25757
836.891	25712
837.029	25757
837.167	25670
837.305	25643
837.443	25658
837.58	25635
837.718	25620
837.856	25582
837.993	25518
838.131	25552
838.269	25354
838.406	25445
838.544	25441
838.681	25236
838.819	25129
838.956	25034
839.094	25099
839.231	25065
839.369	25187
839.506	25388
839.643	25304
839.781	25023
839.918	25084
840.055	25000
840.193	24962
840.33	24749
840.467	24943
840.604	24928
840.742	25293
840.879	24875
841.016	24859
841.153	24703
841.29	25015
841.427	24890
841.564	24939
841.701	24947
841.838	24844
841.975	24806
842.112	24776
842.249	24627
842.385	24616
842.522	24897
842.659	24764
842.796	24700
842.933	24696
843.069	24585
843.206	24604
843.343	24692
843.479	24715
843.616	24551
843.752	24456
843.889	24490
844.025	24646
844.162	24521
844.298	24540
844.435	24391
844.571	24369
844.708	24426
844.844	24555
844.98	24612
845.117	24563
845.253	24433
845.389	24342
845.525	24346
845.661	24292
845.798	24068
845.934	24239
846.07	24079
846.206	24178
846.342	24239
846.478	24076
846.614	23988
846.75	23897
846.886	23950
847.022	23965
847.158	23901
847.294	23961
847.429	23920
847.565	23908
847.701	24140
847.837	23752
847.972	23665
848.108	23783
848.244	23642
848.379	23524
848.515	23455
848.65	23414
848.786	23581
848.921	23440
849.057	23634
849.192	23558
849.328	23596
849.463	23501
849.598	23440
849.734	23417
849.869	23326
850.004	23117
850.14	23273
850.275	23250
850.41	23136
850.545	23227
850.68	23204
850.815	23181
850.95	23258
851.085	23383
851.22	23391
851.355	23341
851.49	23235
851.625	23265
851.76	23322
851.895	23136
852.03	23246
852.165	23227
852.299	23258
852.434	23292
852.569	23132
852.703	23273
852.838	23280
852.973	23341
853.107	23341
853.242	23220
853.376	23060
853.511	23052
853.645	22904
853.78	23239
853.914	23003
854.048	22999
854.183	22961
854.317	23071
854.451	23220
854.585	22980
854.72	22896
854.854	23121
854.988	23044
855.122	23010
855.256	22763
855.39	23014
855.524	23136
855.658	23109
855.792	23090
855.926	23064
856.06	23143
856.194	23064
856.327	23075
856.461	22953
856.595	22957
856.729	23010
856.862	23136
856.996	23079
857.13	23071
857.263	23261
857.397	23296
857.53	23048
857.664	23105
857.797	23064
857.931	23067
858.064	23086
858.197	23208
858.331	23067
858.464	22946
858.597	22942
858.731	23086
858.864	23079
858.997	22949
859.13	22957
859.263	22904
859.396	23128
859.529	23067
859.662	22976
859.795	22930
859.928	23105
860.061	23280
860.194	23269
860.327	23056
860.46	23079
860.592	23060
860.725	23117
860.858	23140
860.99	23102
861.123	23003
861.256	23075
861.388	23117
861.521	23649
861.653	22862
861.786	22797
861.918	22748
862.05	22889
862.183	22976
862.315	22892
862.447	22968
862.58	22911
862.712	22767
862.844	22759
862.976	22767
863.108	22698
863.24	23204
863.372	22744
863.504	22691
863.636	22733
863.768	22908
863.9	22733
864.032	22710
864.164	22869
864.296	22759
864.428	22721
864.559	22721
864.691	22877
864.823	22713
864.954	22729
865.086	22660
865.217	22649
865.349	22546
865.48	22588
865.612	22531
865.743	22816
865.875	22584
866.006	22622
866.137	22497
866.269	22592
866.4	22649
866.531	22573
866.662	22573
866.793	22489
866.924	22607
867.055	22569
867.186	22516
867.317	22462
867.448	22478
867.579	22527
867.71	22409
867.841	22337
867.972	22447
868.103	22493
868.233	22554
868.364	22497
868.495	22809
868.625	22702
868.756	22812
868.886	22660
869.017	22812
869.147	22835
869.278	22847
869.408	22763
869.539	22786
869.669	22831
869.799	22725
869.929	22767
870.06	22938
870.19	23010
870.32	22881
870.45	23044
870.58	23048
870.71	23250
870.84	23322
870.97	23128
871.1	23090
871.23	23258
871.36	23387
871.489	23200
871.619	23429
871.749	23231
871.879	23345
872.008	23516
872.138	23265
872.267	23345
872.397	23280
872.526	23265
872.656	23166
872.785	23166
872.915	23368
873.044	23471
873.173	23372
873.303	23444
873.432	23440
873.561	23455
873.69	23299
873.819	23349
873.948	23303
874.077	23296
874.206	23242
874.335	23387
874.464	23410
874.593	23535
874.722	23459
874.851	23577
874.979	23630
875.108	23627
875.237	23490
875.365	23421
875.494	23528
875.623	23680
875.751	23589
875.88	23638
876.008	23634
876.136	23665
876.265	23885
876.393	24060
876.521	23965
876.65	24068
876.778	24087
876.906	23908
877.034	23904
877.162	24026
877.29	23969
877.418	23992
877.546	23942
877.674	23878
877.802	23950
877.93	23961
878.058	23912
878.185	23817
878.313	23863
878.441	23893
878.568	23828
878.696	23817
878.824	23969
878.951	24133
879.079	24110
879.206	24357
879.333	24209
879.461	23965
879.588	23999
879.715	24030
879.842	24201
879.97	23931
880.097	23771
880.224	23733
880.351	23809
880.478	23737
880.605	23657
880.732	23718
880.859	23923
880.986	23718
881.112	23775
881.239	23623
881.366	23410
881.493	23478
881.619	23288
881.746	23345
881.872	23292
881.999	23151
882.125	23189
882.252	23280
882.378	23269
882.505	23303
882.631	23174
882.757	23048
882.883	22938
883.01	22991
883.136	22782
883.262	22828
883.388	22733
883.514	22961
883.64	22908
883.766	22885
883.892	22656
884.018	22809
884.143	22854
884.269	22911
884.395	22611
884.52	22592
884.646	22653
884.772	22481
884.897	22500
885.023	22542
885.148	22649
885.274	22675
885.399	22702
885.524	22622
885.65	22569
885.775	22580
885.9	22493
886.025	22645
886.15	22580
886.275	22523
886.4	22508
886.525	22535
886.65	22542
886.775	22481
886.9	22607
887.025	22873
887.149	22580
887.274	22257
887.399	22177
887.523	22344
887.648	22249
887.773	22303
887.897	22394
888.021	22409
888.146	22272
888.27	22417
888.395	22455
888.519	22344
888.643	22409
888.767	22382
888.891	22162
889.015	22147
889.139	22219
889.263	22017
889.387	22276
889.511	22386
889.635	22329
889.759	22173
889.883	22025
890.006	22105
890.13	22173
890.254	22055
890.377	22112
890.501	21915
890.624	21827
890.748	21953
890.871	21895
890.995	21739
891.118	21538
891.241	21690
891.364	21705
891.488	21778
891.611	21667
891.734	21572
891.857	21622
891.98	21648
892.103	21720
892.226	21564
892.349	21591
892.471	21488
892.594	21405
892.717	21610
892.839	21473
892.962	21530
893.085	21515
893.207	21397
893.33	21412
893.452	21496
893.575	21500
893.697	21496
893.819	21564
893.941	21838
894.064	21720
894.186	21435
894.308	21466
894.43	21553
894.552	21720
894.674	21660
894.796	21481
894.918	21534
895.04	21519
895.161	21583
895.283	21450
895.405	21317
895.526	21443
895.648	21523
895.769	21549
895.891	21561
896.012	21564
896.134	21485
896.255	21641
896.376	21538
896.498	21477
896.619	21511
896.74	21641
896.861	21492
896.982	21835
897.103	21979
897.224	21705
897.345	21652
897.466	21686
897.587	21743
897.708	21743
897.828	21785
897.949	21682
898.07	21477
898.19	21549
898.311	21804
898.431	21587
898.552	21591
898.672	21705
898.792	21766
898.913	21629
899.033	21675
899.153	21595
899.273	21264
899.393	21439
899.513	21462
899.633	21272
899.753	21507
899.873	21329
899.993	21435
900.113	21222
900.232	21458
900.352	21370
900.472	21313
900.591	21138
900.711	21150
900.83	21089
900.95	21252
901.069	21268
901.189	20975
901.308	20876
901.427	20819
901.546	20781
901.665	20811
901.784	20727
901.904	20648
902.023	20495
902.141	20275
902.26	20256
902.379	20389
902.498	20168
902.617	20294
902.735	20324
902.854	20176
902.973	20077
903.091	19917
903.21	19898
903.328	19894
903.446	19734
903.565	19791
903.683	19689
903.801	19590
903.919	19708
904.038	19643
904.156	19415
904.274	19575
904.392	19483
904.51	19468
904.627	19384
904.745	19358
904.863	19529
904.981	19343
905.098	19107
905.216	19126
905.334	19114
905.451	19137
905.569	19080
905.686	19152
905.803	19012
905.921	18791
906.038	18905
906.155	18966
906.272	18871
906.389	18909
906.506	18597
906.623	18627
906.74	18582
906.857	18566
906.974	18601
907.091	18692
907.208	18817
907.324	18631
907.441	18486
907.557	18380
907.674	18422
907.79	18197
907.907	18270
908.023	18338
908.139	18395
908.256	18228
908.372	18209
908.488	18167
908.604	17904
908.72	18114
908.836	18030
908.952	18045
909.068	17996
909.184	18144
909.3	18076
909.415	18015
909.531	18060
909.647	17714
909.762	17756
909.878	17847
909.993	17638
910.108	17737
910.224	17756
910.339	17619
910.454	17543
910.57	17592
910.685	17512
910.8	17771
910.915	17729
911.03	17535
911.145	17406
911.259	17311
911.374	17296
911.489	17296
911.604	17193
911.718	16976
911.833	17025
911.947	16995
912.062	16953
912.176	17060
912.291	17045
912.405	16999
912.519	17288
912.633	17155
912.748	17178
912.862	16980
912.976	16946
913.09	16771
913.204	16889
913.318	16869
913.431	16915
913.545	16927
913.659	16835
913.772	16733
913.886	16622
914	16607
914.113	16736
914.226	16710
914.34	16637
914.453	16565
914.566	16660
914.68	16474
914.793	16455
914.906	16318
915.019	16226
915.132	16166
915.245	16230
915.358	16139
915.47	16196
915.583	16192
915.696	16272
915.809	16337
915.921	16246
916.034	16032
916.146	16147
916.259	16109
916.371	16162
916.483	16154
916.595	15979
916.708	15979
916.82	16071
916.932	15968
917.044	15964
917.156	15968
917.268	15918
917.38	15854
917.491	15812
917.603	15827
917.715	15884
917.826	15831
917.938	15762
918.049	15808
918.161	15751
918.272	15842
918.384	15865
918.495	15701
918.606	15656
918.717	15439
918.828	15534
918.939	15599
919.05	15428
919.161	15580
919.272	15310
919.383	15389
919.494	15564
919.604	15698
919.715	15561
919.826	15405
919.936	15370
920.047	15572
920.157	15519
920.267	15694
920.378	15515
920.488	15473
920.598	15618
920.708	15781
920.818	15591
920.928	15545
921.038	15709
921.148	15705
921.258	15325
921.368	15386
921.477	15218
921.587	15211
921.697	15119
921.806	15138
921.916	15097
922.025	14815
922.134	14956
922.244	14754
922.353	14842
922.462	14705
922.571	14739
922.68	14492
922.789	14514
922.898	14511
923.007	14446
923.116	14434
923.224	14469
923.333	14488
923.442	14336
923.55	14267
923.659	14233
923.767	14358
923.876	14278
923.984	14377
924.092	14119
924.201	14233
924.309	14191
924.417	14130
924.525	14039
924.633	14046
924.741	14895
924.849	13894
924.956	14096
925.064	13932
925.172	13791
925.279	13811
925.387	13795
925.494	13841
925.602	13959
925.709	13921
925.816	13780
925.924	13689
926.031	13913
926.138	13856
926.245	13776
926.352	13742
926.459	13776
926.566	13875
926.673	13765
926.779	13609
926.886	13575
926.993	13483
927.099	13388
927.206	13407
927.312	13278
927.419	13407
927.525	13354
927.631	13301
927.737	13198
927.843	13190
927.95	13129
928.056	13080
928.162	13122
928.267	13259
928.373	13826
928.479	13255
928.585	13042
928.69	13145
928.796	13141
928.901	13008
929.007	12913
929.112	12996
929.218	12932
929.323	12935
929.428	12810
929.533	13015
929.638	12757
929.743	12825
929.848	12859
929.953	12814
930.058	12707
930.163	12585
930.267	12601
930.372	12684
930.477	12525
930.581	12753
930.685	12528
930.79	12448
930.894	12437
930.998	12361
931.103	12494
931.207	12220
931.311	12022
931.415	11984
931.519	11809
931.623	11824
