Data from test_V78500241_414.txt Node
Date: Fri Mar 25 15:44:40 CST 2022
User: usil
Spectrometer: V785-0024
Trigger mode: 0
Integration Time (sec): 4.000000E-1
Scans to average: 1
Nonlinearity correction enabled: false
Boxcar width: 0
Storing dark spectrum: false
XAxis mode: Wavelengths
Number of Pixels in Spectrum: 1024
>>>>>Begin Spectral Data<<<<<
801.071	28192
801.214	28219
801.356	28105
801.499	27930
801.641	27888
801.783	27736
801.926	27998
802.068	27663
802.211	27618
802.353	27679
802.496	27603
802.638	27340
802.78	27329
802.923	27321
803.065	27154
803.208	27488
803.35	27386
803.492	27492
803.635	27545
803.777	27397
803.919	27561
804.061	27846
804.204	27603
804.346	27462
804.488	27386
804.63	27473
804.773	27348
804.915	27408
805.057	27694
805.199	27542
805.341	27641
805.483	27629
805.626	27625
805.768	27477
805.91	27652
806.052	27603
806.194	27450
806.336	27827
806.478	27583
806.62	27671
806.762	27675
806.904	27991
807.046	28166
807.188	28063
807.33	27968
807.472	28169
807.614	27987
807.756	27975
807.898	27857
808.04	27846
808.182	27831
808.324	27903
808.465	27793
808.607	28067
808.749	28093
808.891	28238
809.033	28196
809.174	28215
809.316	28128
809.458	28238
809.6	28177
809.741	28382
809.883	28333
810.025	28470
810.166	28424
810.308	28375
810.45	28424
810.591	28344
810.733	28230
810.875	28219
811.016	28063
811.158	28055
811.299	28276
811.441	28367
811.582	28322
811.724	28257
811.865	28200
812.007	28086
812.148	28196
812.29	28192
812.431	28367
812.573	28512
812.714	28679
812.855	28771
812.997	28869
813.138	28949
813.279	28790
813.421	28660
813.562	28580
813.703	28455
813.845	28356
813.986	28002
814.127	27846
814.268	27785
814.41	27892
814.551	27907
814.692	27854
814.833	27698
814.974	27800
815.115	27789
815.256	27523
815.397	27549
815.539	27629
815.68	27542
815.821	27656
815.962	27618
816.103	27686
816.244	27511
816.385	27378
816.526	27386
816.666	27173
816.807	27077
816.948	27085
817.089	27108
817.23	27058
817.371	27180
817.512	27028
817.653	26883
817.793	27032
817.934	27093
818.075	27100
818.216	26952
818.356	26876
818.497	26861
818.638	26712
818.778	26815
818.919	26826
819.06	26788
819.2	26864
819.341	26880
819.481	27020
819.622	27123
819.762	27302
819.903	27287
820.043	27150
820.184	27146
820.324	27138
820.465	27150
820.605	27131
820.746	27096
820.886	26914
821.026	26998
821.167	27093
821.307	27131
821.447	26925
821.588	26838
821.728	26644
821.868	26632
822.008	26480
822.149	26469
822.289	26473
822.429	26164
822.569	26115
822.709	26058
822.849	25879
822.99	25978
823.13	25746
823.27	25799
823.41	25689
823.55	25601
823.69	25753
823.83	25670
823.97	25590
824.11	25499
824.25	25563
824.389	25533
824.529	25647
824.669	25548
824.809	25624
824.949	25624
825.089	25605
825.228	25518
825.368	25449
825.508	25388
825.648	25255
825.787	25354
825.927	25419
826.067	25308
826.206	25259
826.346	25495
826.485	25392
826.625	25396
826.765	25460
826.904	25392
827.044	25225
827.183	25190
827.323	25088
827.462	25179
827.601	25004
827.741	25091
827.88	25080
828.02	24886
828.159	25008
828.298	25145
828.437	25133
828.577	24897
828.716	25110
828.855	24833
828.994	24753
829.134	24745
829.273	24715
829.412	24696
829.551	24608
829.69	24700
829.829	24859
829.968	24856
830.107	24772
830.246	24753
830.385	24692
830.524	24593
830.663	24536
830.802	24365
830.941	24270
831.08	24319
831.219	24407
831.357	24361
831.496	24570
831.635	24300
831.774	24209
831.913	24224
832.051	24060
832.19	24087
832.329	24243
832.467	24011
832.606	24011
832.744	23893
832.883	23988
833.022	23935
833.16	23946
833.299	24018
833.437	23927
833.576	24053
833.714	23977
833.852	24045
833.991	24117
834.129	24015
834.267	24072
834.406	24098
834.544	24087
834.682	23980
834.821	23965
834.959	24209
835.097	23965
835.235	24041
835.373	23893
835.511	23954
835.65	23916
835.788	23863
835.926	23798
836.064	23585
836.202	23672
836.34	23680
836.478	23901
836.615	23916
836.753	23889
836.891	23882
837.029	23889
837.167	23775
837.305	23684
837.443	23676
837.58	23691
837.718	23745
837.856	23623
837.993	23653
838.131	23657
838.269	23520
838.406	23611
838.544	23547
838.681	23318
838.819	23345
838.956	23162
839.094	23140
839.231	23086
839.369	23212
839.506	23486
839.643	23322
839.781	23121
839.918	23064
840.055	23014
840.193	23162
840.33	23003
840.467	23029
840.604	23041
840.742	23322
840.879	22771
841.016	22942
841.153	22946
841.29	23086
841.427	22999
841.564	23010
841.701	22972
841.838	22892
841.975	23037
842.112	22847
842.249	22755
842.385	22824
842.522	22980
842.659	22816
842.796	22668
842.933	22752
843.069	22721
843.206	22603
843.343	22771
843.479	22653
843.616	22778
843.752	22622
843.889	22424
844.025	22698
844.162	22478
844.298	22637
844.435	22466
844.571	22470
844.708	22417
844.844	22626
844.98	22736
845.117	22504
845.253	22428
845.389	22394
845.525	22314
845.661	22291
845.798	22086
845.934	22276
846.07	22280
846.206	22135
846.342	22333
846.478	22219
846.614	22040
846.75	21831
846.886	21911
847.022	22036
847.158	21991
847.294	21907
847.429	22051
847.565	21994
847.701	22086
847.837	21736
847.972	21751
848.108	21625
848.244	21804
848.379	21538
848.515	21523
848.65	21496
848.786	21534
848.921	21599
849.057	21538
849.192	21469
849.328	21576
849.463	21606
849.598	21389
849.734	21260
849.869	21351
850.004	21275
850.14	21287
850.275	21321
850.41	21245
850.545	21245
850.68	21302
850.815	21237
850.95	21245
851.085	21443
851.22	21355
851.355	21275
851.49	21203
851.625	21195
851.76	21233
851.895	21230
852.03	21214
852.165	21310
852.299	21310
852.434	21325
852.569	21188
852.703	21188
852.838	21336
852.973	21359
853.107	21252
853.242	21116
853.376	21028
853.511	20956
853.645	21161
853.78	21180
853.914	21123
854.048	21020
854.183	21055
854.317	21089
854.451	21344
854.585	21070
854.72	20967
854.854	21188
854.988	20925
855.122	21112
855.256	21024
855.39	21077
855.524	21119
855.658	21116
855.792	21085
855.926	20975
856.06	21169
856.194	21165
856.327	21070
856.461	21001
856.595	20986
856.729	21104
856.862	21116
856.996	21051
857.13	21138
857.263	21165
857.397	21268
857.53	21081
857.664	21207
857.797	21085
857.931	21199
858.064	21093
858.197	21108
858.331	21028
858.464	20979
858.597	20956
858.731	20994
858.864	20956
858.997	21070
859.13	21077
859.263	21135
859.396	21028
859.529	21036
859.662	20891
859.795	21001
859.928	21024
860.061	21131
860.194	21222
860.327	21089
860.46	20998
860.592	21173
860.725	21325
860.858	21245
860.99	21093
861.123	20918
861.256	21013
861.388	21005
861.521	21622
861.653	21009
861.786	20910
861.918	20971
862.05	20960
862.183	21013
862.315	21127
862.447	21116
862.58	20979
862.712	20807
862.844	20716
862.976	20838
863.108	20815
863.24	21272
863.372	20708
863.504	20735
863.636	20636
863.768	20823
863.9	20693
864.032	20667
864.164	20663
864.296	20773
864.428	20819
864.559	20743
864.691	20861
864.823	20807
864.954	20781
865.086	20621
865.217	20754
865.349	20442
865.48	20659
865.612	20533
865.743	20872
865.875	20659
866.006	20495
866.137	20712
866.269	20686
866.4	20651
866.531	20617
866.662	20450
866.793	20541
866.924	20412
867.055	20469
867.186	20606
867.317	20480
867.448	20431
867.579	20533
867.71	20473
867.841	20530
867.972	20564
868.103	20476
868.233	20530
868.364	20537
868.495	20606
868.625	20754
868.756	21024
868.886	20746
869.017	20773
869.147	20941
869.278	20895
869.408	20853
869.539	20731
869.669	20815
869.799	20815
869.929	20838
870.06	20883
870.19	21055
870.32	21028
870.45	21127
870.58	21184
870.71	21279
870.84	21336
870.97	21222
871.1	21100
871.23	21439
871.36	21367
871.489	21325
871.619	21370
871.749	21325
871.879	21504
872.008	21553
872.138	21351
872.267	21237
872.397	21287
872.526	21222
872.656	21176
872.785	21313
872.915	21504
873.044	21386
873.173	21332
873.303	21450
873.432	21492
873.561	21443
873.69	21405
873.819	21393
873.948	21401
874.077	21469
874.206	21439
874.335	21370
874.464	21564
874.593	21728
874.722	21599
874.851	21717
874.979	21629
875.108	21622
875.237	21557
875.365	21545
875.494	21587
875.623	21717
875.751	21606
875.88	21614
876.008	21686
876.136	21781
876.265	22139
876.393	22276
876.521	22131
876.65	22173
876.778	22017
876.906	22074
877.034	22055
877.162	22093
877.29	21888
877.418	22013
877.546	22116
877.674	21998
877.802	21972
877.93	21975
878.058	21975
878.185	21945
878.313	21979
878.441	21983
878.568	21884
878.696	21945
878.824	21983
878.951	22032
879.079	22128
879.206	22158
879.333	22234
879.461	22131
879.588	22032
879.715	22120
879.842	22405
879.97	22109
880.097	21793
880.224	21816
880.351	21960
880.478	21759
880.605	21816
880.732	21808
880.859	22124
880.986	21781
881.112	21842
881.239	21629
881.366	21637
881.493	21633
881.619	21344
881.746	21473
881.872	21302
881.999	21359
882.125	21363
882.252	21367
882.378	21325
882.505	21504
882.631	21382
882.757	21036
882.883	21161
883.01	21108
883.136	21138
883.262	21039
883.388	20975
883.514	21070
883.64	21157
883.766	20982
883.892	20941
884.018	20914
884.143	21017
884.269	21066
884.395	20861
884.52	20735
884.646	20800
884.772	20739
884.897	20621
885.023	20758
885.148	20769
885.274	20762
885.399	20785
885.524	20857
885.65	20720
885.775	20819
885.9	20644
886.025	20899
886.15	20758
886.275	20663
886.4	20583
886.525	20815
886.65	20621
886.775	20530
886.9	20792
887.025	20944
887.149	20678
887.274	20507
887.399	20431
887.523	20629
887.648	20473
887.773	20473
887.897	20629
888.021	20507
888.146	20442
888.27	20537
888.395	20667
888.519	20560
888.643	20579
888.767	20473
888.891	20514
889.015	20374
889.139	20454
889.263	20408
889.387	20336
889.511	20488
889.635	20480
889.759	20347
889.883	20263
890.006	20393
890.13	20511
890.254	20206
890.377	20199
890.501	20054
890.624	20020
890.748	19978
890.871	19925
890.995	19868
891.118	19719
891.241	19978
891.364	19909
891.488	20020
891.611	19898
891.734	19944
891.857	19970
891.98	19906
892.103	20081
892.226	19837
892.349	19951
892.471	19685
892.594	19894
892.717	19936
892.839	19757
892.962	19746
893.085	19841
893.207	19769
893.33	19731
893.452	19826
893.575	19849
893.697	19841
893.819	19955
893.941	19967
894.064	19856
894.186	19643
894.308	19734
894.43	19788
894.552	19860
894.674	19944
894.796	19715
894.918	19788
895.04	19757
895.161	19887
895.283	19727
895.405	19731
895.526	19769
895.648	19875
895.769	19841
895.891	19875
896.012	19993
896.134	19818
896.255	19898
896.376	19795
896.498	19860
896.619	19807
896.74	19841
896.861	19959
896.982	20145
897.103	20320
897.224	20096
897.345	20096
897.466	20016
897.587	20024
897.708	20206
897.828	20111
897.949	20012
898.07	19928
898.19	19944
898.311	20111
898.431	19947
898.552	20145
898.672	20035
898.792	20130
898.913	20050
899.033	19925
899.153	19833
899.273	19643
899.393	19830
899.513	19791
899.633	19700
899.753	19830
899.873	19677
899.993	19734
900.113	19731
900.232	19723
900.352	19643
900.472	19666
900.591	19525
900.711	19647
900.83	19510
900.95	19719
901.069	19719
901.189	19434
901.308	19384
901.427	19225
901.546	19198
901.665	19221
901.784	19244
901.904	19027
902.023	18924
902.141	18802
902.26	18665
902.379	18913
902.498	18654
902.617	18616
902.735	18570
902.854	18623
902.973	18563
903.091	18399
903.21	18388
903.328	18323
903.446	18182
903.565	18224
903.683	18285
903.801	18034
903.919	18011
904.038	18102
904.156	17824
904.274	18045
904.392	17874
904.51	17870
904.627	17935
904.745	17790
904.863	17908
904.981	17733
905.098	17608
905.216	17532
905.334	17608
905.451	17657
905.569	17600
905.686	17554
905.803	17539
905.921	17440
906.038	17406
906.155	17440
906.272	17288
906.389	17337
906.506	17128
906.623	17064
906.74	17098
906.857	17025
906.974	16934
907.091	17102
907.208	17296
907.324	17185
907.441	16942
907.557	16847
907.674	16831
907.79	16740
907.907	16740
908.023	16805
908.139	16774
908.256	16755
908.372	16622
908.488	16717
908.604	16607
908.72	16497
908.836	16500
908.952	16592
909.068	16577
909.184	16588
909.3	16637
909.415	16607
909.531	16459
909.647	16337
909.762	16211
909.878	16223
909.993	16242
910.108	16173
910.224	16230
910.339	16219
910.454	16082
910.57	16036
910.685	15941
910.8	16246
910.915	16071
911.03	15991
911.145	15884
911.259	15808
911.374	15854
911.489	15728
911.604	15736
911.718	15481
911.833	15542
911.947	15511
912.062	15405
912.176	15561
912.291	15595
912.405	15599
912.519	15614
912.633	15759
912.748	15568
912.862	15488
912.976	15363
913.09	15348
913.204	15317
913.318	15367
913.431	15504
913.545	15469
913.659	15458
913.772	15317
913.886	15230
914	15173
914.113	15283
914.226	15321
914.34	15226
914.453	15017
914.566	15249
914.68	15039
914.793	15020
914.906	14864
915.019	14792
915.132	14811
915.245	14853
915.358	14830
915.47	14773
915.583	14807
915.696	14864
915.809	14899
915.921	14986
916.034	14804
916.146	14678
916.259	14610
916.371	14743
916.483	14754
916.595	14735
916.708	14686
916.82	14575
916.932	14568
917.044	14629
917.156	14564
917.268	14438
917.38	14454
917.491	14328
917.603	14473
917.715	14549
917.826	14571
917.938	14278
918.049	14244
918.161	14522
918.272	14533
918.384	14549
918.495	14385
918.606	14237
918.717	14199
918.828	14225
918.939	14252
919.05	14183
919.161	14267
919.272	14001
919.383	14062
919.494	14252
919.604	14450
919.715	14199
919.826	14073
919.936	14145
920.047	14259
920.157	14248
920.267	14419
920.378	14153
920.488	14081
920.598	14351
920.708	14366
920.818	14294
920.928	14275
921.038	14461
921.148	14377
921.258	14176
921.368	13967
921.477	13894
921.587	13875
921.697	13788
921.806	13932
921.916	13791
922.025	13655
922.134	13616
922.244	13483
922.353	13571
922.462	13430
922.571	13434
922.68	13293
922.789	13240
922.898	13247
923.007	13190
923.116	13179
923.224	13183
923.333	13137
923.442	13141
923.55	13008
923.659	13015
923.767	13076
923.876	13057
923.984	13084
924.092	12958
924.201	12871
924.309	12966
924.417	12947
924.525	12935
924.633	12913
924.741	13704
924.849	12612
924.956	12859
925.064	12722
925.172	12547
925.279	12635
925.387	12688
925.494	12719
925.602	12635
925.709	12738
925.816	12464
925.924	12574
926.031	12623
926.138	12570
926.245	12681
926.352	12544
926.459	12639
926.566	12722
926.673	12460
926.779	12388
926.886	12361
926.993	12266
927.099	12220
927.206	12152
927.312	12133
927.419	12292
927.525	12216
927.631	12190
927.737	12155
927.843	12148
927.95	11996
928.056	11992
928.162	12087
928.267	12045
928.373	12696
928.479	12091
928.585	11912
928.69	11923
928.796	12114
928.901	11923
929.007	11847
929.112	11961
929.218	11916
929.323	11840
929.428	11737
929.533	11859
929.638	11733
929.743	11688
929.848	11737
929.953	11748
930.058	11699
930.163	11493
930.267	11490
930.372	11592
930.477	11421
930.581	11707
930.685	11543
930.79	11383
930.894	11463
930.998	11288
931.103	11459
931.207	11136
931.311	11052
931.415	11018
931.519	10793
931.623	10698
