Data from test_V78500241_1159.txt Node
Date: Fri Mar 25 15:49:49 CST 2022
User: usil
Spectrometer: V785-0024
Trigger mode: 0
Integration Time (sec): 4.000000E-1
Scans to average: 1
Nonlinearity correction enabled: false
Boxcar width: 0
Storing dark spectrum: false
XAxis mode: Wavelengths
Number of Pixels in Spectrum: 1024
>>>>>Begin Spectral Data<<<<<
801.071	28592
801.214	28379
801.356	28398
801.499	28181
801.641	28131
801.783	28078
801.926	28051
802.068	28063
802.211	27956
802.353	27903
802.496	27759
802.638	27804
802.78	27606
802.923	27610
803.065	27610
803.208	27766
803.35	27709
803.492	27838
803.635	27869
803.777	27766
803.919	28051
804.061	28166
804.204	28059
804.346	27838
804.488	27800
804.63	27914
804.773	27785
804.915	27892
805.057	28070
805.199	28010
805.341	28215
805.483	28135
805.626	28074
805.768	28032
805.91	28074
806.052	28093
806.194	28078
806.336	28265
806.478	28284
806.62	28109
806.762	28249
806.904	28413
807.046	28831
807.188	28664
807.33	28618
807.472	28618
807.614	28500
807.756	28611
807.898	28493
808.04	28421
808.182	28432
808.324	28451
808.465	28565
808.607	28717
808.749	28774
808.891	28881
809.033	28946
809.174	28896
809.316	28660
809.458	28976
809.6	28744
809.741	28805
809.883	29102
810.025	28949
810.166	29155
810.308	29212
810.45	29102
810.591	28972
810.733	28755
810.875	28752
811.016	28675
811.158	28721
811.299	28957
811.441	29029
811.582	28987
811.724	28908
811.865	28961
812.007	28911
812.148	28854
812.29	28771
812.431	29121
812.573	29197
812.714	29296
812.855	29395
812.997	29452
813.138	29600
813.279	29379
813.421	29299
813.562	29303
813.703	29178
813.845	29151
813.986	28820
814.127	28569
814.268	28394
814.41	28611
814.551	28428
814.692	28656
814.833	28561
814.974	28478
815.115	28565
815.256	28337
815.397	28337
815.539	28390
815.68	28325
815.821	28344
815.962	28375
816.103	28318
816.244	28185
816.385	28154
816.526	28097
816.666	27953
816.807	27785
816.948	27869
817.089	27899
817.23	27968
817.371	27960
817.512	27934
817.653	27869
817.793	27857
817.934	27895
818.075	27907
818.216	27968
818.356	27899
818.497	27694
818.638	27682
818.778	27485
818.919	27549
819.06	27625
819.2	27914
819.341	27854
819.481	27838
819.622	28086
819.762	28234
819.903	28086
820.043	27983
820.184	28040
820.324	27857
820.465	27964
820.605	27960
820.746	28036
820.886	27892
821.026	27937
821.167	27991
821.307	28147
821.447	28025
821.588	27846
821.728	27778
821.868	27538
822.008	27420
822.149	27382
822.289	27340
822.429	27195
822.569	27043
822.709	27009
822.849	26872
822.99	26994
823.13	26838
823.27	26758
823.41	26648
823.55	26495
823.69	26746
823.83	26655
823.97	26617
824.11	26499
824.25	26495
824.389	26533
824.529	26636
824.669	26670
824.809	26682
824.949	26598
825.089	26651
825.228	26640
825.368	26347
825.508	26457
825.648	26191
825.787	26427
825.927	26469
826.067	26431
826.206	26415
826.346	26442
826.485	26533
826.625	26126
826.765	26499
826.904	26507
827.044	26183
827.183	26206
827.323	26012
827.462	26088
827.601	26138
827.741	26031
827.88	26130
828.02	25883
828.159	26077
828.298	26126
828.437	26027
828.577	25982
828.716	26134
828.855	25898
828.994	25818
829.134	25951
829.273	25906
829.412	25670
829.551	25864
829.69	25742
829.829	25772
829.968	25864
830.107	25769
830.246	25784
830.385	25704
830.524	25552
830.663	25761
830.802	25464
830.941	25377
831.08	25373
831.219	25415
831.357	25552
831.496	25556
831.635	25472
831.774	25339
831.913	25263
832.051	25122
832.19	25133
832.329	25183
832.467	24966
832.606	25053
832.744	24981
832.883	25015
833.022	24996
833.16	25042
833.299	25031
833.437	25110
833.576	25164
833.714	25133
833.852	25179
833.991	25270
834.129	25213
834.267	25217
834.406	25141
834.544	25206
834.682	25118
834.821	25103
834.959	25282
835.097	25076
835.235	25168
835.373	25126
835.511	25148
835.65	25050
835.788	25034
835.926	24932
836.064	24734
836.202	24779
836.34	24966
836.478	25072
836.615	24943
836.753	24962
836.891	25019
837.029	24897
837.167	24920
837.305	24741
837.443	24875
837.58	24741
837.718	24878
837.856	24783
837.993	24802
838.131	24745
838.269	24749
838.406	24635
838.544	24597
838.681	24391
838.819	24391
838.956	24209
839.094	24270
839.231	24239
839.369	24414
839.506	24589
839.643	24521
839.781	24311
839.918	24251
840.055	24327
840.193	24171
840.33	24178
840.467	24178
840.604	24174
840.742	24380
840.879	24057
841.016	24068
841.153	24083
841.29	24281
841.427	24174
841.564	24079
841.701	24098
841.838	24174
841.975	23942
842.112	23942
842.249	24015
842.385	23927
842.522	24174
842.659	23908
842.796	23901
842.933	23802
843.069	23866
843.206	23821
843.343	24015
843.479	23912
843.616	23824
843.752	23680
843.889	23649
844.025	23817
844.162	23467
844.298	23775
844.435	23695
844.571	23581
844.708	23733
844.844	23817
844.98	23870
845.117	23737
845.253	23638
845.389	23509
845.525	23558
845.661	23619
845.798	23436
845.934	23486
846.07	23402
846.206	23280
846.342	23608
846.478	23334
846.614	23090
846.75	23159
846.886	23067
847.022	23189
847.158	23083
847.294	23098
847.429	23128
847.565	23166
847.701	23414
847.837	22797
847.972	22740
848.108	22942
848.244	22980
848.379	22725
848.515	22660
848.65	22691
848.786	22691
848.921	22573
849.057	22809
849.192	22733
849.328	22793
849.463	22698
849.598	22683
849.734	22637
849.869	22580
850.004	22443
850.14	22421
850.275	22402
850.41	22386
850.545	22367
850.68	22379
850.815	22466
850.95	22413
851.085	22656
851.22	22706
851.355	22615
851.49	22386
851.625	22409
851.76	22542
851.895	22451
852.03	22417
852.165	22516
852.299	22474
852.434	22470
852.569	22603
852.703	22447
852.838	22580
852.973	22588
853.107	22645
853.242	22440
853.376	22318
853.511	22238
853.645	22162
853.78	22402
853.914	22436
854.048	22310
854.183	22295
854.317	22272
854.451	22474
854.585	22341
854.72	22188
854.854	22310
854.988	22253
855.122	22238
855.256	22246
855.39	22257
855.524	22272
855.658	22318
855.792	22147
855.926	22443
856.06	22367
856.194	22360
856.327	22303
856.461	22249
856.595	22310
856.729	22242
856.862	22405
856.996	22325
857.13	22390
857.263	22352
857.397	22363
857.53	22284
857.664	22436
857.797	22341
857.931	22421
858.064	22413
858.197	22436
858.331	22329
858.464	22242
858.597	22219
858.731	22322
858.864	22200
858.997	22253
859.13	22276
859.263	22348
859.396	22299
859.529	22318
859.662	22173
859.795	22318
859.928	22299
860.061	22421
860.194	22451
860.327	22276
860.46	22268
860.592	22478
860.725	22440
860.858	22348
860.99	22348
861.123	22188
861.256	22230
861.388	22287
861.521	22889
861.653	22211
861.786	22128
861.918	21956
862.05	22192
862.183	22253
862.315	22253
862.447	22226
862.58	22230
862.712	22090
862.844	21934
862.976	22162
863.108	22078
863.24	22478
863.372	21918
863.504	22002
863.636	21934
863.768	21994
863.9	22120
864.032	21941
864.164	21994
864.296	21968
864.428	22040
864.559	22040
864.691	22093
864.823	21968
864.954	22002
865.086	21987
865.217	21934
865.349	21816
865.48	21895
865.612	21937
865.743	22044
865.875	21983
866.006	21827
866.137	21930
866.269	21861
866.4	21880
866.531	21762
866.662	21808
866.793	21724
866.924	21804
867.055	21850
867.186	21789
867.317	21804
867.448	21895
867.579	21713
867.71	21831
867.841	21747
867.972	21869
868.103	21736
868.233	21922
868.364	21842
868.495	21888
868.625	22051
868.756	22219
868.886	21987
869.017	22044
869.147	22051
869.278	22192
869.408	22105
869.539	22086
869.669	22032
869.799	22154
869.929	22166
870.06	22158
870.19	22493
870.32	22325
870.45	22466
870.58	22561
870.71	22698
870.84	22485
870.97	22424
871.1	22443
871.23	22542
871.36	22618
871.489	22649
871.619	22565
871.749	22694
871.879	22691
872.008	22702
872.138	22603
872.267	22596
872.397	22603
872.526	22493
872.656	22519
872.785	22447
872.915	22599
873.044	22721
873.173	22622
873.303	22763
873.432	22679
873.561	22774
873.69	22733
873.819	22607
873.948	22721
874.077	22687
874.206	22538
874.335	22645
874.464	22622
874.593	22923
874.722	22858
874.851	22809
874.979	22911
875.108	22873
875.237	22831
875.365	22858
875.494	22805
875.623	22968
875.751	22786
875.88	22942
876.008	22923
876.136	22991
876.265	23299
876.393	23406
876.521	23299
876.65	23379
876.778	23322
876.906	23208
877.034	23204
877.162	23235
877.29	23132
877.418	23250
877.546	23216
877.674	23242
877.802	23143
877.93	23136
878.058	23239
878.185	23121
878.313	23132
878.441	23326
878.568	23018
878.696	23132
878.824	23166
878.951	23337
879.079	23425
879.206	23482
879.333	23364
879.461	23269
879.588	23330
879.715	23448
879.842	23417
879.97	23178
880.097	23117
880.224	23132
880.351	23155
880.478	23067
880.605	23006
880.732	22999
880.859	23376
880.986	23075
881.112	23010
881.239	22831
881.366	22748
881.493	22782
881.619	22634
881.746	22554
881.872	22622
881.999	22634
882.125	22580
882.252	22561
882.378	22573
882.505	22668
882.631	22375
882.757	22337
882.883	22409
883.01	22242
883.136	22181
883.262	22303
883.388	22067
883.514	22284
883.64	22386
883.766	22394
883.892	22051
884.018	22090
884.143	22169
884.269	22272
884.395	21998
884.52	21918
884.646	22044
884.772	21736
884.897	21800
885.023	21953
885.148	21945
885.274	22090
885.399	21937
885.524	21918
885.65	21945
885.775	21956
885.9	21915
886.025	22135
886.15	21915
886.275	21941
886.4	21755
886.525	21827
886.65	21835
886.775	21915
886.9	22021
887.025	22093
887.149	21880
887.274	21675
887.399	21774
887.523	21557
887.648	21622
887.773	21504
887.897	21709
888.021	21724
888.146	21587
888.27	21778
888.395	21884
888.519	21766
888.643	21603
888.767	21743
888.891	21641
889.015	21526
889.139	21462
889.263	21389
889.387	21583
889.511	21644
889.635	21603
889.759	21488
889.883	21405
890.006	21488
890.13	21595
890.254	21408
890.377	21325
890.501	21264
890.624	21203
890.748	21218
890.871	21169
890.995	20971
891.118	20918
891.241	21020
891.364	20982
891.488	21096
891.611	20971
891.734	20963
891.857	21096
891.98	20944
892.103	21058
892.226	21074
892.349	20887
892.471	20872
892.594	20971
892.717	20948
892.839	20956
892.962	20937
893.085	21032
893.207	20815
893.33	20792
893.452	20777
893.575	21062
893.697	20788
893.819	20948
893.941	21089
894.064	21169
894.186	20819
894.308	20758
894.43	21028
894.552	21051
894.674	21032
894.796	20804
894.918	20750
895.04	20895
895.161	20967
895.283	21020
895.405	20819
895.526	20941
895.648	20823
895.769	20876
895.891	20902
896.012	20998
896.134	20982
896.255	20838
896.376	20872
896.498	20933
896.619	20982
896.74	20933
896.861	20891
896.982	21165
897.103	21336
897.224	21119
897.345	21066
897.466	20994
897.587	21032
897.708	21268
897.828	21260
897.949	21055
898.07	21017
898.19	21028
898.311	21207
898.431	20994
898.552	21085
898.672	21157
898.792	21222
898.913	21131
899.033	20982
899.153	20830
899.273	20800
899.393	20887
899.513	20849
899.633	20716
899.753	20830
899.873	20648
899.993	20792
900.113	20804
900.232	20883
900.352	20754
900.472	20549
900.591	20545
900.711	20602
900.83	20488
900.95	20769
901.069	20659
901.189	20412
901.308	20339
901.427	20244
901.546	20172
901.665	20176
901.784	20119
901.904	20027
902.023	19928
902.141	19780
902.26	19674
902.379	19780
902.498	19742
902.617	19559
902.735	19727
902.854	19616
902.973	19666
903.091	19396
903.21	19381
903.328	19335
903.446	19285
903.565	19126
903.683	19099
903.801	19023
903.919	19076
904.038	19095
904.156	18802
904.274	19015
904.392	18916
904.51	18871
904.627	18863
904.745	18962
904.863	18932
904.981	18734
905.098	18574
905.216	18536
905.334	18597
905.451	18616
905.569	18570
905.686	18498
905.803	18646
905.921	18311
906.038	18433
906.155	18327
906.272	18289
906.389	18361
906.506	18102
906.623	18053
906.74	18030
906.857	18022
906.974	18049
907.091	18148
907.208	18174
907.324	18121
907.441	17923
907.557	17840
907.674	17920
907.79	17764
907.907	17813
908.023	17885
908.139	17809
908.256	17733
908.372	17649
908.488	17767
908.604	17646
908.72	17482
908.836	17554
908.952	17478
909.068	17493
909.184	17619
909.3	17459
909.415	17585
909.531	17436
909.647	17216
909.762	17193
909.878	17189
909.993	17208
910.108	17223
910.224	17124
910.339	17159
910.454	16946
910.57	16976
910.685	16991
910.8	17223
910.915	17151
911.03	17037
911.145	16805
911.259	16828
911.374	16790
911.489	16691
911.604	16793
911.718	16527
911.833	16542
911.947	16485
912.062	16409
912.176	16508
912.291	16599
912.405	16626
912.519	16691
912.633	16809
912.748	16599
912.862	16474
912.976	16341
913.09	16242
913.204	16299
913.318	16348
913.431	16398
913.545	16413
913.659	16443
913.772	16310
913.886	16223
914	16166
914.113	16246
914.226	16188
914.34	16082
914.453	16078
914.566	16169
914.68	16044
914.793	15941
914.906	15915
915.019	15705
915.132	15633
915.245	15751
915.358	15724
915.47	15713
915.583	15663
915.696	15675
915.809	15781
915.921	15812
916.034	15652
916.146	15736
916.259	15591
916.371	15686
916.483	15675
916.595	15485
916.708	15488
916.82	15564
916.932	15504
917.044	15485
917.156	15492
917.268	15424
917.38	15382
917.491	15359
917.603	15420
917.715	15405
917.826	15466
917.938	15275
918.049	15272
918.161	15241
918.272	15401
918.384	15336
918.495	15275
918.606	15135
918.717	15188
918.828	15131
918.939	15131
919.05	15005
919.161	15100
919.272	14971
919.383	14929
919.494	15199
919.604	15344
919.715	15119
919.826	15055
919.936	15051
920.047	15089
920.157	15093
920.267	15310
920.378	15062
920.488	15051
920.598	15211
920.708	15275
920.818	15154
920.928	15089
921.038	15336
921.148	15325
921.258	14975
921.368	14861
921.477	14686
921.587	14792
921.697	14693
921.806	14701
921.916	14590
922.025	14381
922.134	14415
922.244	14377
922.353	14366
922.462	14332
922.571	14199
922.68	14115
922.789	14096
922.898	13982
923.007	13963
923.116	14065
923.224	13963
923.333	14054
923.442	13890
923.55	13814
923.659	13875
923.767	13894
923.876	13830
923.984	13875
924.092	13780
924.201	13883
924.309	13723
924.417	13765
924.525	13624
924.633	13772
924.741	14431
924.849	13510
924.956	13674
925.064	13491
925.172	13339
925.279	13373
925.387	13430
925.494	13502
925.602	13575
925.709	13411
925.816	13354
925.924	13339
926.031	13415
926.138	13445
926.245	13441
926.352	13327
926.459	13339
926.566	13377
926.673	13308
926.779	13221
926.886	13149
926.993	12981
927.099	13091
927.206	12897
927.312	12932
927.419	13050
927.525	12981
927.631	12973
927.737	12981
927.843	12909
927.95	12688
928.056	12768
928.162	12776
928.267	12878
928.373	13396
928.479	12909
928.585	12688
928.69	12726
928.796	12806
928.901	12684
929.007	12437
929.112	12677
929.218	12692
929.323	12525
929.428	12502
929.533	12669
929.638	12494
929.743	12509
929.848	12528
929.953	12471
930.058	12395
930.163	12216
930.267	12247
930.372	12391
930.477	12129
930.581	12395
930.685	12235
930.79	12011
930.894	12095
930.998	12038
931.103	12175
931.207	11798
931.311	11680
931.415	11638
931.519	11402
931.623	11444
