Data from test_V78500241_382.txt Node
Date: Fri Mar 25 15:44:26 CST 2022
User: usil
Spectrometer: V785-0024
Trigger mode: 0
Integration Time (sec): 4.000000E-1
Scans to average: 1
Nonlinearity correction enabled: false
Boxcar width: 0
Storing dark spectrum: false
XAxis mode: Wavelengths
Number of Pixels in Spectrum: 1024
>>>>>Begin Spectral Data<<<<<
801.071	29729
801.214	29627
801.356	29318
801.499	29299
801.641	29132
801.783	29220
801.926	29311
802.068	29254
802.211	29014
802.353	29067
802.496	28927
802.638	28797
802.78	28885
802.923	28759
803.065	28843
803.208	28987
803.35	28908
803.492	29006
803.635	28938
803.777	28911
803.919	29102
804.061	29364
804.204	28991
804.346	28984
804.488	29044
804.63	29113
804.773	28968
804.915	29170
805.057	29132
805.199	28995
805.341	28984
805.483	29159
805.626	29132
805.768	29079
805.91	29292
806.052	29258
806.194	29094
806.336	29311
806.478	29315
806.62	29151
806.762	29258
806.904	29459
807.046	29676
807.188	29649
807.33	29615
807.472	29562
807.614	29577
807.756	29592
807.898	29463
808.04	29292
808.182	29391
808.324	29402
808.465	29474
808.607	29592
808.749	29756
808.891	29737
809.033	30057
809.174	30072
809.316	29927
809.458	29923
809.6	29733
809.741	29851
809.883	29996
810.025	30129
810.166	30083
810.308	30038
810.45	30057
810.591	30011
810.733	29878
810.875	29897
811.016	29817
811.158	29817
811.299	29912
811.441	30155
811.582	30076
811.724	29798
811.865	29798
812.007	29832
812.148	29828
812.29	29874
812.431	29939
812.573	30171
812.714	30197
812.855	30315
812.997	30574
813.138	30547
813.279	30403
813.421	30502
813.562	30349
813.703	30114
813.845	30064
813.986	29646
814.127	29638
814.268	29558
814.41	29566
814.551	29448
814.692	29577
814.833	29277
814.974	29501
815.115	29646
815.256	29512
815.397	29452
815.539	29421
815.68	29341
815.821	29239
815.962	29109
816.103	29398
816.244	29124
816.385	29067
816.526	29216
816.666	28896
816.807	28805
816.948	28919
817.089	28968
817.23	28778
817.371	28637
817.512	28987
817.653	28839
817.793	28668
817.934	28793
818.075	28740
818.216	28679
818.356	28767
818.497	28713
818.638	28588
818.778	28538
818.919	28455
819.06	28611
819.2	28527
819.341	28656
819.481	28759
819.622	28915
819.762	29098
819.903	28968
820.043	28877
820.184	28869
820.324	28843
820.465	28831
820.605	28892
820.746	28774
820.886	28740
821.026	28908
821.167	28847
821.307	28797
821.447	28763
821.588	28580
821.728	28382
821.868	28428
822.008	28128
822.149	28177
822.289	28242
822.429	27960
822.569	27899
822.709	27884
822.849	27660
822.99	27606
823.13	27610
823.27	27576
823.41	27469
823.55	27370
823.69	27420
823.83	27519
823.97	27378
824.11	27237
824.25	27161
824.389	27336
824.529	27348
824.669	27355
824.809	27526
824.949	27386
825.089	27416
825.228	27241
825.368	27131
825.508	27100
825.648	27146
825.787	27104
825.927	27207
826.067	27199
826.206	27074
826.346	27192
826.485	27256
826.625	27260
826.765	27157
826.904	27096
827.044	26880
827.183	26883
827.323	26880
827.462	26891
827.601	26880
827.741	26811
827.88	26701
828.02	26552
828.159	26701
828.298	26785
828.437	26842
828.577	26743
828.716	26830
828.855	26682
828.994	26579
829.134	26530
829.273	26602
829.412	26423
829.551	26324
829.69	26415
829.829	26495
829.968	26514
830.107	26507
830.246	26507
830.385	26457
830.524	26396
830.663	26305
830.802	26100
830.941	26039
831.08	26027
831.219	26233
831.357	26043
831.496	26263
831.635	25970
831.774	26088
831.913	26005
832.051	25826
832.19	25753
832.329	25811
832.467	25811
832.606	25757
832.744	25776
832.883	25776
833.022	25776
833.16	25643
833.299	25666
833.437	25731
833.576	25674
833.714	25765
833.852	25868
833.991	25818
834.129	25906
834.267	25917
834.406	25704
834.544	25807
834.682	25738
834.821	25601
834.959	25925
835.097	25814
835.235	25693
835.373	25502
835.511	25719
835.65	25556
835.788	25635
835.926	25457
836.064	25335
836.202	25460
836.34	25552
836.478	25662
836.615	25476
836.753	25544
836.891	25510
837.029	25556
837.167	25365
837.305	25510
837.443	25301
837.58	25335
837.718	25388
837.856	25369
837.993	25179
838.131	25396
838.269	25320
838.406	25301
838.544	25217
838.681	24977
838.819	24935
838.956	24798
839.094	24681
839.231	24741
839.369	24939
839.506	25171
839.643	24894
839.781	24875
839.918	24738
840.055	24757
840.193	24642
840.33	24677
840.467	24734
840.604	24760
840.742	24992
840.879	24658
841.016	24563
841.153	24597
841.29	24726
841.427	24513
841.564	24688
841.701	24719
841.838	24620
841.975	24574
842.112	24521
842.249	24547
842.385	24338
842.522	24604
842.659	24631
842.796	24410
842.933	24410
843.069	24388
843.206	24174
843.343	24338
843.479	24483
843.616	24460
843.752	24064
843.889	24053
844.025	24178
844.162	24087
844.298	24159
844.435	24174
844.571	24117
844.708	24136
844.844	24228
844.98	24220
845.117	24186
845.253	24038
845.389	23965
845.525	23935
845.661	23874
845.798	23847
845.934	23920
846.07	23809
846.206	23882
846.342	23908
846.478	23847
846.614	23638
846.75	23528
846.886	23634
847.022	23570
847.158	23516
847.294	23573
847.429	23577
847.565	23520
847.701	23691
847.837	23223
847.972	23140
848.108	23315
848.244	23341
848.379	23258
848.515	23208
848.65	23083
848.786	23166
848.921	23136
849.057	23208
849.192	23200
849.328	23064
849.463	22991
849.598	23121
849.734	22927
849.869	22965
850.004	22759
850.14	22850
850.275	22892
850.41	22847
850.545	22858
850.68	22778
850.815	22816
850.95	22934
851.085	22953
851.22	22953
851.355	22847
851.49	22843
851.625	22828
851.76	22786
851.895	22809
852.03	22721
852.165	22881
852.299	22801
852.434	22987
852.569	22824
852.703	22892
852.838	22957
852.973	22972
853.107	22923
853.242	22869
853.376	22618
853.511	22569
853.645	22519
853.78	22778
853.914	22584
854.048	22607
854.183	22569
854.317	22733
854.451	22869
854.585	22721
854.72	22710
854.854	22729
854.988	22615
855.122	22535
855.256	22474
855.39	22603
855.524	22717
855.658	22523
855.792	22641
855.926	22637
856.06	22702
856.194	22721
856.327	22580
856.461	22462
856.595	22504
856.729	22584
856.862	22824
856.996	22759
857.13	22740
857.263	22816
857.397	22694
857.53	22592
857.664	22641
857.797	22713
857.931	22675
858.064	22561
858.197	22675
858.331	22645
858.464	22508
858.597	22470
858.731	22565
858.864	22717
858.997	22489
859.13	22607
859.263	22626
859.396	22664
859.529	22573
859.662	22611
859.795	22569
859.928	22554
860.061	22702
860.194	22763
860.327	22634
860.46	22721
860.592	22573
860.725	22706
860.858	22713
860.99	22622
861.123	22512
861.256	22519
861.388	22554
861.521	23284
861.653	22542
861.786	22303
861.918	22447
862.05	22554
862.183	22470
862.315	22630
862.447	22573
862.58	22588
862.712	22268
862.844	22223
862.976	22295
863.108	22413
863.24	22725
863.372	22158
863.504	22325
863.636	22181
863.768	22287
863.9	22318
864.032	22185
864.164	22242
864.296	22265
864.428	22329
864.559	22230
864.691	22272
864.823	22352
864.954	22344
865.086	22265
865.217	22215
865.349	22124
865.48	22257
865.612	22249
865.743	22234
865.875	22299
866.006	22150
866.137	22188
866.269	22101
866.4	22078
866.531	21994
866.662	22059
866.793	22204
866.924	22147
867.055	22120
867.186	22090
867.317	22055
867.448	22032
867.579	21964
867.71	22078
867.841	22070
867.972	22128
868.103	22078
868.233	21953
868.364	22097
868.495	22166
868.625	22303
868.756	22356
868.886	22295
869.017	22306
869.147	22375
869.278	22455
869.408	22356
869.539	22276
869.669	22405
869.799	22325
869.929	22382
870.06	22325
870.19	22580
870.32	22649
870.45	22649
870.58	22603
870.71	22729
870.84	22908
870.97	22702
871.1	22668
871.23	22854
871.36	22991
871.489	22904
871.619	22915
871.749	22904
871.879	22797
872.008	22968
872.138	22866
872.267	22942
872.397	22778
872.526	22702
872.656	22687
872.785	22786
872.915	22790
873.044	23102
873.173	22930
873.303	22965
873.432	23018
873.561	23006
873.69	23033
873.819	22896
873.948	23094
874.077	22965
874.206	22801
874.335	23029
874.464	22896
874.593	23200
874.722	23094
874.851	23086
874.979	22968
875.108	23303
875.237	23090
875.365	23079
875.494	23102
875.623	23239
875.751	23109
875.88	23208
876.008	23212
876.136	23212
876.265	23410
876.393	23589
876.521	23573
876.65	23531
876.778	23478
876.906	23471
877.034	23417
877.162	23391
877.29	23414
877.418	23535
877.546	23471
877.674	23376
877.802	23539
877.93	23478
878.058	23368
878.185	23296
878.313	23433
878.441	23436
878.568	23417
878.696	23341
878.824	23509
878.951	23463
879.079	23615
879.206	23741
879.333	23653
879.461	23360
879.588	23623
879.715	23699
879.842	23653
879.97	23463
880.097	23356
880.224	23330
880.351	23440
880.478	23254
880.605	23315
880.732	23284
880.859	23554
880.986	23326
881.112	23239
881.239	23067
881.366	23041
881.493	22908
881.619	22900
881.746	22923
881.872	22866
881.999	22733
882.125	22957
882.252	22908
882.378	22854
882.505	22957
882.631	22797
882.757	22615
882.883	22573
883.01	22557
883.136	22478
883.262	22485
883.388	22398
883.514	22531
883.64	22596
883.766	22413
883.892	22200
884.018	22451
884.143	22504
884.269	22565
884.395	22280
884.52	22204
884.646	22329
884.772	22055
884.897	21975
885.023	22166
885.148	22200
885.274	22318
885.399	22246
885.524	22109
885.65	22120
885.775	22093
885.9	22021
886.025	22219
886.15	22196
886.275	22234
886.4	21934
886.525	22086
886.65	21991
886.775	22086
886.9	22200
887.025	22421
887.149	22124
887.274	22013
887.399	21911
887.523	21892
887.648	21850
887.773	21869
887.897	21926
888.021	21895
888.146	21922
888.27	21941
888.395	21915
888.519	22070
888.643	21975
888.767	22013
888.891	21816
889.015	21686
889.139	21751
889.263	21652
889.387	21884
889.511	21968
889.635	21759
889.759	21686
889.883	21583
890.006	21652
890.13	21656
890.254	21515
890.377	21583
890.501	21553
890.624	21302
890.748	21321
890.871	21367
890.995	21188
891.118	21203
891.241	21260
891.364	21348
891.488	21268
891.611	21237
891.734	21397
891.857	21279
891.98	21195
892.103	21454
892.226	21116
892.349	21226
892.471	21047
892.594	21188
892.717	21245
892.839	21020
892.962	21195
893.085	21306
893.207	21062
893.33	21055
893.452	21066
893.575	21135
893.697	21135
893.819	21336
893.941	21378
894.064	21351
894.186	21047
894.308	20914
894.43	21176
894.552	21283
894.674	21260
894.796	21051
894.918	21203
895.04	21055
895.161	21226
895.283	21188
895.405	20986
895.526	21047
895.648	21169
895.769	21195
895.891	21192
896.012	21233
896.134	21241
896.255	21131
896.376	21123
896.498	21138
896.619	21184
896.74	21252
896.861	21195
896.982	21538
897.103	21549
897.224	21435
897.345	21481
897.466	21424
897.587	21302
897.708	21481
897.828	21367
897.949	21283
898.07	21195
898.19	21272
898.311	21500
898.431	21275
898.552	21245
898.672	21477
898.792	21386
898.913	21275
899.033	21279
899.153	21165
899.273	21047
899.393	21039
899.513	21074
899.633	21100
899.753	21051
899.873	21001
899.993	21017
900.113	20910
900.232	21024
900.352	20967
900.472	20830
900.591	20720
900.711	20883
900.83	20811
900.95	20864
901.069	20891
901.189	20598
901.308	20393
901.427	20385
901.546	20389
901.665	20473
901.784	20408
901.904	20328
902.023	20157
902.141	19986
902.26	20020
902.379	19898
902.498	19944
902.617	19887
902.735	19917
902.854	19856
902.973	19689
903.091	19571
903.21	19537
903.328	19438
903.446	19415
903.565	19392
903.683	19369
903.801	19232
903.919	19259
904.038	19263
904.156	19168
904.274	19236
904.392	19038
904.51	19034
904.627	19126
904.745	19247
904.863	19114
904.981	18928
905.098	18722
905.216	18753
905.334	18753
905.451	18745
905.569	18833
905.686	18779
905.803	18745
905.921	18532
906.038	18669
906.155	18642
906.272	18445
906.389	18380
906.506	18273
906.623	18315
906.74	18247
906.857	18076
906.974	18213
907.091	18426
907.208	18357
907.324	18300
907.441	18201
907.557	18022
907.674	18022
907.79	17885
907.907	17923
908.023	17904
908.139	17897
908.256	17767
908.372	17840
908.488	17764
908.604	17646
908.72	17657
908.836	17691
908.952	17684
909.068	17611
909.184	17646
909.3	17604
909.415	17547
909.531	17592
909.647	17345
909.762	17436
909.878	17372
909.993	17448
910.108	17235
910.224	17212
910.339	17235
910.454	17151
910.57	17117
910.685	17121
910.8	17299
910.915	17292
911.03	17166
911.145	16965
911.259	16889
911.374	16889
911.489	16885
911.604	16839
911.718	16527
911.833	16683
911.947	16558
912.062	16550
912.176	16550
912.291	16740
912.405	16641
912.519	16782
912.633	16854
912.748	16736
912.862	16664
912.976	16382
913.09	16322
913.204	16405
913.318	16455
913.431	16493
913.545	16519
913.659	16577
913.772	16382
913.886	16204
914	16291
914.113	16367
914.226	16398
914.34	16234
914.453	16029
914.566	16196
914.68	16021
914.793	16162
914.906	15838
915.019	15835
915.132	15797
915.245	15854
915.358	15918
915.47	15888
915.583	15831
915.696	15804
915.809	15903
915.921	15964
916.034	15819
916.146	15789
916.259	15709
916.371	15762
916.483	15743
916.595	15656
916.708	15637
916.82	15648
916.932	15515
917.044	15686
917.156	15584
917.268	15431
917.38	15431
917.491	15450
917.603	15454
917.715	15450
917.826	15568
917.938	15279
918.049	15214
918.161	15351
918.272	15538
918.384	15511
918.495	15344
918.606	15199
918.717	15211
918.828	15195
918.939	15310
919.05	15089
919.161	15237
919.272	14967
919.383	15077
919.494	15169
919.604	15348
919.715	15112
919.826	15009
919.936	15013
920.047	15245
920.157	15108
920.267	15249
920.378	15066
920.488	15055
920.598	15291
920.708	15416
920.818	15260
920.928	15199
921.038	15397
921.148	15359
921.258	15001
921.368	14925
921.477	14971
921.587	14807
921.697	14689
921.806	14788
921.916	14674
922.025	14648
922.134	14450
922.244	14461
922.353	14431
922.462	14385
922.571	14336
922.68	14221
922.789	14111
922.898	14130
923.007	14081
923.116	14107
923.224	14088
923.333	14081
923.442	13989
923.55	13875
923.659	13860
923.767	14016
923.876	13864
923.984	13959
924.092	13757
924.201	13890
924.309	13902
924.417	13879
924.525	13788
924.633	13753
924.741	14648
924.849	13639
924.956	13670
925.064	13609
925.172	13434
925.279	13529
925.387	13468
925.494	13491
925.602	13666
925.709	13594
925.816	13392
925.924	13320
926.031	13563
926.138	13449
926.245	13480
926.352	13316
926.459	13419
926.566	13464
926.673	13426
926.779	13255
926.886	13198
926.993	12977
927.099	12932
927.206	12932
927.312	13008
927.419	13156
927.525	13065
927.631	13080
927.737	12890
927.843	12840
927.95	12764
928.056	12837
928.162	12894
928.267	12932
928.373	13552
928.479	12905
928.585	12692
928.69	12772
928.796	12829
928.901	12654
929.007	12597
929.112	12650
929.218	12703
929.323	12627
929.428	12517
929.533	12707
929.638	12521
929.743	12369
929.848	12597
929.953	12452
930.058	12311
930.163	12273
930.267	12224
930.372	12395
930.477	12205
930.581	12506
930.685	12254
930.79	12095
930.894	12079
930.998	12034
931.103	12266
931.207	11828
931.311	11722
931.415	11714
931.519	11455
931.623	11467
