Data from test_V78500241_798.txt Node
Date: Fri Mar 25 15:47:19 CST 2022
User: usil
Spectrometer: V785-0024
Trigger mode: 0
Integration Time (sec): 4.000000E-1
Scans to average: 1
Nonlinearity correction enabled: false
Boxcar width: 0
Storing dark spectrum: false
XAxis mode: Wavelengths
Number of Pixels in Spectrum: 1024
>>>>>Begin Spectral Data<<<<<
801.071	27987
801.214	27869
801.356	27648
801.499	27629
801.641	27447
801.783	27412
801.926	27466
802.068	27488
802.211	27386
802.353	27203
802.496	27081
802.638	27043
802.78	27108
802.923	26937
803.065	27146
803.208	27089
803.35	27032
803.492	27230
803.635	27237
803.777	27233
803.919	27325
804.061	27591
804.204	27355
804.346	27176
804.488	27188
804.63	27294
804.773	27176
804.915	27348
805.057	27462
805.199	27268
805.341	27515
805.483	27447
805.626	27652
805.768	27310
805.91	27310
806.052	27298
806.194	27294
806.336	27504
806.478	27530
806.62	27473
806.762	27534
806.904	27732
807.046	27964
807.188	27899
807.33	27812
807.472	27911
807.614	27774
807.756	27827
807.898	27755
808.04	27633
808.182	27603
808.324	27755
808.465	27766
808.607	27945
808.749	28101
808.891	28204
809.033	28306
809.174	28223
809.316	28101
809.458	28025
809.6	28040
809.741	28280
809.883	28333
810.025	28516
810.166	28341
810.308	28409
810.45	28314
810.591	28185
810.733	28093
810.875	28029
811.016	27949
811.158	28013
811.299	28154
811.441	28318
811.582	28306
811.724	28162
811.865	28158
812.007	27998
812.148	28181
812.29	28166
812.431	28371
812.573	28462
812.714	28557
812.855	28596
812.997	28626
813.138	28820
813.279	28744
813.421	28573
813.562	28295
813.703	28550
813.845	28344
813.986	28055
814.127	27907
814.268	27717
814.41	27812
814.551	27762
814.692	27747
814.833	27641
814.974	27660
815.115	27728
815.256	27606
815.397	27549
815.539	27705
815.68	27599
815.821	27466
815.962	27549
816.103	27367
816.244	27504
816.385	27386
816.526	27435
816.666	27176
816.807	27020
816.948	27108
817.089	27226
817.23	27207
817.371	27123
817.512	27096
817.653	27085
817.793	27066
817.934	27013
818.075	27116
818.216	27074
818.356	27104
818.497	26918
818.638	26834
818.778	26785
818.919	26849
819.06	26891
819.2	27100
819.341	26979
819.481	27009
819.622	27180
819.762	27439
819.903	27313
820.043	27188
820.184	27108
820.324	27123
820.465	27245
820.605	27222
820.746	27146
820.886	27096
821.026	27310
821.167	27340
821.307	27264
821.447	27036
821.588	27009
821.728	26804
821.868	26754
822.008	26545
822.149	26480
822.289	26514
822.429	26332
822.569	26187
822.709	26328
822.849	26168
822.99	25966
823.13	25940
823.27	25921
823.41	25932
823.55	25753
823.69	25932
823.83	25944
823.97	25742
824.11	25753
824.25	25639
824.389	25799
824.529	25795
824.669	25712
824.809	25807
824.949	25845
825.089	25871
825.228	25742
825.368	25586
825.508	25556
825.648	25540
825.787	25632
825.927	25586
826.067	25491
826.206	25594
826.346	25571
826.485	25620
826.625	25582
826.765	25719
826.904	25670
827.044	25282
827.183	25377
827.323	25422
827.462	25320
827.601	25308
827.741	25331
827.88	25362
828.02	25236
828.159	25312
828.298	25270
828.437	25297
828.577	25312
828.716	25365
828.855	25114
828.994	24840
829.134	25000
829.273	25107
829.412	24973
829.551	25023
829.69	24996
829.829	24989
829.968	25019
830.107	25019
830.246	24966
830.385	24875
830.524	24909
830.663	24776
830.802	24703
830.941	24684
831.08	24479
831.219	24715
831.357	24783
831.496	24844
831.635	24673
831.774	24593
831.913	24410
832.051	24376
832.19	24346
832.329	24399
832.467	24205
832.606	24289
832.744	24136
832.883	24174
833.022	24167
833.16	24365
833.299	24281
833.437	24190
833.576	24224
833.714	24338
833.852	24399
833.991	24486
834.129	24300
834.267	24395
834.406	24308
834.544	24289
834.682	24273
834.821	24224
834.959	24433
835.097	24209
835.235	24475
835.373	24346
835.511	24338
835.65	24171
835.788	24136
835.926	24049
836.064	24022
836.202	24049
836.34	24178
836.478	24258
836.615	24057
836.753	24197
836.891	24304
837.029	24136
837.167	24102
837.305	24022
837.443	24045
837.58	23954
837.718	24106
837.856	24121
837.993	23996
838.131	23885
838.269	23836
838.406	24068
838.544	23916
838.681	23604
838.819	23608
838.956	23395
839.094	23436
839.231	23402
839.369	23676
839.506	23828
839.643	23714
839.781	23497
839.918	23452
840.055	23414
840.193	23433
840.33	23406
840.467	23326
840.604	23444
840.742	23630
840.879	23265
841.016	23436
841.153	23231
841.29	23421
841.427	23330
841.564	23337
841.701	23345
841.838	23303
841.975	23242
842.112	23227
842.249	23265
842.385	23239
842.522	23337
842.659	23147
842.796	23109
842.933	23083
843.069	23033
843.206	23067
843.343	23261
843.479	23083
843.616	23067
843.752	22828
843.889	22927
844.025	23102
844.162	22831
844.298	22930
844.435	22946
844.571	22957
844.708	22782
844.844	23162
844.98	23006
845.117	22987
845.253	22752
845.389	22809
845.525	22866
845.661	22721
845.798	22687
845.934	22687
846.07	22611
846.206	22584
846.342	22706
846.478	22599
846.614	22519
846.75	22261
846.886	22352
847.022	22443
847.158	22314
847.294	22436
847.429	22398
847.565	22238
847.701	22611
847.837	22101
847.972	22090
848.108	22253
848.244	22196
848.379	22120
848.515	21972
848.65	21998
848.786	22048
848.921	22021
849.057	22090
849.192	22063
849.328	22055
849.463	21994
849.598	21949
849.734	21873
849.869	21789
850.004	21781
850.14	21861
850.275	21770
850.41	21633
850.545	21671
850.68	21736
850.815	21800
850.95	21759
851.085	21911
851.22	21979
851.355	21800
851.49	21709
851.625	21739
851.76	21652
851.895	21690
852.03	21770
852.165	21762
852.299	21823
852.434	21873
852.569	21857
852.703	21743
852.838	21660
852.973	21762
853.107	21899
853.242	21854
853.376	21534
853.511	21507
853.645	21553
853.78	21614
853.914	21500
854.048	21568
854.183	21568
854.317	21606
854.451	21823
854.585	21637
854.72	21553
854.854	21713
854.988	21526
855.122	21534
855.256	21500
855.39	21549
855.524	21599
855.658	21656
855.792	21534
855.926	21599
856.06	21583
856.194	21709
856.327	21599
856.461	21507
856.595	21580
856.729	21587
856.862	21682
856.996	21610
857.13	21622
857.263	21686
857.397	21625
857.53	21542
857.664	21652
857.797	21686
857.931	21713
858.064	21660
858.197	21671
858.331	21526
858.464	21424
858.597	21458
858.731	21462
858.864	21595
858.997	21492
859.13	21466
859.263	21595
859.396	21724
859.529	21469
859.662	21591
859.795	21408
859.928	21568
860.061	21671
860.194	21751
860.327	21595
860.46	21572
860.592	21728
860.725	21842
860.858	21671
860.99	21614
861.123	21523
861.256	21557
861.388	21496
861.521	22291
861.653	21473
861.786	21321
861.918	21473
862.05	21561
862.183	21515
862.315	21511
862.447	21500
862.58	21462
862.712	21424
862.844	21332
862.976	21313
863.108	21237
863.24	21690
863.372	21245
863.504	21310
863.636	21268
863.768	21313
863.9	21237
864.032	21184
864.164	21104
864.296	21233
864.428	21359
864.559	21507
864.691	21348
864.823	21241
864.954	21249
865.086	21245
865.217	21192
865.349	21161
865.48	21332
865.612	21165
865.743	21272
865.875	21043
866.006	21081
866.137	21039
866.269	21135
866.4	21135
866.531	21119
866.662	21077
866.793	21032
866.924	21013
867.055	21074
867.186	21100
867.317	21119
867.448	21066
867.579	21138
867.71	21070
867.841	21028
867.972	21135
868.103	21116
868.233	21142
868.364	21127
868.495	21142
868.625	21374
868.756	21340
868.886	21374
869.017	21218
869.147	21515
869.278	21454
869.408	21393
869.539	21386
869.669	21348
869.799	21401
869.929	21542
870.06	21393
870.19	21606
870.32	21690
870.45	21797
870.58	21709
870.71	21728
870.84	21816
870.97	21743
871.1	21857
871.23	21975
871.36	21964
871.489	21895
871.619	21895
871.749	21911
871.879	21918
872.008	22055
872.138	22021
872.267	21865
872.397	21880
872.526	21934
872.656	21857
872.785	21857
872.915	21953
873.044	22040
873.173	21956
873.303	21953
873.432	22067
873.561	22025
873.69	21941
873.819	21979
873.948	22017
874.077	21972
874.206	21854
874.335	21953
874.464	21975
874.593	22147
874.722	22063
874.851	22295
874.979	22223
875.108	22238
875.237	22226
875.365	21983
875.494	22078
875.623	22261
875.751	22192
875.88	22162
876.008	22272
876.136	22394
876.265	22607
876.393	22664
876.521	22763
876.65	22668
876.778	22565
876.906	22527
877.034	22443
877.162	22538
877.29	22424
877.418	22542
877.546	22645
877.674	22546
877.802	22504
877.93	22466
878.058	22626
878.185	22428
878.313	22470
878.441	22493
878.568	22371
878.696	22485
878.824	22523
878.951	22660
879.079	22721
879.206	22771
879.333	22694
879.461	22523
879.588	22653
879.715	22771
879.842	22866
879.97	22512
880.097	22367
880.224	22367
880.351	22333
880.478	22268
880.605	22295
880.732	22287
880.859	22527
880.986	22382
881.112	22394
881.239	22272
881.366	22211
881.493	22074
881.619	21953
881.746	21892
881.872	21915
881.999	21873
882.125	21869
882.252	21930
882.378	21903
882.505	21994
882.631	21869
882.757	21614
882.883	21751
883.01	21564
883.136	21500
883.262	21424
883.388	21431
883.514	21686
883.64	21557
883.766	21481
883.892	21340
884.018	21485
884.143	21473
884.269	21705
884.395	21268
884.52	21218
884.646	21302
884.772	21237
884.897	21169
885.023	21180
885.148	21329
885.274	21332
885.399	21302
885.524	21165
885.65	21302
885.775	21237
885.9	21245
886.025	21310
886.15	21378
886.275	21108
886.4	21116
886.525	21104
886.65	21161
886.775	21112
886.9	21279
887.025	21462
887.149	21199
887.274	21039
887.399	20887
887.523	21001
887.648	20979
887.773	20944
887.897	21051
888.021	21058
888.146	20982
888.27	21192
888.395	21157
888.519	21009
888.643	20872
888.767	21138
888.891	20838
889.015	20792
889.139	20815
889.263	20819
889.387	20948
889.511	21112
889.635	20918
889.759	20773
889.883	20811
890.006	20765
890.13	20864
890.254	20724
890.377	20689
890.501	20621
890.624	20503
890.748	20625
890.871	20488
890.995	20385
891.118	20385
891.241	20469
891.364	20320
891.488	20507
891.611	20434
891.734	20396
891.857	20419
891.98	20343
892.103	20385
892.226	20381
892.349	20358
892.471	20138
892.594	20309
892.717	20419
892.839	20267
892.962	20396
893.085	20294
893.207	20351
893.33	20317
893.452	20142
893.575	20301
893.697	20263
893.819	20438
893.941	20446
894.064	20358
894.186	20172
894.308	20183
894.43	20336
894.552	20412
894.674	20332
894.796	20244
894.918	20339
895.04	20168
895.161	20362
895.283	20450
895.405	20259
895.526	20180
895.648	20240
895.769	20259
895.891	20389
896.012	20317
896.134	20366
896.255	20324
896.376	20210
896.498	20248
896.619	20214
896.74	20324
896.861	20305
896.982	20571
897.103	20560
897.224	20575
897.345	20457
897.466	20537
897.587	20602
897.708	20503
897.828	20556
897.949	20419
898.07	20294
898.19	20461
898.311	20564
898.431	20415
898.552	20480
898.672	20598
898.792	20518
898.913	20446
899.033	20427
899.153	20278
899.273	20214
899.393	20309
899.513	20347
899.633	20290
899.753	20267
899.873	20187
899.993	20164
900.113	20199
900.232	20176
900.352	20130
900.472	20088
900.591	19928
900.711	20039
900.83	19978
900.95	20122
901.069	20092
901.189	19906
901.308	19715
901.427	19578
901.546	19601
901.665	19605
901.784	19632
901.904	19552
902.023	19343
902.141	19126
902.26	19217
902.379	19114
902.498	19221
902.617	19053
902.735	19168
902.854	19156
902.973	19080
903.091	18795
903.21	18787
903.328	18753
903.446	18730
903.565	18661
903.683	18536
903.801	18475
903.919	18551
904.038	18639
904.156	18395
904.274	18471
904.392	18311
904.51	18353
904.627	18289
904.745	18407
904.863	18353
904.981	18129
905.098	18019
905.216	18003
905.334	18045
905.451	18003
905.569	18030
905.686	17965
905.803	18011
905.921	17809
906.038	17961
906.155	17832
906.272	17627
906.389	17733
906.506	17524
906.623	17615
906.74	17532
906.857	17349
906.974	17570
907.091	17570
907.208	17657
907.324	17611
907.441	17501
907.557	17368
907.674	17197
907.79	17250
907.907	17208
908.023	17353
908.139	17284
908.256	17147
908.372	17208
908.488	17094
908.604	17075
908.72	16915
908.836	16911
908.952	16908
909.068	17010
909.184	17086
909.3	17090
909.415	16976
909.531	17003
909.647	16786
909.762	16664
909.878	16710
909.993	16664
910.108	16634
910.224	16615
910.339	16698
910.454	16577
910.57	16493
910.685	16485
910.8	16653
910.915	16721
911.03	16584
911.145	16257
911.259	16314
911.374	16306
911.489	16112
911.604	16105
911.718	16074
911.833	16051
911.947	15873
912.062	15960
912.176	16116
912.291	15884
912.405	16013
912.519	16223
912.633	16196
912.748	16128
912.862	15983
912.976	15922
913.09	15637
913.204	15686
913.318	15797
913.431	15873
913.545	15941
913.659	16029
913.772	15701
913.886	15538
914	15652
914.113	15751
914.226	15785
914.34	15778
914.453	15523
914.566	15682
914.68	15553
914.793	15359
914.906	15355
915.019	15268
915.132	15272
915.245	15256
915.358	15184
915.47	15348
915.583	15363
915.696	15275
915.809	15340
915.921	15313
916.034	15157
916.146	15116
916.259	15161
916.371	15233
916.483	15256
916.595	15085
916.708	15028
916.82	15074
916.932	15104
917.044	15051
917.156	14975
917.268	14849
917.38	14880
917.491	14921
917.603	14902
917.715	14948
917.826	15005
917.938	14807
918.049	14739
918.161	14880
918.272	15036
918.384	14883
918.495	14773
918.606	14754
918.717	14602
918.828	14613
918.939	14701
919.05	14590
919.161	14621
919.272	14450
919.383	14545
919.494	14686
919.604	14773
919.715	14610
919.826	14526
919.936	14522
920.047	14659
920.157	14686
920.267	14788
920.378	14518
920.488	14644
920.598	14826
920.708	14864
920.818	14754
920.928	14785
921.038	14929
921.148	14800
921.258	14450
921.368	14400
921.477	14366
921.587	14282
921.697	14199
921.806	14275
921.916	14195
922.025	14084
922.134	13940
922.244	13944
922.353	14069
922.462	13860
922.571	13750
922.68	13693
922.789	13613
922.898	13575
923.007	13556
923.116	13696
923.224	13559
923.333	13540
923.442	13540
923.55	13441
923.659	13468
923.767	13499
923.876	13350
923.984	13487
924.092	13327
924.201	13449
924.309	13396
924.417	13301
924.525	13244
924.633	13335
924.741	14191
924.849	13160
924.956	13183
925.064	13194
925.172	13038
925.279	13088
925.387	13129
925.494	13023
925.602	13251
925.709	13061
925.816	12970
925.924	13057
926.031	13099
926.138	12951
926.245	13000
926.352	12886
926.459	13095
926.566	13031
926.673	12867
926.779	12642
926.886	12810
926.993	12654
927.099	12604
927.206	12578
927.312	12506
927.419	12665
927.525	12555
927.631	12639
927.737	12441
927.843	12460
927.95	12319
928.056	12399
928.162	12498
928.267	12475
928.373	13031
928.479	12486
928.585	12285
928.69	12308
928.796	12475
928.901	12270
929.007	12167
929.112	12251
929.218	12239
929.323	12205
929.428	12167
929.533	12292
929.638	12136
929.743	12102
929.848	12171
929.953	12091
930.058	11954
930.163	11851
930.267	11870
930.372	12019
930.477	11726
930.581	11999
930.685	11916
930.79	11661
930.894	11703
930.998	11760
931.103	11836
931.207	11452
931.311	11307
931.415	11303
931.519	11075
931.623	11079
