Data from test_V78500241_3221.txt Node
Date: Fri Mar 25 16:04:06 CST 2022
User: usil
Spectrometer: V785-0024
Trigger mode: 0
Integration Time (sec): 4.000000E-1
Scans to average: 1
Nonlinearity correction enabled: false
Boxcar width: 0
Storing dark spectrum: false
XAxis mode: Wavelengths
Number of Pixels in Spectrum: 1024
>>>>>Begin Spectral Data<<<<<
801.071	28687
801.214	28599
801.356	28432
801.499	28242
801.641	28242
801.783	28306
801.926	28242
802.068	28276
802.211	28135
802.353	28185
802.496	27892
802.638	27907
802.78	27797
802.923	27964
803.065	27972
803.208	27956
803.35	27972
803.492	28139
803.635	28147
803.777	28162
803.919	28219
804.061	28535
804.204	28249
804.346	28169
804.488	28070
804.63	28238
804.773	28139
804.915	28265
805.057	28238
805.199	28207
805.341	28249
805.483	28230
805.626	28325
805.768	28234
805.91	28257
806.052	28367
806.194	28318
806.336	28569
806.478	28375
806.62	28356
806.762	28344
806.904	28748
807.046	28919
807.188	28713
807.33	28767
807.472	28763
807.614	28702
807.756	28809
807.898	28626
808.04	28615
808.182	28428
808.324	28668
808.465	28736
808.607	28911
808.749	28915
808.891	29033
809.033	29273
809.174	29200
809.316	29056
809.458	28991
809.6	29029
809.741	29147
809.883	29140
810.025	29311
810.166	29421
810.308	29189
810.45	29311
810.591	29239
810.733	29079
810.875	29048
811.016	28999
811.158	28915
811.299	29105
811.441	29250
811.582	29151
811.724	29060
811.865	29014
812.007	29025
812.148	29048
812.29	29181
812.431	29356
812.573	29372
812.714	29558
812.855	29528
812.997	29680
813.138	29817
813.279	29722
813.421	29642
813.562	29570
813.703	29474
813.845	29204
813.986	29079
814.127	28824
814.268	28767
814.41	28733
814.551	28782
814.692	28835
814.833	28698
814.974	28706
815.115	28744
815.256	28721
815.397	28645
815.539	28782
815.68	28679
815.821	28596
815.962	28417
816.103	28611
816.244	28360
816.385	28474
816.526	28367
816.666	28196
816.807	28078
816.948	28093
817.089	28219
817.23	28090
817.371	28147
817.512	28051
817.653	28154
817.793	28055
817.934	27979
818.075	28059
818.216	27991
818.356	28021
818.497	27937
818.638	27770
818.778	27842
818.919	27964
819.06	27774
819.2	28086
819.341	28086
819.481	28059
819.622	28234
819.762	28497
819.903	28318
820.043	28219
820.184	28242
820.324	28215
820.465	28173
820.605	28154
820.746	28093
820.886	28032
821.026	28230
821.167	28090
821.307	28131
821.447	28166
821.588	28036
821.728	27854
821.868	27770
822.008	27557
822.149	27538
822.289	27618
822.429	27367
822.569	27157
822.709	27256
822.849	27055
822.99	27077
823.13	26986
823.27	26937
823.41	26788
823.55	26762
823.69	26940
823.83	26918
823.97	26842
824.11	26556
824.25	26651
824.389	26537
824.529	26670
824.669	26689
824.809	26754
824.949	26769
825.089	26880
825.228	26788
825.368	26530
825.508	26655
825.648	26545
825.787	26678
825.927	26648
826.067	26541
826.206	26526
826.346	26625
826.485	26651
826.625	26609
826.765	26663
826.904	26773
827.044	26492
827.183	26412
827.323	26347
827.462	26237
827.601	26278
827.741	26396
827.88	26408
828.02	26237
828.159	26301
828.298	26347
828.437	26503
828.577	26164
828.716	26377
828.855	26069
828.994	26054
829.134	25940
829.273	26088
829.412	25944
829.551	25849
829.69	26077
829.829	26008
829.968	26100
830.107	26103
830.246	25997
830.385	26001
830.524	25788
830.663	25894
830.802	25590
830.941	25651
831.08	25556
831.219	25616
831.357	25689
831.496	25731
831.635	25632
831.774	25525
831.913	25537
832.051	25312
832.19	25343
832.329	25407
832.467	25255
832.606	25133
832.744	25228
832.883	25339
833.022	25179
833.16	25396
833.299	25225
833.437	25301
833.576	25289
833.714	25270
833.852	25472
833.991	25327
834.129	25464
834.267	25487
834.406	25384
834.544	25339
834.682	25278
834.821	25396
834.959	25381
835.097	25236
835.235	25430
835.373	25324
835.511	25369
835.65	25293
835.788	25247
835.926	25031
836.064	25107
836.202	24901
836.34	25076
836.478	25194
836.615	25198
836.753	25141
836.891	25285
837.029	25221
837.167	25122
837.305	25072
837.443	25076
837.58	25019
837.718	24962
837.856	24973
837.993	24909
838.131	25031
838.269	24840
838.406	25034
838.544	24768
838.681	24677
838.819	24551
838.956	24376
839.094	24479
839.231	24475
839.369	24684
839.506	24939
839.643	24787
839.781	24346
839.918	24342
840.055	24528
840.193	24384
840.33	24262
840.467	24407
840.604	24407
840.742	24677
840.879	24235
841.016	24247
841.153	24235
841.29	24460
841.427	24353
841.564	24399
841.701	24357
841.838	24365
841.975	24346
842.112	24190
842.249	24285
842.385	24174
842.522	24315
842.659	24197
842.796	24117
842.933	24064
843.069	24060
843.206	24121
843.343	24148
843.479	24186
843.616	24178
843.752	23931
843.889	23821
844.025	24030
844.162	23870
844.298	24038
844.435	23817
844.571	23908
844.708	23897
844.844	23965
844.98	23973
845.117	23908
845.253	23931
845.389	23741
845.525	23828
845.661	23687
845.798	23661
845.934	23878
846.07	23566
846.206	23737
846.342	23687
846.478	23653
846.614	23478
846.75	23322
846.886	23421
847.022	23387
847.158	23497
847.294	23383
847.429	23398
847.565	23288
847.701	23646
847.837	23170
847.972	23060
848.108	23083
848.244	23136
848.379	22968
848.515	22915
848.65	22873
848.786	22938
848.921	22999
849.057	23052
849.192	23155
849.328	23033
849.463	23037
849.598	22942
849.734	22790
849.869	22721
850.004	22691
850.14	22615
850.275	22778
850.41	22615
850.545	22634
850.68	22599
850.815	22736
850.95	22721
851.085	22858
851.22	22706
851.355	22710
851.49	22630
851.625	22611
851.76	22755
851.895	22653
852.03	22630
852.165	22801
852.299	22809
852.434	22679
852.569	22687
852.703	22698
852.838	22805
852.973	22820
853.107	22847
853.242	22611
853.376	22497
853.511	22527
853.645	22523
853.78	22736
853.914	22577
854.048	22371
854.183	22527
854.317	22451
854.451	22763
854.585	22417
854.72	22440
854.854	22523
854.988	22466
855.122	22481
855.256	22356
855.39	22569
855.524	22656
855.658	22519
855.792	22516
855.926	22451
856.06	22379
856.194	22607
856.327	22436
856.461	22542
856.595	22409
856.729	22607
856.862	22683
856.996	22531
857.13	22584
857.263	22706
857.397	22577
857.53	22531
857.664	22580
857.797	22592
857.931	22687
858.064	22592
858.197	22527
858.331	22455
858.464	22489
858.597	22417
858.731	22497
858.864	22497
858.997	22630
859.13	22542
859.263	22504
859.396	22607
859.529	22577
859.662	22428
859.795	22531
859.928	22546
860.061	22626
860.194	22668
860.327	22527
860.46	22504
860.592	22698
860.725	22786
860.858	22592
860.99	22550
861.123	22497
861.256	22421
861.388	22569
861.521	23292
861.653	22409
861.786	22238
861.918	22398
862.05	22352
862.183	22421
862.315	22421
862.447	22531
862.58	22508
862.712	22249
862.844	22086
862.976	22219
863.108	22360
863.24	22626
863.372	22154
863.504	22253
863.636	22242
863.768	22363
863.9	22352
864.032	22192
864.164	22291
864.296	22242
864.428	22382
864.559	22375
864.691	22295
864.823	22207
864.954	22192
865.086	22181
865.217	22188
865.349	22017
865.48	21998
865.612	22120
865.743	22379
865.875	22097
866.006	22021
866.137	22097
866.269	22082
866.4	22078
866.531	22063
866.662	21930
866.793	22059
866.924	22074
867.055	21972
867.186	22082
867.317	22059
867.448	21983
867.579	21968
867.71	21903
867.841	22055
867.972	22086
868.103	22029
868.233	22017
868.364	22070
868.495	22048
868.625	22295
868.756	22375
868.886	22215
869.017	22261
869.147	22379
869.278	22314
869.408	22329
869.539	22367
869.669	22257
869.799	22344
869.929	22462
870.06	22405
870.19	22500
870.32	22535
870.45	22675
870.58	22580
870.71	22698
870.84	22805
870.97	22694
871.1	22748
871.23	22873
871.36	22854
871.489	22809
871.619	22850
871.749	22816
871.879	22850
872.008	22881
872.138	22854
872.267	22869
872.397	22843
872.526	22763
872.656	22755
872.785	22664
872.915	22980
873.044	22953
873.173	22816
873.303	22900
873.432	22980
873.561	22968
873.69	22938
873.819	22877
873.948	22938
874.077	22930
874.206	22858
874.335	22843
874.464	23075
874.593	23258
874.722	23124
874.851	23132
874.979	23094
875.108	23265
875.237	22957
875.365	23052
875.494	23143
875.623	23067
875.751	23071
875.88	23083
876.008	23216
876.136	23292
876.265	23516
876.393	23630
876.521	23642
876.65	23551
876.778	23608
876.906	23410
877.034	23387
877.162	23535
877.29	23482
877.418	23455
877.546	23440
877.674	23433
877.802	23406
877.93	23425
878.058	23501
878.185	23330
878.313	23410
878.441	23474
878.568	23193
878.696	23364
878.824	23444
878.951	23531
879.079	23634
879.206	23699
879.333	23589
879.461	23501
879.588	23554
879.715	23539
879.842	23627
879.97	23615
880.097	23383
880.224	23326
880.351	23311
880.478	23155
880.605	23311
880.732	23269
880.859	23402
880.986	23288
881.112	23414
881.239	23140
881.366	23067
881.493	22873
881.619	22797
881.746	22904
881.872	22740
881.999	22850
882.125	22710
882.252	22938
882.378	22763
882.505	23086
882.631	22645
882.757	22573
882.883	22626
883.01	22580
883.136	22382
883.262	22371
883.388	22249
883.514	22573
883.64	22462
883.766	22382
883.892	22344
884.018	22284
884.143	22409
884.269	22455
884.395	22249
884.52	22074
884.646	22188
884.772	22105
884.897	22036
885.023	22181
885.148	22276
885.274	22226
885.399	22238
885.524	22090
885.65	22120
885.775	22169
885.9	22078
886.025	22242
886.15	22242
886.275	22105
886.4	22025
886.525	22158
886.65	22048
886.775	22032
886.9	22249
887.025	22295
887.149	22048
887.274	21983
887.399	22021
887.523	21850
887.648	21709
887.773	21812
887.897	21994
888.021	21930
888.146	21831
888.27	21888
888.395	22059
888.519	21994
888.643	21903
888.767	21975
888.891	21736
889.015	21747
889.139	21842
889.263	21587
889.387	21827
889.511	21816
889.635	21797
889.759	21808
889.883	21629
890.006	21808
890.13	21854
890.254	21713
890.377	21633
890.501	21393
890.624	21420
890.748	21454
890.871	21412
890.995	21272
891.118	21157
891.241	21283
891.364	21329
891.488	21294
891.611	21310
891.734	21203
891.857	21370
891.98	21306
892.103	21275
892.226	21211
892.349	21233
892.471	20990
892.594	21127
892.717	21077
892.839	21207
892.962	21093
893.085	21157
893.207	21146
893.33	21024
893.452	21024
893.575	21268
893.697	21096
893.819	21211
893.941	21450
894.064	21283
894.186	20948
894.308	21081
894.43	21180
894.552	21222
894.674	21260
894.796	20994
894.918	21116
895.04	21146
895.161	21157
895.283	21028
895.405	21032
895.526	21024
895.648	20975
895.769	21001
895.891	21135
896.012	21127
896.134	21184
896.255	21062
896.376	20990
896.498	21039
896.619	21119
896.74	21173
896.861	21203
896.982	21416
897.103	21420
897.224	21412
897.345	21283
897.466	21237
897.587	21279
897.708	21389
897.828	21256
897.949	21119
898.07	21192
898.19	21230
898.311	21298
898.431	21275
898.552	21310
898.672	21435
898.792	21332
898.913	21310
899.033	21135
899.153	21096
899.273	20990
899.393	21039
899.513	20933
899.633	21058
899.753	21028
899.873	20948
899.993	21093
900.113	20918
900.232	20876
900.352	20792
900.472	20796
900.591	20758
900.711	20819
900.83	20746
900.95	20887
901.069	20963
901.189	20609
901.308	20507
901.427	20438
901.546	20358
901.665	20336
901.784	20366
901.904	20180
902.023	20100
902.141	20008
902.26	19898
902.379	20035
902.498	19925
902.617	19765
902.735	19917
902.854	19845
902.973	19799
903.091	19510
903.21	19540
903.328	19613
903.446	19411
903.565	19396
903.683	19400
903.801	19247
903.919	19369
904.038	19324
904.156	19129
904.274	19206
904.392	19046
904.51	19046
904.627	19107
904.745	19152
904.863	19110
904.981	18939
905.098	18829
905.216	18681
905.334	18768
905.451	18783
905.569	18753
905.686	18764
905.803	18730
905.921	18582
906.038	18688
906.155	18654
906.272	18426
906.389	18357
906.506	18357
906.623	18304
906.74	18270
906.857	18182
906.974	18159
907.091	18262
907.208	18422
907.324	18289
907.441	18114
907.557	18041
907.674	17973
907.79	17996
907.907	17977
908.023	18030
908.139	18060
908.256	17927
908.372	17950
908.488	17863
908.604	17752
908.72	17661
908.836	17672
908.952	17699
909.068	17684
909.184	17783
909.3	17733
909.415	17817
909.531	17630
909.647	17478
909.762	17512
909.878	17417
909.993	17440
910.108	17284
910.224	17242
910.339	17356
910.454	17223
910.57	17162
910.685	17121
910.8	17383
910.915	17311
911.03	17132
911.145	16938
911.259	17056
911.374	17045
911.489	16927
911.604	16812
911.718	16710
911.833	16790
911.947	16592
912.062	16630
912.176	16752
912.291	16721
912.405	16710
912.519	16835
912.633	16957
912.748	16668
912.862	16668
912.976	16607
913.09	16451
913.204	16432
913.318	16641
913.431	16615
913.545	16577
913.659	16565
913.772	16398
913.886	16295
914	16295
914.113	16333
914.226	16436
914.34	16462
914.453	16192
914.566	16272
914.68	16188
914.793	16120
914.906	15934
915.019	15930
915.132	15922
915.245	15922
915.358	15793
915.47	15968
915.583	15907
915.696	15941
915.809	15903
915.921	15941
916.034	15789
916.146	15842
916.259	15720
916.371	15857
916.483	15781
916.595	15679
916.708	15656
916.82	15679
916.932	15648
917.044	15709
917.156	15660
917.268	15572
917.38	15511
917.491	15408
917.603	15492
917.715	15633
917.826	15485
917.938	15431
918.049	15359
918.161	15515
918.272	15618
918.384	15534
918.495	15504
918.606	15272
918.717	15199
918.828	15287
918.939	15389
919.05	15135
919.161	15252
919.272	14937
919.383	14979
919.494	15116
919.604	15416
919.715	15256
919.826	15131
919.936	15085
920.047	15203
920.157	15195
920.267	15317
920.378	15252
920.488	15138
920.598	15321
920.708	15504
920.818	15310
920.928	15329
921.038	15504
921.148	15393
921.258	15165
921.368	15032
921.477	15013
921.587	14944
921.697	14739
921.806	14899
921.916	14777
922.025	14686
922.134	14571
922.244	14537
922.353	14549
922.462	14484
922.571	14332
922.68	14206
922.789	14191
922.898	14256
923.007	14218
923.116	14271
923.224	14130
923.333	14176
923.442	14096
923.55	14031
923.659	14062
923.767	14214
923.876	13967
923.984	14035
924.092	13909
924.201	13963
924.309	13860
924.417	13993
924.525	13852
924.633	13940
924.741	14682
924.849	13655
924.956	13852
925.064	13662
925.172	13628
925.279	13499
925.387	13620
925.494	13609
925.602	13674
925.709	13616
925.816	13529
925.924	13487
926.031	13666
926.138	13514
926.245	13556
926.352	13441
926.459	13586
926.566	13723
926.673	13441
926.779	13381
926.886	13377
926.993	13247
927.099	13240
927.206	13065
927.312	13141
927.419	13202
927.525	13122
927.631	13209
927.737	13023
927.843	13019
927.95	12913
928.056	12985
928.162	12924
928.267	12977
928.373	13506
928.479	13069
928.585	12810
928.69	12863
928.796	12935
928.901	12894
929.007	12722
929.112	12852
929.218	12711
929.323	12726
929.428	12658
929.533	12719
929.638	12650
929.743	12688
929.848	12658
929.953	12639
930.058	12486
930.163	12350
930.267	12410
930.372	12437
930.477	12338
930.581	12506
930.685	12391
930.79	12251
930.894	12285
930.998	12186
931.103	12346
931.207	11946
931.311	11904
931.415	11866
931.519	11627
931.623	11528
