Data from test_V78500241_1725.txt Node
Date: Fri Mar 25 15:53:45 CST 2022
User: usil
Spectrometer: V785-0024
Trigger mode: 0
Integration Time (sec): 4.000000E-1
Scans to average: 1
Nonlinearity correction enabled: false
Boxcar width: 0
Storing dark spectrum: false
XAxis mode: Wavelengths
Number of Pixels in Spectrum: 1024
>>>>>Begin Spectral Data<<<<<
801.071	28211
801.214	28162
801.356	28063
801.499	27846
801.641	27766
801.783	27774
801.926	27785
802.068	27785
802.211	27709
802.353	27732
802.496	27359
802.638	27485
802.78	27435
802.923	27287
803.065	27268
803.208	27367
803.35	27405
803.492	27553
803.635	27576
803.777	27424
803.919	27743
804.061	27911
804.204	27774
804.346	27583
804.488	27458
804.63	27454
804.773	27545
804.915	27679
805.057	27873
805.199	27679
805.341	27736
805.483	27831
805.626	27781
805.768	27747
805.91	27633
806.052	27850
806.194	27675
806.336	28021
806.478	27846
806.62	27747
806.762	27960
806.904	28166
807.046	28280
807.188	28265
807.33	28211
807.472	28234
807.614	28249
807.756	28284
807.898	28021
808.04	28067
808.182	28013
808.324	28059
808.465	28029
808.607	28265
808.749	28398
808.891	28584
809.033	28729
809.174	28531
809.316	28508
809.458	28322
809.6	28569
809.741	28538
809.883	28588
810.025	28615
810.166	28683
810.308	28622
810.45	28805
810.591	28577
810.733	28432
810.875	28481
811.016	28421
811.158	28303
811.299	28485
811.441	28550
811.582	28592
811.724	28382
811.865	28443
812.007	28363
812.148	28504
812.29	28447
812.431	28596
812.573	28656
812.714	28843
812.855	28976
812.997	29166
813.138	29151
813.279	29041
813.421	28839
813.562	28942
813.703	28793
813.845	28626
813.986	28500
814.127	28204
814.268	28067
814.41	28120
814.551	28143
814.692	28185
814.833	28181
814.974	27975
815.115	28211
815.256	27903
815.397	28040
815.539	27907
815.68	27907
815.821	27747
815.962	27865
816.103	27914
816.244	27892
816.385	27789
816.526	27633
816.666	27447
816.807	27469
816.948	27538
817.089	27526
817.23	27591
817.371	27401
817.512	27439
817.653	27317
817.793	27291
817.934	27466
818.075	27378
818.216	27485
818.356	27283
818.497	27112
818.638	27169
818.778	27260
818.919	27161
819.06	27272
819.2	27329
819.341	27389
819.481	27439
819.622	27526
819.762	27747
819.903	27705
820.043	27679
820.184	27492
820.324	27557
820.465	27705
820.605	27576
820.746	27427
820.886	27469
821.026	27435
821.167	27408
821.307	27614
821.447	27549
821.588	27306
821.728	27123
821.868	26944
822.008	26971
822.149	26925
822.289	26918
822.429	26727
822.569	26492
822.709	26632
822.849	26328
822.99	26457
823.13	26309
823.27	26343
823.41	26370
823.55	26039
823.69	26111
823.83	26252
823.97	26157
824.11	25936
824.25	26012
824.389	25951
824.529	26145
824.669	26084
824.809	26267
824.949	26157
825.089	26100
825.228	26183
825.368	25860
825.508	25887
825.648	25849
825.787	25917
825.927	26024
826.067	25841
826.206	25925
826.346	25852
826.485	26020
826.625	25951
826.765	26054
826.904	25890
827.044	25548
827.183	25643
827.323	25529
827.462	25628
827.601	25635
827.741	25563
827.88	25575
828.02	25533
828.159	25510
828.298	25609
828.437	25689
828.577	25502
828.716	25677
828.855	25525
828.994	25221
829.134	25247
829.273	25460
829.412	25247
829.551	25274
829.69	25324
829.829	25377
829.968	25255
830.107	25434
830.246	25331
830.385	25145
830.524	25198
830.663	25072
830.802	25000
830.941	24928
831.08	24905
831.219	24840
831.357	25019
831.496	25137
831.635	24901
831.774	24776
831.913	24806
832.051	24578
832.19	24722
832.329	24810
832.467	24623
832.606	24570
832.744	24544
832.883	24505
833.022	24494
833.16	24665
833.299	24658
833.437	24631
833.576	24654
833.714	24612
833.852	24681
833.991	24726
834.129	24726
834.267	24745
834.406	24715
834.544	24707
834.682	24578
834.821	24692
834.959	24844
835.097	24570
835.235	24627
835.373	24753
835.511	24589
835.65	24578
835.788	24456
835.926	24346
836.064	24190
836.202	24266
836.34	24547
836.478	24585
836.615	24505
836.753	24433
836.891	24620
837.029	24502
837.167	24486
837.305	24315
837.443	24429
837.58	24243
837.718	24357
837.856	24209
837.993	24289
838.131	24247
838.269	24064
838.406	24209
838.544	24159
838.681	23931
838.819	23885
838.956	23783
839.094	23710
839.231	23908
839.369	23973
839.506	24258
839.643	24026
839.781	23714
839.918	23756
840.055	23764
840.193	23851
840.33	23634
840.467	23649
840.604	23752
840.742	23908
840.879	23474
841.016	23592
841.153	23718
841.29	23756
841.427	23619
841.564	23703
841.701	23653
841.838	23615
841.975	23581
842.112	23577
842.249	23356
842.385	23433
842.522	23775
842.659	23611
842.796	23417
842.933	23406
843.069	23414
843.206	23322
843.343	23482
843.479	23402
843.616	23425
843.752	23136
843.889	23292
844.025	23334
844.162	23140
844.298	23212
844.435	23105
844.571	23174
844.708	23334
844.844	23212
844.98	23440
845.117	23406
845.253	23220
845.389	23079
845.525	23067
845.661	23102
845.798	22938
845.934	23124
846.07	22999
846.206	22949
846.342	23124
846.478	22881
846.614	22733
846.75	22531
846.886	22767
847.022	22752
847.158	22706
847.294	22592
847.429	22717
847.565	22573
847.701	22839
847.837	22363
847.972	22325
848.108	22573
848.244	22443
848.379	22329
848.515	22337
848.65	22162
848.786	22192
848.921	22253
849.057	22329
849.192	22344
849.328	22200
849.463	22261
849.598	22143
849.734	22128
849.869	22044
850.004	21934
850.14	22093
850.275	21960
850.41	22010
850.545	21907
850.68	22086
850.815	21975
850.95	21899
851.085	22261
851.22	22166
851.355	22006
851.49	22074
851.625	21964
851.76	21918
851.895	22029
852.03	21945
852.165	22059
852.299	21983
852.434	22162
852.569	21991
852.703	22070
852.838	22234
852.973	22246
853.107	22124
853.242	21930
853.376	21964
853.511	21819
853.645	21823
853.78	21899
853.914	21899
854.048	21812
854.183	21926
854.317	21861
854.451	22078
854.585	21907
854.72	21892
854.854	21892
854.988	21827
855.122	21808
855.256	21701
855.39	21945
855.524	21907
855.658	21873
855.792	21846
855.926	21884
856.06	21907
856.194	22059
856.327	21705
856.461	21854
856.595	21941
856.729	21720
856.862	22063
856.996	22002
857.13	21823
857.263	22021
857.397	22109
857.53	21865
857.664	21907
857.797	21838
857.931	21945
858.064	21949
858.197	22013
858.331	21911
858.464	21816
858.597	21781
858.731	21835
858.864	21979
858.997	21831
859.13	21865
859.263	21903
859.396	21960
859.529	21800
859.662	21797
859.795	21892
859.928	21675
860.061	22055
860.194	21987
860.327	21838
860.46	21892
860.592	21972
860.725	22093
860.858	21998
860.99	21884
861.123	21854
861.256	21717
861.388	21762
861.521	22679
861.653	21724
861.786	21789
861.918	21743
862.05	21629
862.183	21781
862.315	21819
862.447	21857
862.58	21808
862.712	21580
862.844	21618
862.976	21671
863.108	21599
863.24	21941
863.372	21477
863.504	21526
863.636	21572
863.768	21545
863.9	21473
864.032	21515
864.164	21515
864.296	21561
864.428	21625
864.559	21591
864.691	21587
864.823	21591
864.954	21576
865.086	21530
865.217	21492
865.349	21420
865.48	21477
865.612	21298
865.743	21610
865.875	21462
866.006	21462
866.137	21507
866.269	21504
866.4	21321
866.531	21469
866.662	21416
866.793	21275
866.924	21397
867.055	21443
867.186	21363
867.317	21336
867.448	21294
867.579	21370
867.71	21211
867.841	21348
867.972	21321
868.103	21462
868.233	21412
868.364	21439
868.495	21488
868.625	21587
868.756	21846
868.886	21534
869.017	21591
869.147	21671
869.278	21667
869.408	21656
869.539	21667
869.669	21724
869.799	21641
869.929	21823
870.06	21705
870.19	21945
870.32	21861
870.45	22044
870.58	22040
870.71	22181
870.84	22048
870.97	22059
871.1	22040
871.23	22147
871.36	22265
871.489	22154
871.619	22154
871.749	22074
871.879	22215
872.008	22325
872.138	22333
872.267	22215
872.397	22036
872.526	22051
872.656	22063
872.785	22116
872.915	22230
873.044	22329
873.173	22280
873.303	22246
873.432	22166
873.561	22352
873.69	22257
873.819	22314
873.948	22417
874.077	22215
874.206	22093
874.335	22215
874.464	22303
874.593	22417
874.722	22379
874.851	22516
874.979	22580
875.108	22489
875.237	22371
875.365	22215
875.494	22527
875.623	22546
875.751	22447
875.88	22417
876.008	22607
876.136	22675
876.265	22877
876.393	22896
876.521	22904
876.65	22911
876.778	22889
876.906	22812
877.034	22778
877.162	22748
877.29	22767
877.418	22790
877.546	22938
877.674	22824
877.802	22889
877.93	22740
878.058	22812
878.185	22687
878.313	22809
878.441	22812
878.568	22626
878.696	22721
878.824	22866
878.951	22980
879.079	23048
879.206	23162
879.333	22904
879.461	22896
879.588	22881
879.715	22919
879.842	23044
879.97	22843
880.097	22634
880.224	22668
880.351	22630
880.478	22679
880.605	22535
880.732	22694
880.859	22755
880.986	22611
881.112	22603
881.239	22375
881.366	22322
881.493	22188
881.619	22173
881.746	22303
881.872	22173
881.999	22021
882.125	22181
882.252	22200
882.378	22139
882.505	22306
882.631	22067
882.757	21949
882.883	22059
883.01	21854
883.136	21835
883.262	21720
883.388	21766
883.514	21918
883.64	21903
883.766	21743
883.892	21618
884.018	21705
884.143	21701
884.269	21972
884.395	21709
884.52	21477
884.646	21462
884.772	21511
884.897	21526
885.023	21462
885.148	21732
885.274	21747
885.399	21641
885.524	21507
885.65	21553
885.775	21580
885.9	21443
886.025	21515
886.15	21656
886.275	21454
886.4	21492
886.525	21610
886.65	21561
886.775	21466
886.9	21606
887.025	21778
887.149	21412
887.274	21374
887.399	21443
887.523	21249
887.648	21264
887.773	21112
887.897	21344
888.021	21332
888.146	21252
888.27	21317
888.395	21420
888.519	21393
888.643	21310
888.767	21310
888.891	21310
889.015	21207
889.139	21173
889.263	21043
889.387	21222
889.511	21313
889.635	21279
889.759	21039
889.883	21089
890.006	21043
890.13	21226
890.254	20998
890.377	21085
890.501	20826
890.624	20712
890.748	20853
890.871	20686
890.995	20655
891.118	20552
891.241	20598
891.364	20575
891.488	20693
891.611	20625
891.734	20689
891.857	20655
891.98	20655
892.103	20693
892.226	20583
892.349	20552
892.471	20366
892.594	20571
892.717	20408
892.839	20609
892.962	20480
893.085	20651
893.207	20461
893.33	20465
893.452	20332
893.575	20549
893.697	20587
893.819	20568
893.941	20853
894.064	20549
894.186	20571
894.308	20476
894.43	20629
894.552	20697
894.674	20640
894.796	20522
894.918	20389
895.04	20587
895.161	20678
895.283	20446
895.405	20530
895.526	20511
895.648	20408
895.769	20568
895.891	20655
896.012	20640
896.134	20609
896.255	20514
896.376	20545
896.498	20434
896.619	20602
896.74	20568
896.861	20644
896.982	20853
897.103	20967
897.224	20773
897.345	20693
897.466	20648
897.587	20743
897.708	20769
897.828	20727
897.949	20716
898.07	20571
898.19	20667
898.311	20796
898.431	20602
898.552	20674
898.672	20785
898.792	20746
898.913	20750
899.033	20636
899.153	20514
899.273	20587
899.393	20457
899.513	20560
899.633	20465
899.753	20571
899.873	20381
899.993	20556
900.113	20393
900.232	20374
900.352	20366
900.472	20374
900.591	20225
900.711	20324
900.83	20210
900.95	20446
901.069	20256
901.189	20199
901.308	19963
901.427	19845
901.546	19902
901.665	19849
901.784	19860
901.904	19689
902.023	19556
902.141	19525
902.26	19346
902.379	19464
902.498	19411
902.617	19339
902.735	19369
902.854	19403
902.973	19270
903.091	19129
903.21	19076
903.328	19015
903.446	18890
903.565	18779
903.683	18814
903.801	18707
903.919	18878
904.038	18741
904.156	18589
904.274	18639
904.392	18555
904.51	18544
904.627	18642
904.745	18582
904.863	18631
904.981	18361
905.098	18251
905.216	18239
905.334	18289
905.451	18334
905.569	18167
905.686	18281
905.803	18197
905.921	17961
906.038	18182
906.155	18057
906.272	17977
906.389	17996
906.506	17707
906.623	17703
906.74	17718
906.857	17585
906.974	17676
907.091	17840
907.208	17912
907.324	17794
907.441	17684
907.557	17501
907.674	17600
907.79	17353
907.907	17440
908.023	17512
908.139	17478
908.256	17490
908.372	17402
908.488	17337
908.604	17235
908.72	17048
908.836	17121
908.952	17174
909.068	17261
909.184	17277
909.3	17128
909.415	17174
909.531	17174
909.647	16965
909.762	16824
909.878	16866
909.993	16938
910.108	16820
910.224	16733
910.339	16873
910.454	16710
910.57	16793
910.685	16668
910.8	16915
910.915	16873
911.03	16793
911.145	16535
911.259	16451
911.374	16436
911.489	16466
911.604	16363
911.718	16253
911.833	16272
911.947	16078
912.062	15975
912.176	16223
912.291	16234
912.405	16268
912.519	16462
912.633	16367
912.748	16295
912.862	16238
912.976	16082
913.09	15827
913.204	15987
913.318	16006
913.431	16181
913.545	16082
913.659	16188
913.772	15998
913.886	15884
914	15876
914.113	15797
914.226	15998
914.34	15987
914.453	15808
914.566	15850
914.68	15576
914.793	15671
914.906	15625
915.019	15466
915.132	15511
915.245	15458
915.358	15458
915.47	15370
915.583	15515
915.696	15466
915.809	15538
915.921	15526
916.034	15287
916.146	15306
916.259	15386
916.371	15336
916.483	15329
916.595	15260
916.708	15302
916.82	15199
916.932	15275
917.044	15184
917.156	15256
917.268	15036
917.38	15005
917.491	15150
917.603	14994
917.715	15222
917.826	15226
917.938	14986
918.049	14914
918.161	15043
918.272	15070
918.384	15028
918.495	15005
918.606	14800
918.717	14777
918.828	14948
918.939	14845
919.05	14727
919.161	14777
919.272	14667
919.383	14762
919.494	14941
919.604	15070
919.715	14800
919.826	14632
919.936	14758
920.047	14804
920.157	14754
920.267	15055
920.378	14887
920.488	14651
920.598	14891
920.708	15100
920.818	14906
920.928	15017
921.038	15150
921.148	15009
921.258	14724
921.368	14648
921.477	14541
921.587	14602
921.697	14370
921.806	14579
921.916	14374
922.025	14221
922.134	14145
922.244	14225
922.353	14237
922.462	14103
922.571	13967
922.68	13799
922.789	13856
922.898	13845
923.007	13696
923.116	13803
923.224	13826
923.333	13776
923.442	13636
923.55	13681
923.659	13613
923.767	13674
923.876	13567
923.984	13662
924.092	13502
924.201	13552
924.309	13480
924.417	13525
924.525	13472
924.633	13441
924.741	14218
924.849	13202
924.956	13403
925.064	13308
925.172	13122
925.279	13145
925.387	13301
925.494	13232
925.602	13327
925.709	13179
925.816	13137
925.924	13164
926.031	13187
926.138	13065
926.245	13091
926.352	13015
926.459	13095
926.566	13183
926.673	13019
926.779	12943
926.886	12920
926.993	12791
927.099	12776
927.206	12757
927.312	12677
927.419	12779
927.525	12772
927.631	12776
927.737	12665
927.843	12601
927.95	12525
928.056	12585
928.162	12570
928.267	12696
928.373	13270
928.479	12604
928.585	12338
928.69	12563
928.796	12589
928.901	12441
929.007	12304
929.112	12388
929.218	12342
929.323	12365
929.428	12254
929.533	12399
929.638	12220
929.743	12289
929.848	12220
929.953	12304
930.058	12114
930.163	12019
930.267	11920
930.372	12038
930.477	11988
930.581	12133
930.685	11984
930.79	11893
930.894	11870
930.998	11775
931.103	11923
931.207	11543
931.311	11455
931.415	11433
931.519	11254
931.623	11227
