Data from test_V78500241_1470.txt Node
Date: Fri Mar 25 15:51:59 CST 2022
User: usil
Spectrometer: V785-0024
Trigger mode: 0
Integration Time (sec): 4.000000E-1
Scans to average: 1
Nonlinearity correction enabled: false
Boxcar width: 0
Storing dark spectrum: false
XAxis mode: Wavelengths
Number of Pixels in Spectrum: 1024
>>>>>Begin Spectral Data<<<<<
801.071	27603
801.214	27545
801.356	27336
801.499	27211
801.641	27142
801.783	27066
801.926	27112
802.068	27032
802.211	26990
802.353	26876
802.496	26902
802.638	26815
802.78	26796
802.923	26724
803.065	26640
803.208	26743
803.35	26807
803.492	26906
803.635	26971
803.777	26880
803.919	26895
804.061	27230
804.204	26956
804.346	26834
804.488	26819
804.63	26921
804.773	26940
804.915	27032
805.057	27100
805.199	26929
805.341	26982
805.483	27112
805.626	27070
805.768	26998
805.91	27108
806.052	27085
806.194	27001
806.336	27348
806.478	27070
806.62	27001
806.762	27188
806.904	27439
807.046	27618
807.188	27576
807.33	27473
807.472	27583
807.614	27496
807.756	27542
807.898	27412
808.04	27332
808.182	27260
808.324	27485
808.465	27408
808.607	27614
808.749	27713
808.891	27793
809.033	27743
809.174	27717
809.316	27690
809.458	27781
809.6	27694
809.741	27800
809.883	27926
810.025	27983
810.166	28051
810.308	27956
810.45	28078
810.591	27892
810.733	27644
810.875	27591
811.016	27568
811.158	27705
811.299	27759
811.441	27823
811.582	27804
811.724	27831
811.865	27603
812.007	27580
812.148	27610
812.29	27603
812.431	27873
812.573	28002
812.714	27895
812.855	28291
812.997	28181
813.138	28432
813.279	28367
813.421	28105
813.562	28139
813.703	27930
813.845	27926
813.986	27492
814.127	27545
814.268	27348
814.41	27427
814.551	27344
814.692	27302
814.833	27416
814.974	27252
815.115	27310
815.256	27256
815.397	27188
815.539	27199
815.68	27096
815.821	27119
815.962	27112
816.103	27112
816.244	27070
816.385	26804
816.526	26979
816.666	26598
816.807	26473
816.948	26826
817.089	26796
817.23	26678
817.371	26552
817.512	26674
817.653	26541
817.793	26651
817.934	26804
818.075	26750
818.216	26617
818.356	26629
818.497	26587
818.638	26427
818.778	26423
818.919	26423
819.06	26431
819.2	26514
819.341	26598
819.481	26518
819.622	26804
819.762	26895
819.903	26887
820.043	26765
820.184	26838
820.324	26735
820.465	26781
820.605	26773
820.746	26746
820.886	26423
821.026	26815
821.167	26689
821.307	26720
821.447	26701
821.588	26495
821.728	26503
821.868	26286
822.008	26161
822.149	26126
822.289	26039
822.429	25784
822.569	25902
822.709	25841
822.849	25571
822.99	25715
823.13	25571
823.27	25613
823.41	25441
823.55	25403
823.69	25510
823.83	25479
823.97	25438
824.11	25274
824.25	25202
824.389	25175
824.529	25487
824.669	25175
824.809	25422
824.949	25282
825.089	25301
825.228	25346
825.368	25148
825.508	25118
825.648	25190
825.787	25171
825.927	25392
826.067	25148
826.206	25095
826.346	25240
826.485	25202
826.625	25129
826.765	25240
826.904	25263
827.044	24954
827.183	24859
827.323	24989
827.462	24859
827.601	24840
827.741	24878
827.88	24848
828.02	24844
828.159	24730
828.298	24867
828.437	24985
828.577	24802
828.716	24954
828.855	24650
828.994	24677
829.134	24483
829.273	24681
829.412	24498
829.551	24570
829.69	24452
829.829	24570
829.968	24700
830.107	24578
830.246	24547
830.385	24475
830.524	24311
830.663	24369
830.802	24213
830.941	24174
831.08	24041
831.219	24205
831.357	24258
831.496	24353
831.635	24049
831.774	24060
831.913	24007
832.051	23942
832.19	23828
832.329	24030
832.467	23916
832.606	23760
832.744	23802
832.883	23722
833.022	23786
833.16	23847
833.299	23950
833.437	23802
833.576	23950
833.714	23889
833.852	23863
833.991	23992
834.129	23870
834.267	23946
834.406	23794
834.544	23897
834.682	23904
834.821	23874
834.959	24041
835.097	23965
835.235	23897
835.373	23859
835.511	23851
835.65	23741
835.788	23672
835.926	23710
836.064	23505
836.202	23417
836.34	23573
836.478	23836
836.615	23615
836.753	23726
836.891	23870
837.029	23779
837.167	23714
837.305	23642
837.443	23566
837.58	23554
837.718	23672
837.856	23710
837.993	23497
838.131	23516
838.269	23414
838.406	23528
838.544	23372
838.681	23151
838.819	23151
838.956	23067
839.094	23052
839.231	23079
839.369	23269
839.506	23429
839.643	23265
839.781	23060
839.918	23010
840.055	22946
840.193	23056
840.33	22915
840.467	23033
840.604	22965
840.742	23189
840.879	22733
841.016	22835
841.153	23022
841.29	22930
841.427	22873
841.564	23006
841.701	22995
841.838	22934
841.975	22866
842.112	22877
842.249	22729
842.385	22713
842.522	22919
842.659	22733
842.796	22847
842.933	22721
843.069	22721
843.206	22733
843.343	22748
843.479	22607
843.616	22790
843.752	22516
843.889	22485
844.025	22485
844.162	22459
844.298	22584
844.435	22580
844.571	22478
844.708	22535
844.844	22531
844.98	22691
845.117	22599
845.253	22554
845.389	22325
845.525	22314
845.661	22325
845.798	22200
845.934	22280
846.07	22131
846.206	22272
846.342	22367
846.478	22120
846.614	22086
846.75	21819
846.886	21934
847.022	22036
847.158	21911
847.294	21956
847.429	21983
847.565	21884
847.701	22055
847.837	21618
847.972	21694
848.108	21743
848.244	21812
848.379	21633
848.515	21591
848.65	21542
848.786	21606
848.921	21576
849.057	21568
849.192	21671
849.328	21454
849.463	21526
849.598	21568
849.734	21389
849.869	21416
850.004	21332
850.14	21408
850.275	21424
850.41	21363
850.545	21245
850.68	21412
850.815	21344
850.95	21294
851.085	21488
851.22	21458
851.355	21359
851.49	21348
851.625	21260
851.76	21226
851.895	21165
852.03	21180
852.165	21260
852.299	21367
852.434	21340
852.569	21348
852.703	21344
852.838	21348
852.973	21447
853.107	21393
853.242	21226
853.376	21199
853.511	20994
853.645	21077
853.78	21237
853.914	21123
854.048	21020
854.183	21184
854.317	21173
854.451	21389
854.585	21047
854.72	21283
854.854	21165
854.988	21108
855.122	21275
855.256	20975
855.39	21180
855.524	21150
855.658	21070
855.792	21104
855.926	21157
856.06	21127
856.194	21169
856.327	21108
856.461	21051
856.595	21032
856.729	21310
856.862	21298
856.996	21161
857.13	21264
857.263	21195
857.397	21291
857.53	21108
857.664	21203
857.797	21218
857.931	21218
858.064	21062
858.197	21291
858.331	21142
858.464	21142
858.597	20967
858.731	21104
858.864	21085
858.997	21165
859.13	21165
859.263	21150
859.396	21112
859.529	21123
859.662	21108
859.795	21085
859.928	21127
860.061	21237
860.194	21268
860.327	21211
860.46	21074
860.592	21329
860.725	21245
860.858	21226
860.99	21203
861.123	21013
861.256	21173
861.388	21169
861.521	21918
861.653	21051
861.786	20887
861.918	20906
862.05	21096
862.183	21066
862.315	21195
862.447	21226
862.58	21093
862.712	20845
862.844	20750
862.976	20925
863.108	20845
863.24	21336
863.372	20788
863.504	20895
863.636	20857
863.768	20830
863.9	20857
864.032	20758
864.164	20788
864.296	20746
864.428	20952
864.559	20864
864.691	20876
864.823	20762
864.954	20925
865.086	20880
865.217	20826
865.349	20674
865.48	20849
865.612	20800
865.743	20838
865.875	20769
866.006	20746
866.137	20739
866.269	20689
866.4	20689
866.531	20705
866.662	20716
866.793	20758
866.924	20716
867.055	20678
867.186	20678
867.317	20682
867.448	20674
867.579	20579
867.71	20537
867.841	20583
867.972	20689
868.103	20682
868.233	20636
868.364	20648
868.495	20842
868.625	20842
868.756	20921
868.886	20849
869.017	20929
869.147	21001
869.278	20971
869.408	20876
869.539	20994
869.669	20944
869.799	21116
869.929	21013
870.06	20956
870.19	21233
870.32	21249
870.45	21321
870.58	21313
870.71	21447
870.84	21363
870.97	21294
871.1	21218
871.23	21561
871.36	21580
871.489	21511
871.619	21466
871.749	21523
871.879	21500
872.008	21656
872.138	21568
872.267	21545
872.397	21435
872.526	21405
872.656	21340
872.785	21382
872.915	21492
873.044	21690
873.173	21447
873.303	21545
873.432	21591
873.561	21698
873.69	21671
873.819	21583
873.948	21507
874.077	21622
874.206	21401
874.335	21576
874.464	21701
874.593	21827
874.722	21739
874.851	21797
874.979	21823
875.108	21831
875.237	21743
875.365	21553
875.494	21739
875.623	21793
875.751	21774
875.88	21751
876.008	21808
876.136	22013
876.265	22166
876.393	22272
876.521	22299
876.65	22276
876.778	22207
876.906	22097
877.034	22051
877.162	22086
877.29	21983
877.418	22090
877.546	22192
877.674	22006
877.802	22093
877.93	22090
878.058	22242
878.185	21953
878.313	22063
878.441	22185
878.568	21903
878.696	22036
878.824	22162
878.951	22204
879.079	22367
879.206	22436
879.333	22284
879.461	22192
879.588	22382
879.715	22333
879.842	22386
879.97	22341
880.097	22032
880.224	22017
880.351	21998
880.478	21903
880.605	21930
880.732	21846
880.859	22135
880.986	21842
881.112	22044
881.239	21793
881.366	21549
881.493	21724
881.619	21545
881.746	21641
881.872	21583
881.999	21485
882.125	21591
882.252	21500
882.378	21500
882.505	21523
882.631	21370
882.757	21211
882.883	21233
883.01	21249
883.136	21184
883.262	21058
883.388	21074
883.514	21275
883.64	21272
883.766	21214
883.892	20960
884.018	21013
884.143	21161
884.269	21256
884.395	20979
884.52	20773
884.646	20872
884.772	20792
884.897	20765
885.023	20880
885.148	21089
885.274	21024
885.399	20979
885.524	20857
885.65	20807
885.775	20899
885.9	20830
886.025	21039
886.15	20998
886.275	20857
886.4	20785
886.525	20800
886.65	20815
886.775	20743
886.9	20868
887.025	21066
887.149	20941
887.274	20617
887.399	20625
887.523	20644
887.648	20571
887.773	20583
887.897	20648
888.021	20785
888.146	20689
888.27	20670
888.395	20724
888.519	20606
888.643	20640
888.767	20750
888.891	20450
889.015	20431
889.139	20446
889.263	20499
889.387	20473
889.511	20731
889.635	20522
889.759	20434
889.883	20423
890.006	20465
890.13	20556
890.254	20446
890.377	20377
890.501	20206
890.624	20187
890.748	20237
890.871	20046
890.995	20024
891.118	20005
891.241	20088
891.364	20096
891.488	20069
891.611	20069
891.734	19970
891.857	20142
891.98	20054
892.103	20134
892.226	19993
892.349	19944
892.471	19822
892.594	19955
892.717	19944
892.839	19879
892.962	19849
893.085	20016
893.207	19902
893.33	19761
893.452	19978
893.575	19955
893.697	19818
893.819	20225
893.941	20088
894.064	19959
894.186	19894
894.308	19955
894.43	20005
894.552	20031
894.674	19959
894.796	19906
894.918	19822
895.04	19837
895.161	19940
895.283	20062
895.405	19807
895.526	19921
895.648	20012
895.769	20046
895.891	20020
896.012	20020
896.134	19986
896.255	19963
896.376	19890
896.498	19860
896.619	19974
896.74	19925
896.861	20065
896.982	20233
897.103	20332
897.224	20191
897.345	20115
897.466	19993
897.587	20088
897.708	20301
897.828	20126
897.949	20126
898.07	20046
898.19	20122
898.311	20282
898.431	20046
898.552	20202
898.672	20103
898.792	20233
898.913	20267
899.033	20073
899.153	20065
899.273	19860
899.393	19887
899.513	19925
899.633	19871
899.753	20031
899.873	19860
899.993	19837
900.113	19875
900.232	19917
900.352	19803
900.472	19685
900.591	19734
900.711	19696
900.83	19647
900.95	19795
901.069	19658
901.189	19635
901.308	19346
901.427	19285
901.546	19209
901.665	19335
901.784	19293
901.904	19297
902.023	19164
902.141	18837
902.26	18787
902.379	19080
902.498	18749
902.617	18833
902.735	18806
902.854	18806
902.973	18673
903.091	18506
903.21	18407
903.328	18517
903.446	18464
903.565	18186
903.683	18323
903.801	18144
903.919	18205
904.038	18190
904.156	18106
904.274	18019
904.392	17996
904.51	18064
904.627	17965
904.745	18019
904.863	18213
904.981	17786
905.098	17790
905.216	17680
905.334	17798
905.451	17817
905.569	17653
905.686	17707
905.803	17733
905.921	17505
906.038	17619
906.155	17509
906.272	17417
906.389	17406
906.506	17250
906.623	17258
906.74	17212
906.857	17227
906.974	17223
907.091	17349
907.208	17284
907.324	17296
907.441	17220
907.557	16972
907.674	17136
907.79	16866
907.907	16908
908.023	17056
908.139	16999
908.256	16877
908.372	16850
908.488	16854
908.604	16706
908.72	16679
908.836	16839
908.952	16649
909.068	16675
909.184	16771
909.3	16645
909.415	16725
909.531	16698
909.647	16436
909.762	16405
909.878	16405
909.993	16428
910.108	16348
910.224	16341
910.339	16337
910.454	16150
910.57	16196
910.685	16097
910.8	16394
910.915	16363
911.03	16207
911.145	16013
911.259	15930
911.374	15934
911.489	15892
911.604	15911
911.718	15679
911.833	15732
911.947	15641
912.062	15564
912.176	15720
912.291	15785
912.405	15766
912.519	15911
912.633	15918
912.748	15785
912.862	15705
912.976	15481
913.09	15386
913.204	15420
913.318	15671
913.431	15584
913.545	15595
913.659	15656
913.772	15450
913.886	15363
914	15374
914.113	15401
914.226	15576
914.34	15485
914.453	15169
914.566	15279
914.68	15222
914.793	15245
914.906	15062
915.019	14986
915.132	14982
915.245	14899
915.358	15009
915.47	14895
915.583	14891
915.696	15001
915.809	15119
915.921	15169
916.034	14902
916.146	14883
916.259	14876
916.371	14933
916.483	14975
916.595	14769
916.708	14724
916.82	14788
916.932	14651
917.044	14693
917.156	14655
917.268	14594
917.38	14648
917.491	14667
917.603	14636
917.715	14701
917.826	14667
917.938	14621
918.049	14465
918.161	14545
918.272	14629
918.384	14697
918.495	14552
918.606	14328
918.717	14374
918.828	14465
918.939	14377
919.05	14366
919.161	14355
919.272	14142
919.383	14332
919.494	14377
919.604	14640
919.715	14374
919.826	14351
919.936	14347
920.047	14495
920.157	14454
920.267	14469
920.378	14328
920.488	14415
920.598	14575
920.708	14625
920.818	14511
920.928	14480
921.038	14606
921.148	14579
921.258	14427
921.368	14286
921.477	14145
921.587	14119
921.697	13978
921.806	14138
921.916	13967
922.025	13746
922.134	13769
922.244	13753
922.353	13765
922.462	13632
922.571	13582
922.68	13411
922.789	13373
922.898	13346
923.007	13350
923.116	13381
923.224	13304
923.333	13324
923.442	13133
923.55	13133
923.659	13282
923.767	13244
923.876	13133
923.984	13225
924.092	13015
924.201	13168
924.309	13202
924.417	13133
924.525	13137
924.633	13126
924.741	14005
924.849	12825
924.956	13012
925.064	12886
925.172	12684
925.279	12905
925.387	12768
925.494	12829
925.602	12932
925.709	12844
925.816	12703
925.924	12749
926.031	12760
926.138	12711
926.245	12795
926.352	12787
926.459	12863
926.566	12852
926.673	12688
926.779	12623
926.886	12574
926.993	12418
927.099	12334
927.206	12350
927.312	12399
927.419	12464
927.525	12342
927.631	12429
927.737	12232
927.843	12201
927.95	12060
928.056	12190
928.162	12239
928.267	12319
928.373	12859
928.479	12296
928.585	12057
928.69	12148
928.796	12277
928.901	12068
929.007	11992
929.112	12091
929.218	12106
929.323	12057
929.428	11969
929.533	12072
929.638	11836
929.743	11923
929.848	11973
929.953	11897
930.058	11805
930.163	11554
930.267	11642
930.372	11741
930.477	11551
930.581	11920
930.685	11695
930.79	11493
930.894	11573
930.998	11520
931.103	11608
931.207	11360
931.311	11231
931.415	11155
931.519	10965
931.623	10972
