Data from test_V78500241_1025.txt Node
Date: Fri Mar 25 15:48:54 CST 2022
User: usil
Spectrometer: V785-0024
Trigger mode: 0
Integration Time (sec): 4.000000E-1
Scans to average: 1
Nonlinearity correction enabled: false
Boxcar width: 0
Storing dark spectrum: false
XAxis mode: Wavelengths
Number of Pixels in Spectrum: 1024
>>>>>Begin Spectral Data<<<<<
801.071	28352
801.214	28344
801.356	27975
801.499	28029
801.641	27937
801.783	27789
801.926	27968
802.068	27850
802.211	27755
802.353	27663
802.496	27545
802.638	27443
802.78	27580
802.923	27481
803.065	27386
803.208	27424
803.35	27458
803.492	27564
803.635	27751
803.777	27591
803.919	27682
804.061	28101
804.204	27842
804.346	27561
804.488	27492
804.63	27618
804.773	27671
804.915	27694
805.057	27846
805.199	27675
805.341	27823
805.483	27873
805.626	27812
805.768	27701
805.91	27934
806.052	27835
806.194	27907
806.336	28025
806.478	28048
806.62	27941
806.762	27888
806.904	28257
807.046	28443
807.188	28188
807.33	28329
807.472	28432
807.614	28211
807.756	28337
807.898	28185
808.04	28139
808.182	28120
808.324	28124
808.465	28276
808.607	28436
808.749	28626
808.891	28554
809.033	28668
809.174	28641
809.316	28413
809.458	28538
809.6	28596
809.741	28721
809.883	28713
810.025	28885
810.166	28831
810.308	28892
810.45	28809
810.591	28812
810.733	28603
810.875	28641
811.016	28535
811.158	28352
811.299	28569
811.441	28736
811.582	28869
811.724	28596
811.865	28664
812.007	28641
812.148	28569
812.29	28615
812.431	28755
812.573	28892
812.714	29029
812.855	29113
812.997	29223
813.138	29349
813.279	29200
813.421	29113
813.562	29128
813.703	28869
813.845	28896
813.986	28554
814.127	28459
814.268	28268
814.41	28257
814.551	28265
814.692	28246
814.833	28242
814.974	28211
815.115	28303
815.256	27972
815.397	28192
815.539	28200
815.68	28147
815.821	27953
815.962	28177
816.103	28109
816.244	27953
816.385	27861
816.526	27713
816.666	27728
816.807	27606
816.948	27564
817.089	27698
817.23	27637
817.371	27542
817.512	27576
817.653	27488
817.793	27606
817.934	27660
818.075	27542
818.216	27580
818.356	27507
818.497	27344
818.638	27237
818.778	27367
818.919	27427
819.06	27462
819.2	27378
819.341	27583
819.481	27545
819.622	27701
819.762	27755
819.903	27835
820.043	27713
820.184	27644
820.324	27526
820.465	27774
820.605	27774
820.746	27717
820.886	27637
821.026	27500
821.167	27580
821.307	27644
821.447	27542
821.588	27595
821.728	27401
821.868	27119
822.008	27043
822.149	27108
822.289	27009
822.429	26800
822.569	26750
822.709	26735
822.849	26480
822.99	26568
823.13	26594
823.27	26552
823.41	26473
823.55	26317
823.69	26389
823.83	26358
823.97	26202
824.11	26225
824.25	26043
824.389	26313
824.529	26202
824.669	26164
824.809	26362
824.949	26385
825.089	26191
825.228	26298
825.368	26005
825.508	26145
825.648	26046
825.787	26084
825.927	26187
826.067	26016
826.206	26122
826.346	25982
826.485	26164
826.625	26111
826.765	26225
826.904	26130
827.044	25704
827.183	25898
827.323	25727
827.462	25887
827.601	25826
827.741	25799
827.88	25902
828.02	25643
828.159	25750
828.298	25784
828.437	25837
828.577	25723
828.716	25906
828.855	25693
828.994	25518
829.134	25415
829.273	25468
829.412	25464
829.551	25434
829.69	25476
829.829	25537
829.968	25483
830.107	25529
830.246	25479
830.385	25400
830.524	25358
830.663	25373
830.802	25255
830.941	25122
831.08	25110
831.219	25084
831.357	25297
831.496	25304
831.635	25156
831.774	25091
831.913	25015
832.051	24943
832.19	24837
832.329	24924
832.467	24779
832.606	24692
832.744	24711
832.883	24856
833.022	24673
833.16	24753
833.299	24886
833.437	24745
833.576	24958
833.714	24741
833.852	24825
833.991	24947
834.129	24951
834.267	24882
834.406	24852
834.544	24772
834.682	24779
834.821	24757
834.959	24882
835.097	24768
835.235	24764
835.373	24837
835.511	24833
835.65	24688
835.788	24559
835.926	24456
836.064	24475
836.202	24479
836.34	24623
836.478	24776
836.615	24608
836.753	24593
836.891	24700
837.029	24525
837.167	24612
837.305	24544
837.443	24429
837.58	24513
837.718	24467
837.856	24509
837.993	24369
838.131	24414
838.269	24361
838.406	24281
838.544	24338
838.681	24171
838.819	24117
838.956	24045
839.094	23878
839.231	23847
839.369	24201
839.506	24403
839.643	24315
839.781	23897
839.918	23988
840.055	23859
840.193	23885
840.33	23893
840.467	23916
840.604	23927
840.742	24194
840.879	23923
841.016	23745
841.153	23809
841.29	23946
841.427	23859
841.564	23809
841.701	23927
841.838	23882
841.975	23710
842.112	23680
842.249	23668
842.385	23543
842.522	23897
842.659	23737
842.796	23661
842.933	23634
843.069	23547
843.206	23467
843.343	23687
843.479	23600
843.616	23665
843.752	23337
843.889	23429
844.025	23478
844.162	23337
844.298	23444
844.435	23421
844.571	23387
844.708	23535
844.844	23398
844.98	23611
845.117	23501
845.253	23311
845.389	23197
845.525	23353
845.661	23204
845.798	23204
845.934	23174
846.07	23124
846.206	23258
846.342	23303
846.478	23155
846.614	22869
846.75	22793
846.886	22782
847.022	22919
847.158	22904
847.294	22892
847.429	22862
847.565	22869
847.701	22987
847.837	22660
847.972	22580
848.108	22618
848.244	22607
848.379	22375
848.515	22424
848.65	22356
848.786	22371
848.921	22451
849.057	22466
849.192	22512
849.328	22409
849.463	22329
849.598	22325
849.734	22363
849.869	22318
850.004	22337
850.14	22261
850.275	22196
850.41	22013
850.545	22147
850.68	22051
850.815	22265
850.95	22204
851.085	22341
851.22	22246
851.355	22268
851.49	22207
851.625	22192
851.76	22276
851.895	22181
852.03	22169
852.165	22154
852.299	22169
852.434	22223
852.569	22211
852.703	22105
852.838	22249
852.973	22371
853.107	22291
853.242	22272
853.376	22101
853.511	21835
853.645	22078
853.78	22097
853.914	22124
854.048	22059
854.183	21972
854.317	21915
854.451	22162
854.585	22017
854.72	22051
854.854	22112
854.988	21918
855.122	21926
855.256	21869
855.39	22063
855.524	22025
855.658	22112
855.792	22078
855.926	22017
856.06	22131
856.194	22044
856.327	22006
856.461	21994
856.595	21941
856.729	22021
856.862	22143
856.996	22101
857.13	22036
857.263	22318
857.397	22154
857.53	21949
857.664	22090
857.797	22059
857.931	22074
858.064	22082
858.197	22234
858.331	22074
858.464	21987
858.597	21915
858.731	21934
858.864	21945
858.997	22017
859.13	22086
859.263	22090
859.396	22105
859.529	21991
859.662	21994
859.795	21915
859.928	22044
860.061	22200
860.194	22196
860.327	22101
860.46	22082
860.592	22131
860.725	22265
860.858	22177
860.99	21983
861.123	21850
861.256	22002
861.388	22032
861.521	22896
861.653	21953
861.786	21812
861.918	21888
862.05	21941
862.183	22006
862.315	22051
862.447	22128
862.58	21903
862.712	21747
862.844	21720
862.976	21713
863.108	21831
863.24	22238
863.372	21755
863.504	21823
863.636	21648
863.768	21747
863.9	21838
864.032	21606
864.164	21660
864.296	21827
864.428	21812
864.559	21724
864.691	21709
864.823	21690
864.954	21713
865.086	21610
865.217	21648
865.349	21519
865.48	21534
865.612	21477
865.743	21595
865.875	21682
866.006	21519
866.137	21622
866.269	21530
866.4	21652
866.531	21663
866.662	21538
866.793	21648
866.924	21625
867.055	21656
867.186	21648
867.317	21477
867.448	21545
867.579	21488
867.71	21500
867.841	21492
867.972	21530
868.103	21648
868.233	21618
868.364	21652
868.495	21564
868.625	21793
868.756	21857
868.886	21816
869.017	21880
869.147	21827
869.278	21854
869.408	21713
869.539	21816
869.669	21979
869.799	21789
869.929	21953
870.06	21876
870.19	22002
870.32	22067
870.45	22196
870.58	22135
870.71	22295
870.84	22325
870.97	22135
871.1	22162
871.23	22276
871.36	22322
871.489	22299
871.619	22322
871.749	22299
871.879	22394
872.008	22607
872.138	22303
872.267	22333
872.397	22166
872.526	22177
872.656	22124
872.785	22192
872.915	22382
873.044	22470
873.173	22402
873.303	22394
873.432	22451
873.561	22481
873.69	22409
873.819	22497
873.948	22481
874.077	22360
874.206	22474
874.335	22356
874.464	22538
874.593	22615
874.722	22717
874.851	22637
874.979	22630
875.108	22698
875.237	22584
875.365	22542
875.494	22550
875.623	22611
875.751	22656
875.88	22592
876.008	22698
876.136	22835
876.265	23018
876.393	23056
876.521	23083
876.65	23067
876.778	22991
876.906	22900
877.034	22987
877.162	22980
877.29	22877
877.418	22938
877.546	22953
877.674	22953
877.802	22927
877.93	22942
878.058	22957
878.185	22774
878.313	22923
878.441	22949
878.568	22771
878.696	22930
878.824	23010
878.951	23086
879.079	23277
879.206	23277
879.333	23170
879.461	22934
879.588	23018
879.715	23090
879.842	23174
879.97	23086
880.097	22911
880.224	22729
880.351	22790
880.478	22824
880.605	22649
880.732	22759
880.859	23010
880.986	22748
881.112	22767
881.239	22672
881.366	22432
881.493	22413
881.619	22443
881.746	22375
881.872	22386
881.999	22303
882.125	22329
882.252	22272
882.378	22341
882.505	22424
882.631	22276
882.757	22082
882.883	22097
883.01	22040
883.136	21880
883.262	22078
883.388	21956
883.514	22143
883.64	21994
883.766	21972
883.892	21781
884.018	21827
884.143	21994
884.269	22082
884.395	21797
884.52	21496
884.646	21690
884.772	21557
884.897	21545
885.023	21625
885.148	21751
885.274	21892
885.399	21766
885.524	21751
885.65	21671
885.775	21759
885.9	21717
886.025	21778
886.15	21698
886.275	21648
886.4	21682
886.525	21633
886.65	21610
886.775	21610
886.9	21633
887.025	21930
887.149	21705
887.274	21538
887.399	21439
887.523	21389
887.648	21447
887.773	21256
887.897	21443
888.021	21454
888.146	21393
888.27	21603
888.395	21595
888.519	21485
888.643	21439
888.767	21428
888.891	21233
889.015	21214
889.139	21306
889.263	21230
889.387	21332
889.511	21481
889.635	21424
889.759	21211
889.883	21233
890.006	21135
890.13	21218
890.254	21093
890.377	21096
890.501	21051
890.624	20952
890.748	21058
890.871	20899
890.995	20788
891.118	20689
891.241	20800
891.364	20781
891.488	20948
891.611	20861
891.734	20788
891.857	20746
891.98	20705
892.103	20891
892.226	20796
892.349	20621
892.471	20480
892.594	20651
892.717	20667
892.839	20636
892.962	20705
893.085	20830
893.207	20712
893.33	20579
893.452	20556
893.575	20678
893.697	20632
893.819	20937
893.941	20914
894.064	20754
894.186	20663
894.308	20598
894.43	20720
894.552	20708
894.674	20735
894.796	20571
894.918	20667
895.04	20693
895.161	20663
895.283	20663
895.405	20625
895.526	20659
895.648	20678
895.769	20530
895.891	20693
896.012	20705
896.134	20731
896.255	20712
896.376	20514
896.498	20815
896.619	20667
896.74	20724
896.861	20727
896.982	20941
897.103	21150
897.224	21005
897.345	20982
897.466	20800
897.587	20876
897.708	20986
897.828	20944
897.949	20838
898.07	20705
898.19	20743
898.311	20952
898.431	20842
898.552	20929
898.672	20998
898.792	20998
898.913	20800
899.033	20640
899.153	20674
899.273	20549
899.393	20590
899.513	20686
899.633	20549
899.753	20678
899.873	20537
899.993	20636
900.113	20530
900.232	20556
900.352	20423
900.472	20492
900.591	20282
900.711	20423
900.83	20396
900.95	20594
901.069	20552
901.189	20381
901.308	20092
901.427	19978
901.546	20062
901.665	19894
901.784	19887
901.904	19757
902.023	19757
902.141	19514
902.26	19525
902.379	19575
902.498	19491
902.617	19407
902.735	19499
902.854	19449
902.973	19346
903.091	19080
903.21	19160
903.328	19202
903.446	19038
903.565	18886
903.683	18935
903.801	18741
903.919	18894
904.038	18863
904.156	18593
904.274	18791
904.392	18661
904.51	18715
904.627	18642
904.745	18726
904.863	18852
904.981	18513
905.098	18429
905.216	18372
905.334	18376
905.451	18251
905.569	18327
905.686	18437
905.803	18399
905.921	18171
906.038	18209
906.155	18205
906.272	18152
906.389	18091
906.506	17904
906.623	17863
906.74	17961
906.857	17764
906.974	17817
907.091	17874
907.208	17988
907.324	17946
907.441	17851
907.557	17672
907.674	17608
907.79	17585
907.907	17623
908.023	17554
908.139	17611
908.256	17467
908.372	17532
908.488	17512
908.604	17353
908.72	17337
908.836	17296
908.952	17284
909.068	17204
909.184	17391
909.3	17341
909.415	17379
909.531	17200
909.647	17136
909.762	17003
909.878	17006
909.993	16965
910.108	16957
910.224	16972
910.339	17052
910.454	16896
910.57	16835
910.685	16687
910.8	17025
910.915	16999
911.03	16801
911.145	16626
911.259	16478
911.374	16573
911.489	16523
911.604	16512
911.718	16356
911.833	16295
911.947	16291
912.062	16284
912.176	16337
912.291	16367
912.405	16310
912.519	16573
912.633	16508
912.748	16192
912.862	16291
912.976	16124
913.09	16010
913.204	16124
913.318	16147
913.431	16276
913.545	16211
913.659	16139
913.772	16051
913.886	16021
914	15926
914.113	16093
914.226	16044
914.34	16032
914.453	15873
914.566	16021
914.68	15892
914.793	15717
914.906	15564
915.019	15549
915.132	15481
915.245	15492
915.358	15648
915.47	15542
915.583	15492
915.696	15542
915.809	15705
915.921	15633
916.034	15363
916.146	15435
916.259	15412
916.371	15572
916.483	15519
916.595	15268
916.708	15389
916.82	15302
916.932	15397
917.044	15310
917.156	15298
917.268	15157
917.38	15150
917.491	15138
917.603	15180
917.715	15310
917.826	15214
917.938	15188
918.049	15032
918.161	15176
918.272	15256
918.384	15252
918.495	15104
918.606	14906
918.717	14910
918.828	14963
918.939	14895
919.05	14842
919.161	14876
919.272	14823
919.383	14895
919.494	14891
919.604	15043
919.715	14906
919.826	14750
919.936	14777
920.047	14975
920.157	14887
920.267	14960
920.378	14891
920.488	14956
920.598	14990
920.708	15123
920.818	14986
920.928	15028
921.038	15131
921.148	15104
921.258	14849
921.368	14750
921.477	14659
921.587	14689
921.697	14499
921.806	14602
921.916	14514
922.025	14294
922.134	14267
922.244	14263
922.353	14286
922.462	14119
922.571	14153
922.68	13967
922.789	13887
922.898	13917
923.007	13818
923.116	13898
923.224	13849
923.333	13769
923.442	13788
923.55	13681
923.659	13715
923.767	13761
923.876	13719
923.984	13757
924.092	13674
924.201	13655
924.309	13578
924.417	13590
924.525	13556
924.633	13582
924.741	14412
924.849	13339
924.956	13472
925.064	13400
925.172	13297
925.279	13255
925.387	13289
925.494	13301
925.602	13301
925.709	13362
925.816	13221
925.924	13202
926.031	13308
926.138	13316
926.245	13240
926.352	13141
926.459	13209
926.566	13312
926.673	13137
926.779	13053
926.886	13107
926.993	12920
927.099	12852
927.206	12798
927.312	12844
927.419	12886
927.525	12882
927.631	12856
927.737	12749
927.843	12665
927.95	12464
928.056	12665
928.162	12620
928.267	12719
928.373	13240
928.479	12726
928.585	12448
928.69	12642
928.796	12620
928.901	12509
929.007	12486
929.112	12479
929.218	12555
929.323	12418
929.428	12338
929.533	12452
929.638	12342
929.743	12300
929.848	12376
929.953	12304
930.058	12243
930.163	11973
930.267	12102
930.372	12144
930.477	12030
930.581	12232
930.685	12041
930.79	11908
930.894	11973
930.998	11942
931.103	12175
931.207	11676
931.311	11551
931.415	11474
931.519	11280
931.623	11353
