Data from test_V78500241_1122.txt Node
Date: Fri Mar 25 15:49:34 CST 2022
User: usil
Spectrometer: V785-0024
Trigger mode: 0
Integration Time (sec): 4.000000E-1
Scans to average: 1
Nonlinearity correction enabled: false
Boxcar width: 0
Storing dark spectrum: false
XAxis mode: Wavelengths
Number of Pixels in Spectrum: 1024
>>>>>Begin Spectral Data<<<<<
801.071	28649
801.214	28653
801.356	28466
801.499	28375
801.641	28360
801.783	28341
801.926	28386
802.068	28265
802.211	28310
802.353	27975
802.496	28006
802.638	27789
802.78	27930
802.923	27899
803.065	27816
803.208	27895
803.35	27899
803.492	28204
803.635	28029
803.777	28093
803.919	28158
804.061	28360
804.204	28257
804.346	28162
804.488	28021
804.63	28223
804.773	28059
804.915	28272
805.057	28287
805.199	28268
805.341	28371
805.483	28535
805.626	28329
805.768	28276
805.91	28356
806.052	28261
806.194	28238
806.336	28546
806.478	28447
806.62	28432
806.762	28523
806.904	28668
807.046	28869
807.188	28729
807.33	28755
807.472	28915
807.614	28763
807.756	28797
807.898	28740
808.04	28630
808.182	28573
808.324	28736
808.465	28786
808.607	28839
808.749	29067
808.891	29151
809.033	29174
809.174	29159
809.316	28984
809.458	29086
809.6	28957
809.741	29231
809.883	29151
810.025	29349
810.166	29341
810.308	29421
810.45	29299
810.591	29246
810.733	29174
810.875	28995
811.016	29060
811.158	28904
811.299	29204
811.441	29239
811.582	29269
811.724	29284
811.865	29090
812.007	29113
812.148	29071
812.29	29128
812.431	29239
812.573	29345
812.714	29444
812.855	29596
812.997	29608
813.138	29840
813.279	29737
813.421	29707
813.562	29535
813.703	29410
813.845	29296
813.986	29105
814.127	28881
814.268	28847
814.41	28847
814.551	28717
814.692	28892
814.833	28843
814.974	28748
815.115	28752
815.256	28790
815.397	28634
815.539	28664
815.68	28573
815.821	28512
815.962	28683
816.103	28660
816.244	28535
816.385	28413
816.526	28337
816.666	28238
816.807	28086
816.948	28131
817.089	28276
817.23	28226
817.371	28188
817.512	28299
817.653	28040
817.793	28021
817.934	28287
818.075	28234
818.216	28105
818.356	28097
818.497	28105
818.638	27846
818.778	27903
818.919	27888
819.06	27926
819.2	27937
819.341	28090
819.481	28067
819.622	28421
819.762	28554
819.903	28481
820.043	28390
820.184	28363
820.324	28246
820.465	28382
820.605	28265
820.746	28234
820.886	28116
821.026	28276
821.167	28249
821.307	28318
821.447	28223
821.588	28124
821.728	27835
821.868	27682
822.008	27690
822.149	27610
822.289	27698
822.429	27412
822.569	27344
822.709	27222
822.849	27093
822.99	27112
823.13	27047
823.27	26963
823.41	26937
823.55	26804
823.69	27024
823.83	26944
823.97	26956
824.11	26823
824.25	26861
824.389	26716
824.529	26819
824.669	26781
824.809	26899
824.949	26845
825.089	26769
825.228	26864
825.368	26587
825.508	26697
825.648	26648
825.787	26765
825.927	26731
826.067	26758
826.206	26750
826.346	26731
826.485	26735
826.625	26495
826.765	26708
826.904	26697
827.044	26484
827.183	26549
827.323	26374
827.462	26518
827.601	26537
827.741	26362
827.88	26370
828.02	26275
828.159	26343
828.298	26355
828.437	26511
828.577	26366
828.716	26465
828.855	26294
828.994	26050
829.134	26043
829.273	26267
829.412	26065
829.551	26031
829.69	26161
829.829	26115
829.968	26046
830.107	26164
830.246	26164
830.385	26027
830.524	25966
830.663	25989
830.802	25841
830.941	25738
831.08	25597
831.219	25734
831.357	25769
831.496	26081
831.635	25559
831.774	25666
831.913	25738
832.051	25468
832.19	25571
832.329	25559
832.467	25278
832.606	25483
832.744	25396
832.883	25308
833.022	25362
833.16	25316
833.299	25339
833.437	25377
833.576	25453
833.714	25457
833.852	25476
833.991	25384
834.129	25548
834.267	25346
834.406	25415
834.544	25479
834.682	25506
834.821	25453
834.959	25639
835.097	25403
835.235	25354
835.373	25362
835.511	25392
835.65	25225
835.788	25285
835.926	25118
836.064	24970
836.202	25088
836.34	25244
836.478	25285
836.615	25285
836.753	25308
836.891	25358
837.029	25217
837.167	25027
837.305	25152
837.443	25091
837.58	25072
837.718	25213
837.856	24992
837.993	25099
838.131	24939
838.269	24916
838.406	25000
838.544	24745
838.681	24734
838.819	24753
838.956	24513
839.094	24502
839.231	24734
839.369	24661
839.506	25004
839.643	24886
839.781	24494
839.918	24559
840.055	24513
840.193	24551
840.33	24437
840.467	24372
840.604	24608
840.742	24700
840.879	24304
841.016	24391
841.153	24334
841.29	24570
841.427	24505
841.564	24429
841.701	24502
841.838	24502
841.975	24292
842.112	24353
842.249	24323
842.385	24350
842.522	24414
842.659	24205
842.796	24079
842.933	24121
843.069	24144
843.206	24083
843.343	24213
843.479	24201
843.616	24216
843.752	24011
843.889	23961
844.025	24133
844.162	23942
844.298	24140
844.435	23920
844.571	23828
844.708	23939
844.844	24152
844.98	24057
845.117	24117
845.253	23908
845.389	23821
845.525	23889
845.661	23859
845.798	23718
845.934	23745
846.07	23619
846.206	23790
846.342	23779
846.478	23547
846.614	23509
846.75	23387
846.886	23429
847.022	23414
847.158	23482
847.294	23455
847.429	23334
847.565	23364
847.701	23589
847.837	23064
847.972	23235
848.108	23098
848.244	23227
848.379	23018
848.515	23025
848.65	22995
848.786	23109
848.921	23067
849.057	23056
849.192	23166
849.328	23094
849.463	22972
849.598	22934
849.734	22991
849.869	22839
850.004	22755
850.14	22778
850.275	22736
850.41	22694
850.545	22831
850.68	22744
850.815	22862
850.95	22759
851.085	22930
851.22	22961
851.355	22801
851.49	22824
851.625	22763
851.76	22713
851.895	22752
852.03	22831
852.165	22710
852.299	22805
852.434	22752
852.569	22828
852.703	22771
852.838	22793
852.973	22733
853.107	22946
853.242	22706
853.376	22573
853.511	22470
853.645	22474
853.78	22702
853.914	22542
854.048	22421
854.183	22519
854.317	22683
854.451	22793
854.585	22481
854.72	22637
854.854	22603
854.988	22664
855.122	22573
855.256	22417
855.39	22493
855.524	22603
855.658	22561
855.792	22565
855.926	22683
856.06	22569
856.194	22573
856.327	22660
856.461	22474
856.595	22470
856.729	22504
856.862	22710
856.996	22679
857.13	22607
857.263	22706
857.397	22706
857.53	22660
857.664	22538
857.797	22763
857.931	22759
858.064	22691
858.197	22691
858.331	22637
858.464	22565
858.597	22565
858.731	22516
858.864	22565
858.997	22405
859.13	22611
859.263	22554
859.396	22691
859.529	22538
859.662	22565
859.795	22527
859.928	22462
860.061	22752
860.194	22778
860.327	22569
860.46	22455
860.592	22744
860.725	22752
860.858	22702
860.99	22546
861.123	22630
861.256	22550
861.388	22569
861.521	23235
861.653	22394
861.786	22356
861.918	22405
862.05	22504
862.183	22580
862.315	22424
862.447	22459
862.58	22584
862.712	22230
862.844	22234
862.976	22310
863.108	22375
863.24	22691
863.372	22352
863.504	22306
863.636	22295
863.768	22257
863.9	22348
864.032	22291
864.164	22192
864.296	22268
864.428	22363
864.559	22341
864.691	22428
864.823	22287
864.954	22158
865.086	22230
865.217	22131
865.349	22116
865.48	22147
865.612	22093
865.743	22249
865.875	22154
866.006	22154
866.137	22029
866.269	22124
866.4	22150
866.531	22086
866.662	22025
866.793	22105
866.924	22112
867.055	21991
867.186	22017
867.317	22074
867.448	21934
867.579	22078
867.71	22013
867.841	21964
867.972	22078
868.103	22070
868.233	22143
868.364	21953
868.495	22219
868.625	22352
868.756	22390
868.886	22185
869.017	22402
869.147	22352
869.278	22333
869.408	22265
869.539	22265
869.669	22459
869.799	22428
869.929	22417
870.06	22474
870.19	22588
870.32	22649
870.45	22744
870.58	22668
870.71	22672
870.84	22759
870.97	22691
871.1	22725
871.23	22809
871.36	22957
871.489	22858
871.619	22835
871.749	23006
871.879	22927
872.008	23102
872.138	22999
872.267	22938
872.397	22850
872.526	22733
872.656	22820
872.785	22710
872.915	22953
873.044	22934
873.173	22900
873.303	23067
873.432	22942
873.561	23022
873.69	22980
873.819	22885
873.948	22987
874.077	22965
874.206	22889
874.335	22892
874.464	23128
874.593	23193
874.722	23174
874.851	23166
874.979	23216
875.108	23155
875.237	23090
875.365	23086
875.494	23022
875.623	23113
875.751	23048
875.88	23159
876.008	23212
876.136	23356
876.265	23608
876.393	23665
876.521	23531
876.65	23767
876.778	23528
876.906	23429
877.034	23531
877.162	23467
877.29	23448
877.418	23474
877.546	23414
877.674	23417
877.802	23535
877.93	23505
878.058	23383
878.185	23421
878.313	23558
878.441	23543
878.568	23383
878.696	23493
878.824	23448
878.951	23570
879.079	23627
879.206	23737
879.333	23676
879.461	23558
879.588	23535
879.715	23691
879.842	23642
879.97	23497
880.097	23322
880.224	23288
880.351	23277
880.478	23284
880.605	23094
880.732	23174
880.859	23509
880.986	23387
881.112	23337
881.239	23155
881.366	23109
881.493	22809
881.619	22816
881.746	22881
881.872	22816
881.999	22759
882.125	22801
882.252	22854
882.378	22778
882.505	22984
882.631	22561
882.757	22565
882.883	22649
883.01	22489
883.136	22409
883.262	22432
883.388	22314
883.514	22580
883.64	22641
883.766	22386
883.892	22192
884.018	22272
884.143	22386
884.269	22565
884.395	22303
884.52	22192
884.646	22238
884.772	22177
884.897	22017
885.023	22181
885.148	22287
885.274	22367
885.399	22421
885.524	22177
885.65	22169
885.775	22093
885.9	22192
886.025	22295
886.15	22219
886.275	22070
886.4	22169
886.525	22109
886.65	22070
886.775	22002
886.9	22211
887.025	22405
887.149	22154
887.274	22021
887.399	21960
887.523	21960
887.648	22010
887.773	21861
887.897	21926
888.021	21934
888.146	21831
888.27	22025
888.395	22025
888.519	21979
888.643	21949
888.767	21941
888.891	21899
889.015	21698
889.139	21778
889.263	21717
889.387	21846
889.511	21972
889.635	21812
889.759	21812
889.883	21587
890.006	21682
890.13	21789
890.254	21675
890.377	21530
890.501	21488
890.624	21519
890.748	21496
890.871	21340
890.995	21157
891.118	21195
891.241	21256
891.364	21180
891.488	21450
891.611	21226
891.734	21249
891.857	21310
891.98	21298
892.103	21408
892.226	21233
892.349	21142
892.471	21039
892.594	21070
892.717	21207
892.839	21081
892.962	21089
893.085	21279
893.207	21116
893.33	21036
893.452	21055
893.575	21138
893.697	21214
893.819	21233
893.941	21321
894.064	21226
894.186	21119
894.308	21020
894.43	21233
894.552	21203
894.674	21241
894.796	21108
894.918	21176
895.04	20979
895.161	21142
895.283	21058
895.405	21150
895.526	21093
895.648	21176
895.769	21138
895.891	21188
896.012	21230
896.134	21165
896.255	21119
896.376	21104
896.498	21214
896.619	21173
896.74	21070
896.861	21268
896.982	21439
897.103	21682
897.224	21386
897.345	21310
897.466	21252
897.587	21291
897.708	21393
897.828	21268
897.949	21184
898.07	21226
898.19	21237
898.311	21412
898.431	21157
898.552	21302
898.672	21447
898.792	21397
898.913	21382
899.033	21131
899.153	21043
899.273	20994
899.393	21055
899.513	21070
899.633	21077
899.753	21032
899.873	21020
899.993	21074
900.113	20994
900.232	21017
900.352	21005
900.472	20887
900.591	20834
900.711	20876
900.83	20724
900.95	20872
901.069	20842
901.189	20777
901.308	20511
901.427	20317
901.546	20454
901.665	20347
901.784	20393
901.904	20324
902.023	20172
902.141	20001
902.26	19890
902.379	20001
902.498	19894
902.617	19784
902.735	19875
902.854	19837
902.973	19772
903.091	19613
903.21	19601
903.328	19582
903.446	19419
903.565	19312
903.683	19388
903.801	19202
903.919	19350
904.038	19358
904.156	19110
904.274	19145
904.392	19129
904.51	19057
904.627	19034
904.745	19080
904.863	19194
904.981	18821
905.098	18757
905.216	18722
905.334	18814
905.451	18776
905.569	18859
905.686	18783
905.803	18779
905.921	18570
906.038	18616
906.155	18525
906.272	18464
906.389	18429
906.506	18330
906.623	18361
906.74	18209
906.857	18205
906.974	18277
907.091	18323
907.208	18422
907.324	18159
907.441	18087
907.557	17927
907.674	18007
907.79	17977
907.907	17946
908.023	18060
908.139	17992
908.256	17996
908.372	17885
908.488	17824
908.604	17885
908.72	17756
908.836	17729
908.952	17642
909.068	17710
909.184	17745
909.3	17737
909.415	17680
909.531	17790
909.647	17410
909.762	17532
909.878	17398
909.993	17391
910.108	17391
910.224	17376
910.339	17292
910.454	17166
910.57	17113
910.685	17185
910.8	17292
910.915	17318
911.03	17159
911.145	17132
911.259	17052
911.374	16942
911.489	16896
911.604	16877
911.718	16736
911.833	16691
911.947	16622
912.062	16675
912.176	16645
912.291	16683
912.405	16740
912.519	16881
912.633	16904
912.748	16771
912.862	16664
912.976	16577
913.09	16287
913.204	16497
913.318	16500
913.431	16683
913.545	16596
913.659	16694
913.772	16599
913.886	16337
914	16246
914.113	16363
914.226	16447
914.34	16337
914.453	16139
914.566	16333
914.68	16090
914.793	16181
914.906	15991
915.019	15861
915.132	15755
915.245	15934
915.358	15960
915.47	15945
915.583	15941
915.696	15949
915.809	15895
915.921	16013
916.034	15854
916.146	15770
916.259	15835
916.371	15854
916.483	15766
916.595	15637
916.708	15728
916.82	15686
916.932	15694
917.044	15724
917.156	15705
917.268	15504
917.38	15507
917.491	15481
917.603	15572
917.715	15542
917.826	15584
917.938	15473
918.049	15313
918.161	15428
918.272	15530
918.384	15591
918.495	15469
918.606	15268
918.717	15165
918.828	15317
918.939	15313
919.05	15192
919.161	15237
919.272	14986
919.383	15119
919.494	15214
919.604	15439
919.715	15211
919.826	15104
919.936	15184
920.047	15275
920.157	15184
920.267	15310
920.378	15256
920.488	15214
920.598	15386
920.708	15542
920.818	15393
920.928	15351
921.038	15488
921.148	15386
921.258	15214
921.368	15013
921.477	15001
921.587	14982
921.697	14785
921.806	14956
921.916	14769
922.025	14625
922.134	14606
922.244	14621
922.353	14587
922.462	14431
922.571	14328
922.68	14309
922.789	14301
922.898	14290
923.007	14054
923.116	14233
923.224	14115
923.333	14157
923.442	13963
923.55	13989
923.659	13951
923.767	14130
923.876	13963
923.984	14103
924.092	13936
924.201	13951
924.309	13970
924.417	13860
924.525	13780
924.633	13909
924.741	14613
924.849	13674
924.956	13837
925.064	13655
925.172	13556
925.279	13681
925.387	13647
925.494	13559
925.602	13753
925.709	13643
925.816	13514
925.924	13537
926.031	13559
926.138	13533
926.245	13632
926.352	13419
926.459	13540
926.566	13628
926.673	13396
926.779	13400
926.886	13274
926.993	13164
927.099	13156
927.206	13187
927.312	13053
927.419	13160
927.525	13107
927.631	13171
927.737	12985
927.843	12935
927.95	12856
928.056	12973
928.162	12935
928.267	12947
928.373	13438
928.479	12989
928.585	12753
928.69	12863
928.796	12920
928.901	12886
929.007	12665
929.112	12741
929.218	12741
929.323	12730
929.428	12650
929.533	12749
929.638	12525
929.743	12570
929.848	12532
929.953	12620
930.058	12483
930.163	12399
930.267	12308
930.372	12422
930.477	12296
930.581	12467
930.685	12441
930.79	12224
930.894	12228
930.998	12167
931.103	12315
931.207	11984
931.311	11859
931.415	11733
931.519	11638
931.623	11532
