Data from test_V78500241_1437.txt Node
Date: Fri Mar 25 15:51:45 CST 2022
User: usil
Spectrometer: V785-0024
Trigger mode: 0
Integration Time (sec): 4.000000E-1
Scans to average: 1
Nonlinearity correction enabled: false
Boxcar width: 0
Storing dark spectrum: false
XAxis mode: Wavelengths
Number of Pixels in Spectrum: 1024
>>>>>Begin Spectral Data<<<<<
801.071	27823
801.214	27736
801.356	27580
801.499	27553
801.641	27382
801.783	27412
801.926	27367
802.068	27374
802.211	27378
802.353	27260
802.496	27112
802.638	27135
802.78	26975
802.923	26880
803.065	26929
803.208	26906
803.35	27081
803.492	27039
803.635	27211
803.777	27184
803.919	27329
804.061	27591
804.204	27340
804.346	27192
804.488	27119
804.63	27226
804.773	27085
804.915	27268
805.057	27329
805.199	27283
805.341	27313
805.483	27408
805.626	27332
805.768	27237
805.91	27397
806.052	27427
806.194	27367
806.336	27469
806.478	27348
806.62	27355
806.762	27549
806.904	27614
807.046	27812
807.188	27717
807.33	27941
807.472	27709
807.614	27675
807.756	27671
807.898	27793
808.04	27553
808.182	27542
808.324	27542
808.465	27732
808.607	27804
808.749	28074
808.891	27884
809.033	28036
809.174	28086
809.316	27930
809.458	27972
809.6	27854
809.741	28082
809.883	28158
810.025	28333
810.166	28223
810.308	28344
810.45	28101
810.591	28169
810.733	27987
810.875	27876
811.016	27857
811.158	27793
811.299	28154
811.441	28226
811.582	28086
811.724	28002
811.865	27911
812.007	27895
812.148	27945
812.29	27934
812.431	28078
812.573	28382
812.714	28417
812.855	28489
812.997	28489
813.138	28816
813.279	28660
813.421	28459
813.562	28390
813.703	28249
813.845	28196
813.986	27941
814.127	27755
814.268	27458
814.41	27625
814.551	27553
814.692	27713
814.833	27599
814.974	27644
815.115	27648
815.256	27344
815.397	27568
815.539	27500
815.68	27420
815.821	27374
815.962	27542
816.103	27496
816.244	27370
816.385	27222
816.526	27313
816.666	27154
816.807	26906
816.948	27001
817.089	27009
817.23	26975
817.371	27062
817.512	26937
817.653	26921
817.793	26864
817.934	26899
818.075	26979
818.216	26990
818.356	26948
818.497	26914
818.638	26689
818.778	26663
818.919	26800
819.06	26640
819.2	26769
819.341	26933
819.481	26830
819.622	26975
819.762	27199
819.903	27138
820.043	27108
820.184	26864
820.324	26979
820.465	27062
820.605	27032
820.746	27104
820.886	26929
821.026	27077
821.167	26914
821.307	27058
821.447	26891
821.588	26967
821.728	26811
821.868	26648
822.008	26492
822.149	26309
822.289	26393
822.429	26161
822.569	26027
822.709	26191
822.849	25830
822.99	25845
823.13	25883
823.27	25940
823.41	25791
823.55	25594
823.69	25788
823.83	25708
823.97	25693
824.11	25422
824.25	25358
824.389	25514
824.529	25616
824.669	25453
824.809	25567
824.949	25502
825.089	25696
825.228	25525
825.368	25327
825.508	25266
825.648	25266
825.787	25552
825.927	25483
826.067	25381
826.206	25350
826.346	25449
826.485	25407
826.625	25396
826.765	25476
826.904	25365
827.044	25164
827.183	25247
827.323	25038
827.462	25190
827.601	25069
827.741	25133
827.88	25183
828.02	25034
828.159	25152
828.298	25038
828.437	25114
828.577	25118
828.716	25187
828.855	24973
828.994	24943
829.134	24795
829.273	24913
829.412	24688
829.551	24753
829.69	24726
829.829	24894
829.968	24878
830.107	24935
830.246	24802
830.385	24772
830.524	24574
830.663	24673
830.802	24391
830.941	24380
831.08	24369
831.219	24433
831.357	24426
831.496	24658
831.635	24384
831.774	24281
831.913	24258
832.051	24300
832.19	24182
832.329	24171
832.467	24205
832.606	23977
832.744	24026
832.883	24053
833.022	24007
833.16	24022
833.299	24125
833.437	23961
833.576	24140
833.714	24098
833.852	24243
833.991	24308
834.129	24209
834.267	24338
834.406	24178
834.544	24296
834.682	24076
834.821	23939
834.959	24296
835.097	24159
835.235	24121
835.373	24178
835.511	24171
835.65	23893
835.788	24026
835.926	23920
836.064	23824
836.202	23821
836.34	23908
836.478	24022
836.615	23988
836.753	24049
836.891	24057
837.029	23973
837.167	23946
837.305	23863
837.443	23771
837.58	23752
837.718	23904
837.856	23733
837.993	23779
838.131	23745
838.269	23794
838.406	23748
838.544	23627
838.681	23509
838.819	23421
838.956	23258
839.094	23296
839.231	23349
839.369	23509
839.506	23657
839.643	23490
839.781	23193
839.918	23143
840.055	23235
840.193	23273
840.33	23109
840.467	23239
840.604	23227
840.742	23497
840.879	23113
841.016	23212
841.153	23086
841.29	23277
841.427	23113
841.564	23246
841.701	23143
841.838	23102
841.975	23048
842.112	23193
842.249	23025
842.385	22957
842.522	23174
842.659	23162
842.796	22778
842.933	22953
843.069	23041
843.206	22850
843.343	22987
843.479	22930
843.616	22961
843.752	22717
843.889	22767
844.025	22759
844.162	22721
844.298	22809
844.435	22744
844.571	22626
844.708	22797
844.844	22835
844.98	22729
845.117	22873
845.253	22493
845.389	22592
845.525	22588
845.661	22683
845.798	22440
845.934	22421
846.07	22455
846.206	22470
846.342	22542
846.478	22527
846.614	22196
846.75	22211
846.886	22268
847.022	22276
847.158	22344
847.294	22242
847.429	22223
847.565	22055
847.701	22428
847.837	21800
847.972	21956
848.108	21918
848.244	22021
848.379	21755
848.515	21781
848.65	21770
848.786	21690
848.921	21732
849.057	21911
849.192	21835
849.328	21823
849.463	21915
849.598	21770
849.734	21599
849.869	21599
850.004	21614
850.14	21595
850.275	21549
850.41	21504
850.545	21599
850.68	21428
850.815	21610
850.95	21454
851.085	21625
851.22	21591
851.355	21572
851.49	21538
851.625	21481
851.76	21629
851.895	21462
852.03	21435
852.165	21439
852.299	21603
852.434	21622
852.569	21542
852.703	21530
852.838	21553
852.973	21709
853.107	21743
853.242	21389
853.376	21435
853.511	21268
853.645	21256
853.78	21538
853.914	21294
854.048	21252
854.183	21393
854.317	21393
854.451	21644
854.585	21302
854.72	21439
854.854	21473
854.988	21340
855.122	21408
855.256	21237
855.39	21363
855.524	21469
855.658	21355
855.792	21401
855.926	21488
856.06	21545
856.194	21454
856.327	21344
856.461	21302
856.595	21386
856.729	21420
856.862	21587
856.996	21450
857.13	21500
857.263	21447
857.397	21466
857.53	21359
857.664	21351
857.797	21408
857.931	21488
858.064	21397
858.197	21355
858.331	21374
858.464	21260
858.597	21211
858.731	21386
858.864	21321
858.997	21378
859.13	21397
859.263	21405
859.396	21382
859.529	21336
859.662	21264
859.795	21264
859.928	21431
860.061	21515
860.194	21488
860.327	21332
860.46	21268
860.592	21496
860.725	21450
860.858	21458
860.99	21382
861.123	21268
861.256	21374
861.388	21351
861.521	22192
861.653	21218
861.786	21165
861.918	21207
862.05	21313
862.183	21279
862.315	21389
862.447	21401
862.58	21268
862.712	21036
862.844	21108
862.976	21142
863.108	21131
863.24	21386
863.372	21066
863.504	21104
863.636	21146
863.768	21214
863.9	21070
864.032	20956
864.164	21058
864.296	21123
864.428	21104
864.559	21214
864.691	21135
864.823	21074
864.954	21116
865.086	20948
865.217	20960
865.349	20819
865.48	20982
865.612	20914
865.743	21161
865.875	20979
866.006	20929
866.137	20956
866.269	20967
866.4	20929
866.531	20849
866.662	20849
866.793	20952
866.924	20941
867.055	20944
867.186	20906
867.317	20963
867.448	20762
867.579	20838
867.71	20842
867.841	20781
867.972	20899
868.103	20925
868.233	20876
868.364	20880
868.495	21039
868.625	21085
868.756	21123
868.886	21070
869.017	21047
869.147	21260
869.278	21249
869.408	21150
869.539	21161
869.669	21203
869.799	21211
869.929	21302
870.06	21344
870.19	21416
870.32	21507
870.45	21462
870.58	21488
870.71	21694
870.84	21736
870.97	21435
871.1	21473
871.23	21797
871.36	21865
871.489	21682
871.619	21667
871.749	21690
871.879	21766
872.008	21755
872.138	21705
872.267	21698
872.397	21686
872.526	21481
872.656	21576
872.785	21652
872.915	21831
873.044	21789
873.173	21785
873.303	21922
873.432	21926
873.561	21895
873.69	21831
873.819	21793
873.948	21880
874.077	21869
874.206	21751
874.335	21835
874.464	21827
874.593	21941
874.722	22025
874.851	22093
874.979	22074
875.108	22097
875.237	21964
875.365	21922
875.494	22013
875.623	22040
875.751	21922
875.88	22055
876.008	22032
876.136	22291
876.265	22360
876.393	22508
876.521	22489
876.65	22504
876.778	22470
876.906	22341
877.034	22295
877.162	22318
877.29	22268
877.418	22424
877.546	22341
877.674	22287
877.802	22314
877.93	22421
878.058	22325
878.185	22166
878.313	22284
878.441	22299
878.568	22230
878.696	22325
878.824	22356
878.951	22459
879.079	22417
879.206	22649
879.333	22535
879.461	22284
879.588	22459
879.715	22428
879.842	22618
879.97	22485
880.097	22280
880.224	22124
880.351	22192
880.478	22287
880.605	22188
880.732	22158
880.859	22440
880.986	22261
881.112	22226
881.239	22124
881.366	21816
881.493	21736
881.619	21743
881.746	21846
881.872	21743
881.999	21690
882.125	21701
882.252	21778
882.378	21713
882.505	21766
882.631	21622
882.757	21367
882.883	21656
883.01	21454
883.136	21367
883.262	21325
883.388	21207
883.514	21424
883.64	21504
883.766	21389
883.892	21256
884.018	21218
884.143	21348
884.269	21496
884.395	21081
884.52	21119
884.646	21074
884.772	21081
884.897	21066
885.023	21207
885.148	21135
885.274	21264
885.399	21150
885.524	21058
885.65	21043
885.775	21180
885.9	20975
886.025	21241
886.15	21157
886.275	21131
886.4	20960
886.525	20960
886.65	21089
886.775	20990
886.9	21058
887.025	21249
887.149	20963
887.274	20849
887.399	20773
887.523	20785
887.648	20758
887.773	20762
887.897	20902
888.021	20785
888.146	20785
888.27	20982
888.395	20971
888.519	20952
888.643	20876
888.767	20948
888.891	20712
889.015	20705
889.139	20746
889.263	20587
889.387	20621
889.511	20819
889.635	20686
889.759	20667
889.883	20716
890.006	20796
890.13	20682
890.254	20602
890.377	20545
890.501	20320
890.624	20450
890.748	20533
890.871	20339
890.995	20096
891.118	20210
891.241	20210
891.364	20275
891.488	20366
891.611	20111
891.734	20237
891.857	20271
891.98	20267
892.103	20298
892.226	20149
892.349	20176
892.471	19947
892.594	20115
892.717	20142
892.839	20267
892.962	20020
893.085	20183
893.207	20073
893.33	20031
893.452	20107
893.575	20187
893.697	20012
893.819	20202
893.941	20408
894.064	20320
894.186	20077
894.308	20016
894.43	20172
894.552	20294
894.674	20248
894.796	19947
894.918	20050
895.04	20153
895.161	20164
895.283	20054
895.405	20058
895.526	20100
895.648	20096
895.769	20218
895.891	20183
896.012	20256
896.134	20172
896.255	20149
896.376	20111
896.498	20218
896.619	20149
896.74	20081
896.861	20149
896.982	20442
897.103	20594
897.224	20457
897.345	20233
897.466	20385
897.587	20404
897.708	20408
897.828	20461
897.949	20347
898.07	20218
898.19	20244
898.311	20427
898.431	20271
898.552	20351
898.672	20374
898.792	20511
898.913	20374
899.033	20294
899.153	20077
899.273	20001
899.393	20107
899.513	20062
899.633	20111
899.753	20164
899.873	20050
899.993	20126
900.113	20031
900.232	20043
900.352	19982
900.472	19970
900.591	19955
900.711	19894
900.83	19871
900.95	19967
901.069	19974
901.189	19719
901.308	19544
901.427	19491
901.546	19392
901.665	19514
901.784	19434
901.904	19346
902.023	19217
902.141	19141
902.26	19012
902.379	19027
902.498	19008
902.617	18802
902.735	19023
902.854	18954
902.973	18776
903.091	18616
903.21	18673
903.328	18673
903.446	18559
903.565	18429
903.683	18464
903.801	18289
903.919	18429
904.038	18445
904.156	18273
904.274	18361
904.392	18228
904.51	18095
904.627	18247
904.745	18171
904.863	18232
904.981	17992
905.098	17889
905.216	17821
905.334	17882
905.451	17942
905.569	17843
905.686	17920
905.803	17939
905.921	17790
906.038	17729
906.155	17634
906.272	17581
906.389	17634
906.506	17387
906.623	17528
906.74	17360
906.857	17273
906.974	17280
907.091	17493
907.208	17577
907.324	17379
907.441	17292
907.557	17166
907.674	17197
907.79	17094
907.907	17117
908.023	17079
908.139	17033
908.256	17124
908.372	16942
908.488	17025
908.604	16923
908.72	16767
908.836	16854
908.952	16809
909.068	16892
909.184	16850
909.3	16793
909.415	16949
909.531	16881
909.647	16634
909.762	16554
909.878	16512
909.993	16550
910.108	16493
910.224	16542
910.339	16558
910.454	16367
910.57	16371
910.685	16314
910.8	16531
910.915	16519
911.03	16325
911.145	16105
911.259	16242
911.374	16090
911.489	16017
911.604	15960
911.718	15865
911.833	15827
911.947	15728
912.062	15759
912.176	15911
912.291	15934
912.405	15880
912.519	16082
912.633	16063
912.748	15846
912.862	15888
912.976	15698
913.09	15553
913.204	15690
913.318	15759
913.431	15736
913.545	15774
913.659	15774
913.772	15641
913.886	15561
914	15462
914.113	15591
914.226	15595
914.34	15663
914.453	15363
914.566	15519
914.68	15458
914.793	15382
914.906	15268
915.019	15173
915.132	15036
915.245	15047
915.358	15112
915.47	15051
915.583	15138
915.696	15192
915.809	15173
915.921	15294
916.034	15024
916.146	14960
916.259	15028
916.371	15070
916.483	15176
916.595	14891
916.708	14982
916.82	14967
916.932	14876
917.044	14925
917.156	14899
917.268	14807
917.38	14724
917.491	14644
917.603	14678
917.715	14815
917.826	14887
917.938	14644
918.049	14629
918.161	14693
918.272	14758
918.384	14826
918.495	14819
918.606	14560
918.717	14351
918.828	14541
918.939	14499
919.05	14450
919.161	14511
919.272	14286
919.383	14313
919.494	14556
919.604	14716
919.715	14526
919.826	14427
919.936	14438
920.047	14419
920.157	14507
920.267	14636
920.378	14450
920.488	14374
920.598	14663
920.708	14724
920.818	14636
920.928	14648
921.038	14708
921.148	14754
921.258	14385
921.368	14286
921.477	14317
921.587	14271
921.697	14126
921.806	14218
921.916	14031
922.025	13814
922.134	13997
922.244	13963
922.353	13864
922.462	13731
922.571	13696
922.68	13609
922.789	13464
922.898	13556
923.007	13430
923.116	13521
923.224	13563
923.333	13445
923.442	13343
923.55	13331
923.659	13403
923.767	13476
923.876	13316
923.984	13282
924.092	13225
924.201	13331
924.309	13278
924.417	13236
924.525	13236
924.633	13202
924.741	13963
924.849	13012
924.956	13099
925.064	12977
925.172	12848
925.279	12916
925.387	12996
925.494	12909
925.602	13107
925.709	12947
925.816	12821
925.924	12833
926.031	12928
926.138	12791
926.245	12966
926.352	12806
926.459	12833
926.566	12863
926.673	12772
926.779	12700
926.886	12684
926.993	12525
927.099	12551
927.206	12456
927.312	12452
927.419	12521
927.525	12547
927.631	12547
927.737	12395
927.843	12346
927.95	12304
928.056	12376
928.162	12350
928.267	12353
928.373	12928
928.479	12342
928.585	12152
928.69	12239
928.796	12361
928.901	12216
929.007	12079
929.112	12163
929.218	12117
929.323	11973
929.428	12022
929.533	12197
929.638	11954
929.743	12057
929.848	12110
929.953	12030
930.058	11882
930.163	11707
930.267	11745
930.372	11828
930.477	11646
930.581	12026
930.685	11771
930.79	11668
930.894	11623
930.998	11577
931.103	11786
931.207	11341
931.311	11280
931.415	11185
931.519	11018
931.623	11006
