Data from test_V78500241_2408.txt Node
Date: Fri Mar 25 15:58:28 CST 2022
User: usil
Spectrometer: V785-0024
Trigger mode: 0
Integration Time (sec): 4.000000E-1
Scans to average: 1
Nonlinearity correction enabled: false
Boxcar width: 0
Storing dark spectrum: false
XAxis mode: Wavelengths
Number of Pixels in Spectrum: 1024
>>>>>Begin Spectral Data<<<<<
801.071	28580
801.214	28474
801.356	28325
801.499	28268
801.641	28230
801.783	28177
801.926	28124
802.068	28147
802.211	28074
802.353	28021
802.496	27823
802.638	27823
802.78	27774
802.923	27770
803.065	27682
803.208	27679
803.35	27861
803.492	28002
803.635	27991
803.777	27732
803.919	27987
804.061	28440
804.204	28101
804.346	28128
804.488	27892
804.63	27918
804.773	28010
804.915	28063
805.057	28025
805.199	28002
805.341	28177
805.483	28158
805.626	28150
805.768	27956
805.91	28093
806.052	28090
806.194	28116
806.336	28375
806.478	28109
806.62	28078
806.762	28276
806.904	28459
807.046	28641
807.188	28698
807.33	28443
807.472	28778
807.614	28626
807.756	28596
807.898	28405
808.04	28440
808.182	28390
808.324	28577
808.465	28493
808.607	28774
808.749	28790
808.891	28976
809.033	28919
809.174	28919
809.316	28778
809.458	28843
809.6	28771
809.741	28892
809.883	28904
810.025	29090
810.166	29235
810.308	29170
810.45	28987
810.591	29197
810.733	28824
810.875	28908
811.016	28694
811.158	28831
811.299	28961
811.441	29083
811.582	29102
811.724	28896
811.865	28721
812.007	28847
812.148	28839
812.29	29037
812.431	28938
812.573	29258
812.714	29345
812.855	29284
812.997	29535
813.138	29554
813.279	29474
813.421	29341
813.562	29417
813.703	29083
813.845	29056
813.986	28809
814.127	28603
814.268	28535
814.41	28493
814.551	28554
814.692	28710
814.833	28440
814.974	28550
815.115	28656
815.256	28398
815.397	28478
815.539	28538
815.68	28238
815.821	28352
815.962	28367
816.103	28329
816.244	28207
816.385	28124
816.526	28162
816.666	27838
816.807	27816
816.948	27983
817.089	28055
817.23	27861
817.371	27850
817.512	27778
817.653	27789
817.793	27686
817.934	27819
818.075	27861
818.216	27846
818.356	27785
818.497	27774
818.638	27701
818.778	27599
818.919	27625
819.06	27709
819.2	27770
819.341	27831
819.481	27667
819.622	28048
819.762	28284
819.903	28306
820.043	28040
820.184	28025
820.324	28063
820.465	28074
820.605	28025
820.746	27804
820.886	27892
821.026	27972
821.167	27846
821.307	27937
821.447	27880
821.588	27907
821.728	27759
821.868	27568
822.008	27340
822.149	27523
822.289	27439
822.429	27252
822.569	27043
822.709	27142
822.849	26785
822.99	26849
823.13	26857
823.27	26963
823.41	26632
823.55	26552
823.69	26640
823.83	26632
823.97	26792
824.11	26492
824.25	26461
824.389	26583
824.529	26693
824.669	26511
824.809	26663
824.949	26473
825.089	26564
825.228	26457
825.368	26370
825.508	26434
825.648	26389
825.787	26453
825.927	26404
826.067	26396
826.206	26294
826.346	26317
826.485	26522
826.625	26393
826.765	26514
826.904	26514
827.044	26218
827.183	26103
827.323	26183
827.462	26111
827.601	26096
827.741	26138
827.88	25989
828.02	26027
828.159	25970
828.298	26062
828.437	26206
828.577	25944
828.716	26142
828.855	26073
828.994	25868
829.134	25887
829.273	25871
829.412	25715
829.551	25731
829.69	25772
829.829	25822
829.968	25890
830.107	25879
830.246	25719
830.385	25715
830.524	25700
830.663	25689
830.802	25403
830.941	25358
831.08	25434
831.219	25441
831.357	25559
831.496	25681
831.635	25369
831.774	25297
831.913	25278
832.051	25221
832.19	25179
832.329	25244
832.467	25190
832.606	25023
832.744	25099
832.883	25050
833.022	24970
833.16	25050
833.299	25168
833.437	25023
833.576	25240
833.714	25129
833.852	25259
833.991	25114
834.129	25206
834.267	25304
834.406	25133
834.544	25065
834.682	25228
834.821	25107
834.959	25160
835.097	24962
835.235	25133
835.373	25057
835.511	25152
835.65	24901
835.788	25015
835.926	24802
836.064	24753
836.202	24859
836.34	24875
836.478	25088
836.615	24859
836.753	24996
836.891	24962
837.029	24947
837.167	25004
837.305	24894
837.443	24878
837.58	24738
837.718	24867
837.856	24848
837.993	24722
838.131	24764
838.269	24631
838.406	24658
838.544	24566
838.681	24479
838.819	24399
838.956	24235
839.094	24155
839.231	24190
839.369	24464
839.506	24601
839.643	24456
839.781	24285
839.918	24106
840.055	24277
840.193	24232
840.33	24247
840.467	24209
840.604	24117
840.742	24460
840.879	24022
841.016	24106
841.153	24072
841.29	24300
841.427	24003
841.564	24186
841.701	24098
841.838	24178
841.975	24125
842.112	23935
842.249	23992
842.385	23904
842.522	24117
842.659	24018
842.796	23939
842.933	24003
843.069	23931
843.206	23851
843.343	23904
843.479	23992
843.616	23851
843.752	23710
843.889	23627
844.025	23771
844.162	23638
844.298	23805
844.435	23619
844.571	23516
844.708	23729
844.844	23817
844.98	23973
845.117	23817
845.253	23577
845.389	23440
845.525	23661
845.661	23596
845.798	23459
845.934	23490
846.07	23391
846.206	23330
846.342	23558
846.478	23307
846.614	23284
846.75	23033
846.886	23162
847.022	23277
847.158	23098
847.294	23124
847.429	23189
847.565	23239
847.701	23284
847.837	22843
847.972	22869
848.108	22911
848.244	22896
848.379	22721
848.515	22645
848.65	22736
848.786	22744
848.921	22744
849.057	22892
849.192	22816
849.328	22786
849.463	22672
849.598	22752
849.734	22653
849.869	22691
850.004	22489
850.14	22554
850.275	22531
850.41	22394
850.545	22379
850.68	22360
850.815	22497
850.95	22493
851.085	22729
851.22	22618
851.355	22462
851.49	22519
851.625	22363
851.76	22573
851.895	22394
852.03	22451
852.165	22459
852.299	22588
852.434	22504
852.569	22474
852.703	22546
852.838	22493
852.973	22580
853.107	22694
853.242	22344
853.376	22360
853.511	22196
853.645	22192
853.78	22299
853.914	22215
854.048	22135
854.183	22154
854.317	22325
854.451	22538
854.585	22352
854.72	22303
854.854	22287
854.988	22147
855.122	22314
855.256	22200
855.39	22322
855.524	22459
855.658	22386
855.792	22341
855.926	22424
856.06	22219
856.194	22344
856.327	22367
856.461	22234
856.595	22230
856.729	22306
856.862	22428
856.996	22367
857.13	22341
857.263	22386
857.397	22413
857.53	22295
857.664	22295
857.797	22398
857.931	22417
858.064	22424
858.197	22421
858.331	22352
858.464	22318
858.597	22246
858.731	22382
858.864	22230
858.997	22265
859.13	22386
859.263	22382
859.396	22394
859.529	22322
859.662	22261
859.795	22295
859.928	22226
860.061	22478
860.194	22557
860.327	22337
860.46	22352
860.592	22573
860.725	22367
860.858	22417
860.99	22325
861.123	22128
861.256	22219
861.388	22238
861.521	23010
861.653	22120
861.786	22090
861.918	22192
862.05	22211
862.183	22348
862.315	22268
862.447	22261
862.58	22226
862.712	22086
862.844	22032
862.976	22124
863.108	22086
863.24	22531
863.372	21793
863.504	21987
863.636	22032
863.768	22032
863.9	22131
864.032	22029
864.164	21994
864.296	22059
864.428	22074
864.559	21926
864.691	22139
864.823	22029
864.954	21975
865.086	21907
865.217	22021
865.349	21755
865.48	21831
865.612	21812
865.743	21949
865.875	21915
866.006	21831
866.137	21873
866.269	22013
866.4	21865
866.531	22017
866.662	21838
866.793	21774
866.924	21865
867.055	21945
867.186	21846
867.317	21816
867.448	21789
867.579	21873
867.71	21755
867.841	21720
867.972	21816
868.103	21717
868.233	21945
868.364	21892
868.495	21983
868.625	22006
868.756	22112
868.886	21915
869.017	22059
869.147	22177
869.278	22226
869.408	22204
869.539	22063
869.669	22128
869.799	22135
869.929	22226
870.06	22078
870.19	22318
870.32	22291
870.45	22440
870.58	22462
870.71	22535
870.84	22485
870.97	22554
871.1	22527
871.23	22675
871.36	22702
871.489	22459
871.619	22622
871.749	22748
871.879	22706
872.008	22694
872.138	22713
872.267	22607
872.397	22519
872.526	22508
872.656	22622
872.785	22478
872.915	22717
873.044	22713
873.173	22809
873.303	22675
873.432	22767
873.561	22824
873.69	22710
873.819	22740
873.948	22717
874.077	22721
874.206	22637
874.335	22729
874.464	22729
874.593	22869
874.722	22858
874.851	22961
874.979	23041
875.108	22984
875.237	22759
875.365	22687
875.494	22824
875.623	22957
875.751	22904
875.88	22934
876.008	23033
876.136	23128
876.265	23345
876.393	23376
876.521	23341
876.65	23383
876.778	23315
876.906	23334
877.034	23204
877.162	23254
877.29	23143
877.418	23250
877.546	23280
877.674	23284
877.802	23204
877.93	23140
878.058	23250
878.185	23090
878.313	23223
878.441	23136
878.568	23140
878.696	23181
878.824	23166
878.951	23345
879.079	23505
879.206	23406
879.333	23444
879.461	23292
879.588	23372
879.715	23280
879.842	23497
879.97	23258
880.097	23181
880.224	22961
880.351	23102
880.478	23128
880.605	22968
880.732	23109
880.859	23284
880.986	23090
881.112	23159
881.239	22953
881.366	22801
881.493	22687
881.619	22774
881.746	22653
881.872	22630
881.999	22599
882.125	22561
882.252	22615
882.378	22542
882.505	22744
882.631	22516
882.757	22447
882.883	22272
883.01	22291
883.136	22223
883.262	22265
883.388	22207
883.514	22223
883.64	22303
883.766	22230
883.892	22029
884.018	22223
884.143	22219
884.269	22344
884.395	21975
884.52	21949
884.646	21953
884.772	21797
884.897	21861
885.023	21926
885.148	22120
885.274	22105
885.399	21918
885.524	21865
885.65	21934
885.775	21934
885.9	21838
886.025	22010
886.15	21987
886.275	21751
886.4	21819
886.525	21937
886.65	21915
886.775	21732
886.9	21994
887.025	22154
887.149	21823
887.274	21804
887.399	21732
887.523	21682
887.648	21549
887.773	21637
887.897	21804
888.021	21762
888.146	21667
888.27	21842
888.395	21747
888.519	21671
888.643	21701
888.767	21713
888.891	21633
889.015	21466
889.139	21564
889.263	21599
889.387	21587
889.511	21564
889.635	21549
889.759	21420
889.883	21485
890.006	21386
890.13	21728
890.254	21340
890.377	21447
890.501	21184
890.624	21169
890.748	21154
890.871	21123
890.995	21013
891.118	20960
891.241	21047
891.364	21051
891.488	21123
891.611	20998
891.734	21074
891.857	20998
891.98	21104
892.103	21104
892.226	21089
892.349	21047
892.471	20788
892.594	21020
892.717	21043
892.839	20823
892.962	20914
893.085	21047
893.207	20876
893.33	20804
893.452	20906
893.575	20956
893.697	20960
893.819	20994
893.941	21199
894.064	21020
894.186	20895
894.308	20868
894.43	21058
894.552	20929
894.674	20906
894.796	21024
894.918	20952
895.04	20960
895.161	20948
895.283	20941
895.405	20769
895.526	20941
895.648	20967
895.769	20876
895.891	20986
896.012	20918
896.134	20906
896.255	20914
896.376	20906
896.498	20883
896.619	20918
896.74	20880
896.861	21112
896.982	21279
897.103	21256
897.224	21154
897.345	21146
897.466	21047
897.587	21180
897.708	21180
897.828	21119
897.949	21043
898.07	20899
898.19	20937
898.311	21135
898.431	21093
898.552	21218
898.672	21169
898.792	21249
898.913	21032
899.033	20834
899.153	20902
899.273	20864
899.393	20902
899.513	20807
899.633	20804
899.753	20849
899.873	20762
899.993	20918
900.113	20834
900.232	20853
900.352	20625
900.472	20739
900.591	20651
900.711	20590
900.83	20598
900.95	20727
901.069	20682
901.189	20415
901.308	20240
901.427	20183
901.546	20180
901.665	20191
901.784	20180
901.904	20122
902.023	19921
902.141	19719
902.26	19647
902.379	19868
902.498	19795
902.617	19552
902.735	19719
902.854	19628
902.973	19552
903.091	19411
903.21	19293
903.328	19278
903.446	19285
903.565	19194
903.683	19183
903.801	19042
903.919	19164
904.038	19137
904.156	18935
904.274	18954
904.392	18894
904.51	18939
904.627	18897
904.745	18943
904.863	18894
904.981	18852
905.098	18658
905.216	18665
905.334	18719
905.451	18570
905.569	18460
905.686	18608
905.803	18597
905.921	18403
906.038	18471
906.155	18403
906.272	18254
906.389	18254
906.506	18076
906.623	18228
906.74	18110
906.857	18045
906.974	18007
907.091	18209
907.208	18247
907.324	18129
907.441	18019
907.557	17843
907.674	17817
907.79	17718
907.907	17756
908.023	17809
908.139	17912
908.256	17703
908.372	17729
908.488	17630
908.604	17547
908.72	17505
908.836	17600
908.952	17558
909.068	17532
909.184	17619
909.3	17486
909.415	17623
909.531	17551
909.647	17356
909.762	17269
909.878	17231
909.993	17220
910.108	17212
910.224	17140
910.339	17178
910.454	17102
910.57	16976
910.685	17025
910.8	17204
910.915	17140
911.03	17045
911.145	16839
911.259	16729
911.374	16820
911.489	16729
911.604	16698
911.718	16489
911.833	16527
911.947	16379
912.062	16394
912.176	16500
912.291	16493
912.405	16413
912.519	16672
912.633	16672
912.748	16523
912.862	16546
912.976	16394
913.09	16246
913.204	16234
913.318	16375
913.431	16493
913.545	16440
913.659	16493
913.772	16348
913.886	16196
914	16086
914.113	16276
914.226	16333
914.34	16188
914.453	16017
914.566	16207
914.68	16036
914.793	15991
914.906	15724
915.019	15736
915.132	15675
915.245	15728
915.358	15766
915.47	15694
915.583	15701
915.696	15732
915.809	15873
915.921	15797
916.034	15705
916.146	15507
916.259	15652
916.371	15610
916.483	15690
916.595	15564
916.708	15561
916.82	15523
916.932	15488
917.044	15519
917.156	15443
917.268	15283
917.38	15492
917.491	15336
917.603	15370
917.715	15412
917.826	15416
917.938	15268
918.049	15207
918.161	15169
918.272	15306
918.384	15389
918.495	15348
918.606	15165
918.717	15074
918.828	15081
918.939	15077
919.05	15024
919.161	15085
919.272	14948
919.383	14990
919.494	15138
919.604	15237
919.715	15077
919.826	14998
919.936	15097
920.047	15176
920.157	14929
920.267	15188
920.378	15058
920.488	15017
920.598	15329
920.708	15370
920.818	15207
920.928	15169
921.038	15401
921.148	15272
921.258	14975
921.368	14952
921.477	14758
921.587	14724
921.697	14678
921.806	14758
921.916	14598
922.025	14480
922.134	14454
922.244	14381
922.353	14408
922.462	14252
922.571	14282
922.68	14096
922.789	14096
922.898	13982
923.007	14005
923.116	14107
923.224	14012
923.333	13993
923.442	14016
923.55	13879
923.659	13856
923.767	13936
923.876	13791
923.984	13921
924.092	13811
924.201	13818
924.309	13818
924.417	13841
924.525	13727
924.633	13765
924.741	14495
924.849	13491
924.956	13655
925.064	13487
925.172	13472
925.279	13407
925.387	13392
925.494	13441
925.602	13567
925.709	13388
925.816	13270
925.924	13426
926.031	13480
926.138	13506
926.245	13422
926.352	13396
926.459	13460
926.566	13540
926.673	13369
926.779	13118
926.886	13221
926.993	13038
927.099	12920
927.206	12954
927.312	12916
927.419	13008
927.525	13038
927.631	13012
927.737	12970
927.843	12821
927.95	12700
928.056	12806
928.162	12859
928.267	12814
928.373	13430
928.479	12886
928.585	12593
928.69	12772
928.796	12791
928.901	12741
929.007	12563
929.112	12597
929.218	12703
929.323	12517
929.428	12559
929.533	12662
929.638	12452
929.743	12479
929.848	12521
929.953	12399
930.058	12399
930.163	12216
930.267	12330
930.372	12372
930.477	12224
930.581	12410
930.685	12209
930.79	12152
930.894	11954
930.998	12083
931.103	12270
931.207	11813
931.311	11695
931.415	11630
931.519	11383
931.623	11471
