Data from test_V78500241_453.txt Node
Date: Fri Mar 25 15:44:56 CST 2022
User: usil
Spectrometer: V785-0024
Trigger mode: 0
Integration Time (sec): 4.000000E-1
Scans to average: 1
Nonlinearity correction enabled: false
Boxcar width: 0
Storing dark spectrum: false
XAxis mode: Wavelengths
Number of Pixels in Spectrum: 1024
>>>>>Begin Spectral Data<<<<<
801.071	28310
801.214	28211
801.356	27960
801.499	27991
801.641	27819
801.783	27861
801.926	27895
802.068	27770
802.211	27770
802.353	27717
802.496	27580
802.638	27568
802.78	27340
802.923	27359
803.065	27264
803.208	27348
803.35	27427
803.492	27500
803.635	27591
803.777	27443
803.919	27530
804.061	27930
804.204	27538
804.346	27492
804.488	27530
804.63	27473
804.773	27458
804.915	27473
805.057	27682
805.199	27576
805.341	27625
805.483	27644
805.626	27511
805.768	27625
805.91	27690
806.052	27576
806.194	27454
806.336	27800
806.478	27762
806.62	27675
806.762	27857
806.904	27888
807.046	28325
807.188	28173
807.33	28044
807.472	28234
807.614	27998
807.756	28025
807.898	27934
808.04	27899
808.182	27854
808.324	27983
808.465	27941
808.607	28040
808.749	28177
808.891	28363
809.033	28588
809.174	28314
809.316	28291
809.458	28303
809.6	28223
809.741	28466
809.883	28417
810.025	28618
810.166	28451
810.308	28603
810.45	28527
810.591	28577
810.733	28253
810.875	28112
811.016	28265
811.158	28246
811.299	28333
811.441	28481
811.582	28390
811.724	28310
811.865	28124
812.007	28230
812.148	28261
812.29	28367
812.431	28504
812.573	28649
812.714	28683
812.855	28790
812.997	28869
813.138	29098
813.279	28892
813.421	28911
813.562	28653
813.703	28691
813.845	28329
813.986	28169
814.127	28074
814.268	27884
814.41	27934
814.551	27850
814.692	28109
814.833	27903
814.974	28051
815.115	27793
815.256	27808
815.397	27835
815.539	27854
815.68	27599
815.821	27644
815.962	27751
816.103	27743
816.244	27542
816.385	27492
816.526	27348
816.666	27252
816.807	27211
816.948	27146
817.089	27252
817.23	27241
817.371	27157
817.512	27230
817.653	27203
817.793	27032
817.934	27077
818.075	27062
818.216	27165
818.356	27131
818.497	26952
818.638	26849
818.778	26891
818.919	26967
819.06	27020
819.2	26975
819.341	27161
819.481	27165
819.622	27192
819.762	27469
819.903	27336
820.043	27275
820.184	27207
820.324	27291
820.465	27291
820.605	27142
820.746	27207
820.886	27176
821.026	27294
821.167	27146
821.307	27272
821.447	27154
821.588	27116
821.728	26883
821.868	26796
822.008	26659
822.149	26682
822.289	26533
822.429	26434
822.569	26343
822.709	26218
822.849	26050
822.99	26138
823.13	25986
823.27	25989
823.41	25890
823.55	25772
823.69	25852
823.83	25864
823.97	25784
824.11	25658
824.25	25681
824.389	25651
824.529	25662
824.669	25757
824.809	25868
824.949	25723
825.089	25830
825.228	25719
825.368	25715
825.508	25552
825.648	25540
825.787	25734
825.927	25727
826.067	25567
826.206	25567
826.346	25628
826.485	25578
826.625	25460
826.765	25613
826.904	25548
827.044	25453
827.183	25293
827.323	25183
827.462	25217
827.601	25350
827.741	25198
827.88	25251
828.02	25023
828.159	25255
828.298	25335
828.437	25362
828.577	25217
828.716	25297
828.855	25107
828.994	24981
829.134	24901
829.273	24806
829.412	24924
829.551	24806
829.69	24848
829.829	24905
829.968	24928
830.107	24935
830.246	24859
830.385	24825
830.524	24924
830.663	24741
830.802	24551
830.941	24441
831.08	24509
831.219	24559
831.357	24532
831.496	24650
831.635	24593
831.774	24384
831.913	24456
832.051	24304
832.19	24384
832.329	24136
832.467	24136
832.606	24121
832.744	24098
832.883	24064
833.022	24186
833.16	24148
833.299	24190
833.437	24190
833.576	24254
833.714	24171
833.852	24323
833.991	24114
834.129	24361
834.267	24201
834.406	24216
834.544	24304
834.682	24270
834.821	24285
834.959	24391
835.097	24079
835.235	24129
835.373	24148
835.511	24171
835.65	24011
835.788	24053
835.926	23863
836.064	23889
836.202	23878
836.34	23863
836.478	23980
836.615	24015
836.753	24140
836.891	24026
837.029	23908
837.167	23954
837.305	23855
837.443	24022
837.58	23824
837.718	23847
837.856	23771
837.993	23771
838.131	23798
838.269	23714
838.406	23863
838.544	23501
838.681	23425
838.819	23425
838.956	23273
839.094	23341
839.231	23395
839.369	23406
839.506	23684
839.643	23573
839.781	23265
839.918	23212
840.055	23364
840.193	23296
840.33	23170
840.467	23124
840.604	23166
840.742	23376
840.879	23090
841.016	23151
841.153	23094
841.29	23178
841.427	23079
841.564	23258
841.701	23132
841.838	23178
841.975	22953
842.112	23117
842.249	23041
842.385	22843
842.522	23102
842.659	23075
842.796	22854
842.933	22934
843.069	22824
843.206	22847
843.343	22946
843.479	22831
843.616	22866
843.752	22729
843.889	22660
844.025	22710
844.162	22649
844.298	22710
844.435	22694
844.571	22584
844.708	22729
844.844	22908
844.98	22748
845.117	22820
845.253	22588
845.389	22497
845.525	22573
845.661	22569
845.798	22436
845.934	22409
846.07	22371
846.206	22470
846.342	22550
846.478	22402
846.614	22169
846.75	22086
846.886	22166
847.022	22196
847.158	22181
847.294	22169
847.429	22112
847.565	22109
847.701	22299
847.837	21915
847.972	21835
848.108	21972
848.244	21918
848.379	21720
848.515	21770
848.65	21656
848.786	21618
848.921	21694
849.057	22002
849.192	21759
849.328	21762
849.463	21808
849.598	21610
849.734	21576
849.869	21462
850.004	21454
850.14	21523
850.275	21618
850.41	21378
850.545	21321
850.68	21370
850.815	21359
850.95	21393
851.085	21614
851.22	21545
851.355	21523
851.49	21336
851.625	21355
851.76	21416
851.895	21481
852.03	21348
852.165	21447
852.299	21485
852.434	21587
852.569	21530
852.703	21466
852.838	21496
852.973	21545
853.107	21473
853.242	21344
853.376	21329
853.511	21199
853.645	21302
853.78	21386
853.914	21252
854.048	21211
854.183	21306
854.317	21370
854.451	21469
854.585	21256
854.72	21264
854.854	21424
854.988	21165
855.122	21207
855.256	21176
855.39	21355
855.524	21363
855.658	21306
855.792	21203
855.926	21348
856.06	21386
856.194	21325
856.327	21393
856.461	21287
856.595	21203
856.729	21336
856.862	21447
856.996	21260
857.13	21313
857.263	21386
857.397	21245
857.53	21264
857.664	21222
857.797	21363
857.931	21374
858.064	21260
858.197	21306
858.331	21146
858.464	21135
858.597	21112
858.731	21165
858.864	21192
858.997	21176
859.13	21279
859.263	21146
859.396	21287
859.529	21188
859.662	21146
859.795	21146
859.928	21302
860.061	21397
860.194	21386
860.327	21374
860.46	21275
860.592	21424
860.725	21325
860.858	21424
860.99	21245
861.123	21093
861.256	21104
861.388	21291
861.521	21819
861.653	21199
861.786	20963
861.918	20990
862.05	21123
862.183	21127
862.315	21287
862.447	21302
862.58	21112
862.712	21116
862.844	20960
862.976	21146
863.108	21005
863.24	21412
863.372	20895
863.504	20998
863.636	21013
863.768	20982
863.9	20967
864.032	20895
864.164	21001
864.296	20998
864.428	21108
864.559	20986
864.691	20990
864.823	20872
864.954	20979
865.086	21024
865.217	20906
865.349	20648
865.48	20887
865.612	20811
865.743	21013
865.875	20876
866.006	20800
866.137	20861
866.269	20834
866.4	20724
866.531	20838
866.662	20689
866.793	20743
866.924	20651
867.055	20781
867.186	20769
867.317	20609
867.448	20697
867.579	20724
867.71	20602
867.841	20712
867.972	20708
868.103	20815
868.233	20746
868.364	20788
868.495	20781
868.625	21100
868.756	21093
868.886	20849
869.017	20826
869.147	21013
869.278	21169
869.408	20998
869.539	21112
869.669	21138
869.799	21017
869.929	21146
870.06	21173
870.19	21397
870.32	21252
870.45	21355
870.58	21431
870.71	21435
870.84	21580
870.97	21355
871.1	21294
871.23	21523
871.36	21572
871.489	21504
871.619	21599
871.749	21679
871.879	21720
872.008	21701
872.138	21614
872.267	21614
872.397	21580
872.526	21435
872.656	21492
872.785	21397
872.915	21538
873.044	21660
873.173	21591
873.303	21534
873.432	21770
873.561	21766
873.69	21637
873.819	21709
873.948	21743
874.077	21625
874.206	21530
874.335	21679
874.464	21759
874.593	21918
874.722	21892
874.851	21869
874.979	21861
875.108	22090
875.237	21781
875.365	21755
875.494	21671
875.623	21857
875.751	21895
875.88	21869
876.008	22006
876.136	22116
876.265	22318
876.393	22390
876.521	22291
876.65	22291
876.778	22337
876.906	22162
877.034	22181
877.162	22173
877.29	22093
877.418	22219
877.546	22284
877.674	22154
877.802	22188
877.93	22207
878.058	22128
878.185	22120
878.313	22234
878.441	22204
878.568	22086
878.696	22215
878.824	22135
878.951	22310
879.079	22504
879.206	22561
879.333	22398
879.461	22261
879.588	22314
879.715	22527
879.842	22565
879.97	22314
880.097	22139
880.224	21953
880.351	22029
880.478	22021
880.605	21888
880.732	22010
880.859	22253
880.986	22101
881.112	22029
881.239	21880
881.366	21793
881.493	21762
881.619	21694
881.746	21648
881.872	21629
881.999	21603
882.125	21515
882.252	21698
882.378	21428
882.505	21629
882.631	21576
882.757	21329
882.883	21458
883.01	21351
883.136	21279
883.262	21176
883.388	21195
883.514	21321
883.64	21374
883.766	21089
883.892	21074
884.018	21100
884.143	21272
884.269	21256
884.395	21039
884.52	20910
884.646	20880
884.772	20876
884.897	20921
885.023	20971
885.148	21123
885.274	21055
885.399	20960
885.524	21001
885.65	20960
885.775	20948
885.9	21020
886.025	21070
886.15	21058
886.275	20910
886.4	20899
886.525	20899
886.65	20880
886.775	20880
886.9	21116
887.025	21222
887.149	20956
887.274	20823
887.399	20735
887.523	20667
887.648	20568
887.773	20648
887.897	20788
888.021	20876
888.146	20644
888.27	20670
888.395	20807
888.519	20769
888.643	20819
888.767	20853
888.891	20621
889.015	20457
889.139	20602
889.263	20545
889.387	20705
889.511	20678
889.635	20537
889.759	20461
889.883	20484
890.006	20370
890.13	20476
890.254	20484
890.377	20377
890.501	20294
890.624	20202
890.748	20298
890.871	20225
890.995	20145
891.118	20039
891.241	20149
891.364	20073
891.488	20180
891.611	20031
891.734	20134
891.857	20119
891.98	20046
892.103	20176
892.226	20195
892.349	19993
892.471	19841
892.594	19917
892.717	20039
892.839	19993
892.962	20046
893.085	20092
893.207	20024
893.33	19814
893.452	19951
893.575	20012
893.697	20016
893.819	20183
893.941	20191
894.064	20069
894.186	19841
894.308	19906
894.43	20100
894.552	20115
894.674	20001
894.796	19841
894.918	19944
895.04	19864
895.161	20065
895.283	20073
895.405	19932
895.526	19917
895.648	19906
895.769	20001
895.891	20043
896.012	20142
896.134	19963
896.255	19894
896.376	20046
896.498	20001
896.619	20062
896.74	19982
896.861	19989
896.982	20393
897.103	20469
897.224	20339
897.345	20100
897.466	20183
897.587	20282
897.708	20476
897.828	20244
897.949	20081
898.07	20084
898.19	20115
898.311	20240
898.431	20149
898.552	20210
898.672	20358
898.792	20294
898.913	20267
899.033	20096
899.153	20073
899.273	19898
899.393	20035
899.513	19951
899.633	19875
899.753	19944
899.873	19788
899.993	20005
900.113	19982
900.232	19909
900.352	19879
900.472	19750
900.591	19811
900.711	19750
900.83	19681
900.95	19765
901.069	19795
901.189	19597
901.308	19441
901.427	19335
901.546	19381
901.665	19460
901.784	19369
901.904	19118
902.023	19187
902.141	18943
902.26	18886
902.379	19046
902.498	18806
902.617	18776
902.735	18909
902.854	18757
902.973	18703
903.091	18486
903.21	18506
903.328	18479
903.446	18372
903.565	18353
903.683	18429
903.801	18163
903.919	18235
904.038	18258
904.156	17969
904.274	18114
904.392	18049
904.51	18098
904.627	18072
904.745	18167
904.863	18114
904.981	17946
905.098	17733
905.216	17691
905.334	17817
905.451	17836
905.569	17752
905.686	17805
905.803	17668
905.921	17558
906.038	17630
906.155	17596
906.272	17436
906.389	17467
906.506	17353
906.623	17311
906.74	17318
906.857	17269
906.974	17181
907.091	17311
907.208	17436
907.324	17322
907.441	17117
907.557	16976
907.674	16976
907.79	17041
907.907	16980
908.023	16930
908.139	16961
908.256	16919
908.372	16896
908.488	16839
908.604	16668
908.72	16611
908.836	16812
908.952	16698
909.068	16733
909.184	16706
909.3	16653
909.415	16729
909.531	16538
909.647	16527
909.762	16481
909.878	16303
909.993	16478
910.108	16310
910.224	16329
910.339	16322
910.454	16204
910.57	16124
910.685	16192
910.8	16314
910.915	16280
911.03	16226
911.145	16017
911.259	15972
911.374	15991
911.489	15892
911.604	15831
911.718	15728
911.833	15705
911.947	15663
912.062	15549
912.176	15781
912.291	15827
912.405	15838
912.519	15934
912.633	15876
912.748	15789
912.862	15709
912.976	15576
913.09	15408
913.204	15477
913.318	15504
913.431	15469
913.545	15591
913.659	15549
913.772	15564
913.886	15382
914	15367
914.113	15420
914.226	15538
914.34	15435
914.453	15169
914.566	15408
914.68	15188
914.793	15230
914.906	15043
915.019	14998
915.132	14864
915.245	14952
915.358	14937
915.47	14937
915.583	14994
915.696	14933
915.809	15058
915.921	15013
916.034	14876
916.146	14872
916.259	14773
916.371	14925
916.483	14933
916.595	14754
916.708	14773
916.82	14864
916.932	14724
917.044	14731
917.156	14705
917.268	14590
917.38	14693
917.491	14587
917.603	14621
917.715	14720
917.826	14632
917.938	14617
918.049	14415
918.161	14507
918.272	14602
918.384	14648
918.495	14511
918.606	14415
918.717	14282
918.828	14301
918.939	14381
919.05	14324
919.161	14358
919.272	14123
919.383	14324
919.494	14393
919.604	14549
919.715	14290
919.826	14267
919.936	14339
920.047	14275
920.157	14396
920.267	14465
920.378	14317
920.488	14172
920.598	14457
920.708	14610
920.818	14454
920.928	14461
921.038	14590
921.148	14568
921.258	14237
921.368	14161
921.477	14130
921.587	14035
921.697	13936
921.806	14111
921.916	13868
922.025	13784
922.134	13719
922.244	13616
922.353	13845
922.462	13613
922.571	13521
922.68	13339
922.789	13396
922.898	13422
923.007	13278
923.116	13339
923.224	13358
923.333	13358
923.442	13129
923.55	13209
923.659	13050
923.767	13324
923.876	13217
923.984	13217
924.092	13031
924.201	13160
924.309	13209
924.417	13072
924.525	13107
924.633	13088
924.741	13734
924.849	12783
924.956	12993
925.064	12757
925.172	12681
925.279	12829
925.387	12833
925.494	12833
925.602	12840
925.709	12768
925.816	12601
925.924	12703
926.031	12760
926.138	12730
926.245	12779
926.352	12658
926.459	12798
926.566	12779
926.673	12722
926.779	12582
926.886	12536
926.993	12410
927.099	12395
927.206	12361
927.312	12285
927.419	12330
927.525	12342
927.631	12384
927.737	12277
927.843	12171
927.95	12171
928.056	12136
928.162	12224
928.267	12186
928.373	12871
928.479	12220
928.585	12034
928.69	12140
928.796	12102
928.901	11992
929.007	11863
929.112	12007
929.218	12064
929.323	11965
929.428	11882
929.533	12022
929.638	11790
929.743	11802
929.848	12007
929.953	11760
930.058	11786
930.163	11554
930.267	11592
930.372	11733
930.477	11547
930.581	11794
930.685	11611
930.79	11573
930.894	11482
930.998	11444
931.103	11657
931.207	11250
931.311	11121
931.415	11041
931.519	10923
931.623	10877
