Data from test_V78500241_3494.txt Node
Date: Fri Mar 25 16:06:00 CST 2022
User: usil
Spectrometer: V785-0024
Trigger mode: 0
Integration Time (sec): 4.000000E-1
Scans to average: 1
Nonlinearity correction enabled: false
Boxcar width: 0
Storing dark spectrum: false
XAxis mode: Wavelengths
Number of Pixels in Spectrum: 1024
>>>>>Begin Spectral Data<<<<<
801.071	29029
801.214	28942
801.356	28664
801.499	28615
801.641	28523
801.783	28596
801.926	28615
802.068	28691
802.211	28565
802.353	28474
802.496	28489
802.638	28257
802.78	28276
802.923	28147
803.065	28124
803.208	28318
803.35	28325
803.492	28394
803.635	28634
803.777	28508
803.919	28603
804.061	28930
804.204	28592
804.346	28390
804.488	28443
804.63	28580
804.773	28637
804.915	28588
805.057	28683
805.199	28497
805.341	28771
805.483	28656
805.626	28736
805.768	28504
805.91	28641
806.052	28847
806.194	28774
806.336	29010
806.478	28839
806.62	28771
806.762	28847
806.904	29044
807.046	29098
807.188	29162
807.33	29178
807.472	29292
807.614	29075
807.756	29117
807.898	29064
808.04	29025
808.182	29090
808.324	28999
808.465	29254
808.607	29280
808.749	29452
808.891	29619
809.033	29474
809.174	29478
809.316	29570
809.458	29315
809.6	29478
809.741	29615
809.883	29444
810.025	29794
810.166	29726
810.308	29843
810.45	29703
810.591	29691
810.733	29512
810.875	29436
811.016	29356
811.158	29322
811.299	29687
811.441	29676
811.582	29604
811.724	29558
811.865	29296
812.007	29524
812.148	29402
812.29	29543
812.431	29718
812.573	29908
812.714	29904
812.855	29950
812.997	30136
813.138	30133
813.279	29954
813.421	30034
813.562	30030
813.703	29916
813.845	29748
813.986	29444
814.127	29239
814.268	29216
814.41	29136
814.551	29109
814.692	29231
814.833	29079
814.974	29098
815.115	29151
815.256	29136
815.397	28961
815.539	29075
815.68	29052
815.821	29033
815.962	29014
816.103	29029
816.244	28885
816.385	28706
816.526	28812
816.666	28516
816.807	28497
816.948	28443
817.089	28618
817.23	28584
817.371	28535
817.512	28637
817.653	28550
817.793	28459
817.934	28440
818.075	28577
818.216	28542
818.356	28367
818.497	28398
818.638	28268
818.778	28268
818.919	28344
819.06	28462
819.2	28428
819.341	28451
819.481	28580
819.622	28668
819.762	28900
819.903	28888
820.043	28717
820.184	28702
820.324	28618
820.465	28755
820.605	28653
820.746	28725
820.886	28584
821.026	28641
821.167	28630
821.307	28679
821.447	28527
821.588	28424
821.728	28341
821.868	28169
822.008	28048
822.149	27846
822.289	27975
822.429	27736
822.569	27622
822.709	27671
822.849	27443
822.99	27568
823.13	27458
823.27	27329
823.41	27294
823.55	27222
823.69	27264
823.83	27378
823.97	27332
824.11	27237
824.25	27047
824.389	27142
824.529	27142
824.669	27154
824.809	27272
824.949	27199
825.089	27207
825.228	27089
825.368	26952
825.508	26979
825.648	27020
825.787	27104
825.927	27127
826.067	27081
826.206	27100
826.346	27104
826.485	27218
826.625	27089
826.765	27173
826.904	27089
827.044	26887
827.183	26800
827.323	26902
827.462	26788
827.601	26842
827.741	26765
827.88	26838
828.02	26830
828.159	26708
828.298	26811
828.437	26750
828.577	26800
828.716	26849
828.855	26640
828.994	26404
829.134	26571
829.273	26495
829.412	26568
829.551	26442
829.69	26423
829.829	26568
829.968	26492
830.107	26579
830.246	26450
830.385	26301
830.524	26393
830.663	26267
830.802	26221
830.941	26084
831.08	26084
831.219	26069
831.357	26187
831.496	26305
831.635	26214
831.774	26081
831.913	26103
832.051	25807
832.19	25772
832.329	25921
832.467	25727
832.606	25738
832.744	25723
832.883	25616
833.022	25597
833.16	25704
833.299	25791
833.437	25795
833.576	25807
833.714	25856
833.852	25818
833.991	25791
834.129	25966
834.267	25883
834.406	25780
834.544	25784
834.682	25753
834.821	25750
834.959	25936
835.097	25803
835.235	25818
835.373	25795
835.511	25742
835.65	25677
835.788	25693
835.926	25483
836.064	25331
836.202	25487
836.34	25544
836.478	25651
836.615	25639
836.753	25715
836.891	25620
837.029	25651
837.167	25578
837.305	25563
837.443	25586
837.58	25460
837.718	25495
837.856	25381
837.993	25422
838.131	25396
838.269	25213
838.406	25422
838.544	25198
838.681	25122
838.819	25133
838.956	24856
839.094	24798
839.231	24817
839.369	25103
839.506	25198
839.643	25091
839.781	24954
839.918	24856
840.055	24996
840.193	24859
840.33	24928
840.467	24840
840.604	24863
840.742	25038
840.879	24707
841.016	24791
841.153	24692
841.29	24814
841.427	24802
841.564	24791
841.701	24795
841.838	24707
841.975	24726
842.112	24757
842.249	24688
842.385	24479
842.522	24821
842.659	24601
842.796	24574
842.933	24669
843.069	24551
843.206	24509
843.343	24555
843.479	24494
843.616	24661
843.752	24388
843.889	24247
844.025	24452
844.162	24429
844.298	24380
844.435	24342
844.571	24338
844.708	24483
844.844	24513
844.98	24433
845.117	24388
845.253	24330
845.389	24167
845.525	24273
845.661	24224
845.798	24041
845.934	24178
846.07	23980
846.206	24239
846.342	24270
846.478	24064
846.614	23878
846.75	23836
846.886	23611
847.022	23889
847.158	23859
847.294	23836
847.429	23832
847.565	23695
847.701	24022
847.837	23493
847.972	23429
848.108	23608
848.244	23520
848.379	23436
848.515	23398
848.65	23383
848.786	23296
848.921	23353
849.057	23467
849.192	23414
849.328	23334
849.463	23330
849.598	23200
849.734	23284
849.869	23208
850.004	23155
850.14	23094
850.275	23132
850.41	23113
850.545	23075
850.68	23143
850.815	23166
850.95	23079
851.085	23231
851.22	23337
851.355	23235
851.49	23056
851.625	23174
851.76	23079
851.895	23056
852.03	23075
852.165	23079
852.299	23162
852.434	23265
852.569	23280
852.703	23075
852.838	23235
852.973	23284
853.107	23368
853.242	23033
853.376	22968
853.511	22965
853.645	23044
853.78	23086
853.914	23102
854.048	22869
854.183	23014
854.317	22942
854.451	23094
854.585	22995
854.72	22919
854.854	23025
854.988	22961
855.122	22858
855.256	22828
855.39	22946
855.524	23025
855.658	22957
855.792	23003
855.926	22972
856.06	22991
856.194	22942
856.327	22957
856.461	22995
856.595	22904
856.729	23006
856.862	23029
856.996	23067
857.13	23094
857.263	23025
857.397	23124
857.53	22801
857.664	22991
857.797	23105
857.931	23159
858.064	23060
858.197	22904
858.331	22904
858.464	22824
858.597	22889
858.731	22999
858.864	22904
858.997	22885
859.13	23033
859.263	22930
859.396	23124
859.529	22930
859.662	22904
859.795	22987
859.928	23056
860.061	23113
860.194	23044
860.327	23033
860.46	23086
860.592	23048
860.725	23094
860.858	23079
860.99	22976
861.123	22839
861.256	22862
861.388	22984
861.521	23676
861.653	22843
861.786	22782
861.918	22782
862.05	22793
862.183	22805
862.315	22816
862.447	22980
862.58	22835
862.712	22683
862.844	22561
862.976	22675
863.108	22599
863.24	23060
863.372	22588
863.504	22649
863.636	22675
863.768	22706
863.9	22603
864.032	22691
864.164	22603
864.296	22607
864.428	22759
864.559	22618
864.691	22710
864.823	22653
864.954	22675
865.086	22546
865.217	22466
865.349	22516
865.48	22470
865.612	22527
865.743	22721
865.875	22550
866.006	22485
866.137	22588
866.269	22504
866.4	22546
866.531	22436
866.662	22474
866.793	22390
866.924	22405
867.055	22554
867.186	22459
867.317	22451
867.448	22333
867.579	22443
867.71	22409
867.841	22405
867.972	22542
868.103	22428
868.233	22462
868.364	22523
868.495	22584
868.625	22752
868.756	22896
868.886	22691
869.017	22782
869.147	22782
869.278	22717
869.408	22755
869.539	22733
869.669	22809
869.799	22759
869.929	22858
870.06	22793
870.19	22938
870.32	22816
870.45	23189
870.58	23105
870.71	23223
870.84	23128
870.97	22991
871.1	23010
871.23	23239
871.36	23391
871.489	23083
871.619	23235
871.749	23372
871.879	23166
872.008	23383
872.138	23330
872.267	23334
872.397	23269
872.526	23121
872.656	23147
872.785	23048
872.915	23273
873.044	23345
873.173	23376
873.303	23292
873.432	23356
873.561	23353
873.69	23406
873.819	23277
873.948	23482
874.077	23292
874.206	23227
874.335	23227
874.464	23459
874.593	23592
874.722	23482
874.851	23608
874.979	23630
875.108	23512
875.237	23505
875.365	23398
875.494	23505
875.623	23619
875.751	23547
875.88	23429
876.008	23691
876.136	23699
876.265	23912
876.393	24018
876.521	23969
876.65	23927
876.778	23901
876.906	23882
877.034	23821
877.162	23851
877.29	23821
877.418	23885
877.546	23866
877.674	23931
877.802	23745
877.93	23821
878.058	23745
878.185	23786
878.313	23710
878.441	23809
878.568	23672
878.696	23771
878.824	23779
878.951	23897
879.079	24041
879.206	24197
879.333	23984
879.461	23798
879.588	24015
879.715	23965
879.842	24129
879.97	23992
880.097	23672
880.224	23699
880.351	23752
880.478	23676
880.605	23676
880.732	23649
880.859	23878
880.986	23684
881.112	23699
881.239	23581
881.366	23444
881.493	23299
881.619	23166
881.746	23311
881.872	23242
881.999	23143
882.125	23208
882.252	23307
882.378	23273
882.505	23212
882.631	23121
882.757	23037
882.883	22957
883.01	22915
883.136	22885
883.262	22740
883.388	22618
883.514	22965
883.64	22991
883.766	22771
883.892	22683
884.018	22672
884.143	22786
884.269	22911
884.395	22683
884.52	22523
884.646	22622
884.772	22363
884.897	22470
885.023	22554
885.148	22626
885.274	22603
885.399	22653
885.524	22459
885.65	22523
885.775	22580
885.9	22474
886.025	22611
886.15	22493
886.275	22527
886.4	22405
886.525	22455
886.65	22440
886.775	22455
886.9	22748
887.025	22725
887.149	22462
887.274	22344
887.399	22303
887.523	22386
887.648	22276
887.773	22109
887.897	22474
888.021	22287
888.146	22287
888.27	22249
888.395	22375
888.519	22318
888.643	22276
888.767	22295
888.891	22143
889.015	22017
889.139	22090
889.263	22169
889.387	22124
889.511	22249
889.635	22223
889.759	22093
889.883	21987
890.006	22105
890.13	22147
890.254	21907
890.377	21899
890.501	21739
890.624	21774
890.748	21880
890.871	21793
890.995	21637
891.118	21545
891.241	21583
891.364	21652
891.488	21732
891.611	21660
891.734	21629
891.857	21648
891.98	21686
892.103	21660
892.226	21576
892.349	21507
892.471	21397
892.594	21435
892.717	21610
892.839	21507
892.962	21629
893.085	21542
893.207	21431
893.33	21344
893.452	21363
893.575	21568
893.697	21492
893.819	21576
893.941	21690
894.064	21583
894.186	21488
894.308	21389
894.43	21526
894.552	21625
894.674	21542
894.796	21458
894.918	21564
895.04	21405
895.161	21587
895.283	21549
895.405	21302
895.526	21454
895.648	21458
895.769	21458
895.891	21485
896.012	21557
896.134	21405
896.255	21439
896.376	21405
896.498	21424
896.619	21583
896.74	21477
896.861	21515
896.982	21724
897.103	21884
897.224	21709
897.345	21709
897.466	21667
897.587	21648
897.708	21789
897.828	21720
897.949	21561
898.07	21477
898.19	21618
898.311	21637
898.431	21538
898.552	21511
898.672	21671
898.792	21770
898.913	21774
899.033	21515
899.153	21599
899.273	21325
899.393	21367
899.513	21454
899.633	21363
899.753	21450
899.873	21310
899.993	21378
900.113	21310
900.232	21313
900.352	21230
900.472	21291
900.591	21017
900.711	21226
900.83	21142
900.95	21169
901.069	21222
901.189	21066
901.308	20842
901.427	20705
901.546	20773
901.665	20629
901.784	20674
901.904	20514
902.023	20465
902.141	20320
902.26	20107
902.379	20214
902.498	20168
902.617	20195
902.735	20271
902.854	20256
902.973	20111
903.091	19890
903.21	19795
903.328	19822
903.446	19818
903.565	19666
903.683	19674
903.801	19537
903.919	19487
904.038	19464
904.156	19346
904.274	19571
904.392	19411
904.51	19407
904.627	19343
904.745	19483
904.863	19362
904.981	19255
905.098	19133
905.216	19046
905.334	19141
905.451	19015
905.569	18916
905.686	19145
905.803	19198
905.921	18840
906.038	18871
906.155	18882
906.272	18745
906.389	18779
906.506	18722
906.623	18631
906.74	18490
906.857	18563
906.974	18528
907.091	18669
907.208	18749
907.324	18635
907.441	18521
907.557	18281
907.674	18308
907.79	18194
907.907	18300
908.023	18395
908.139	18300
908.256	18209
908.372	18076
908.488	18197
908.604	18049
908.72	17999
908.836	18034
908.952	17969
909.068	18038
909.184	18144
909.3	17980
909.415	17916
909.531	17950
909.647	17665
909.762	17672
909.878	17672
909.993	17649
910.108	17668
910.224	17657
910.339	17668
910.454	17509
910.57	17520
910.685	17452
910.8	17726
910.915	17684
911.03	17452
911.145	17273
911.259	17273
911.374	17258
911.489	17231
911.604	17239
911.718	17022
911.833	17010
911.947	16999
912.062	16866
912.176	17086
912.291	16999
912.405	16995
912.519	17193
912.633	17090
912.748	17045
912.862	16987
912.976	16816
913.09	16596
913.204	16771
913.318	16847
913.431	16949
913.545	16877
913.659	16911
913.772	16694
913.886	16645
914	16554
914.113	16660
914.226	16645
914.34	16694
914.453	16489
914.566	16691
914.68	16436
914.793	16519
914.906	16215
915.019	16177
915.132	16074
915.245	16150
915.358	16204
915.47	16154
915.583	16090
915.696	16166
915.809	16211
915.921	16253
916.034	16105
916.146	16078
916.259	16074
916.371	16139
916.483	16048
916.595	15960
916.708	15941
916.82	15880
916.932	16025
917.044	15983
917.156	15793
917.268	15816
917.38	15793
917.491	15663
917.603	15812
917.715	15869
917.826	15808
917.938	15720
918.049	15618
918.161	15747
918.272	15892
918.384	15755
918.495	15698
918.606	15587
918.717	15424
918.828	15599
918.939	15492
919.05	15416
919.161	15523
919.272	15351
919.383	15321
919.494	15511
919.604	15705
919.715	15496
919.826	15321
919.936	15435
920.047	15515
920.157	15428
920.267	15701
920.378	15561
920.488	15439
920.598	15599
920.708	15732
920.818	15553
920.928	15538
921.038	15644
921.148	15774
921.258	15454
921.368	15329
921.477	15230
921.587	15184
921.697	15097
921.806	15104
921.916	15024
922.025	14899
922.134	14811
922.244	14762
922.353	14853
922.462	14758
922.571	14583
922.68	14484
922.789	14465
922.898	14473
923.007	14393
923.116	14492
923.224	14438
923.333	14446
923.442	14221
923.55	14286
923.659	14263
923.767	14351
923.876	14206
923.984	14278
924.092	14199
924.201	14164
924.309	14180
924.417	14149
924.525	14043
924.633	14100
924.741	14963
924.849	13967
924.956	13982
925.064	13883
925.172	13826
925.279	13761
925.387	13761
925.494	13738
925.602	13913
925.709	13860
925.816	13685
925.924	13719
926.031	13803
926.138	13712
926.245	13761
926.352	13597
926.459	13643
926.566	13852
926.673	13632
926.779	13548
926.886	13594
926.993	13449
927.099	13403
927.206	13308
927.312	13354
927.419	13358
927.525	13282
927.631	13369
927.737	13118
927.843	13194
927.95	13046
928.056	13118
928.162	13183
928.267	13198
928.373	13670
928.479	13274
928.585	13008
928.69	13057
928.796	13107
928.901	13053
929.007	12852
929.112	13000
929.218	12943
929.323	12802
929.428	12783
929.533	13000
929.638	12795
929.743	12848
929.848	12840
929.953	12791
930.058	12551
930.163	12578
930.267	12525
930.372	12639
930.477	12365
930.581	12684
930.685	12574
930.79	12441
930.894	12376
930.998	12452
931.103	12566
931.207	12140
931.311	12098
931.415	12026
931.519	11748
931.623	11809
