Data from test_V78500241_2565.txt Node
Date: Fri Mar 25 15:59:34 CST 2022
User: usil
Spectrometer: V785-0024
Trigger mode: 0
Integration Time (sec): 4.000000E-1
Scans to average: 1
Nonlinearity correction enabled: false
Boxcar width: 0
Storing dark spectrum: false
XAxis mode: Wavelengths
Number of Pixels in Spectrum: 1024
>>>>>Begin Spectral Data<<<<<
801.071	28687
801.214	28691
801.356	28379
801.499	28474
801.641	28367
801.783	28246
801.926	28360
802.068	28337
802.211	28253
802.353	28158
802.496	27907
802.638	28013
802.78	28078
802.923	27941
803.065	27873
803.208	27960
803.35	28036
803.492	28131
803.635	28295
803.777	28044
803.919	28306
804.061	28580
804.204	28352
804.346	28025
804.488	28230
804.63	28272
804.773	28234
804.915	28371
805.057	28455
805.199	28154
805.341	28382
805.483	28325
805.626	28424
805.768	28295
805.91	28226
806.052	28363
806.194	28268
806.336	28489
806.478	28459
806.62	28337
806.762	28459
806.904	28782
807.046	29006
807.188	28847
807.33	28790
807.472	28946
807.614	28736
807.756	28869
807.898	28774
808.04	28634
808.182	28694
808.324	28672
808.465	28721
808.607	28965
808.749	29083
808.891	29071
809.033	29315
809.174	29086
809.316	28972
809.458	29102
809.6	28957
809.741	29155
809.883	29239
810.025	29200
810.166	29299
810.308	29258
810.45	29299
810.591	29265
810.733	29174
810.875	29102
811.016	29147
811.158	29117
811.299	29102
811.441	29227
811.582	29242
811.724	29147
811.865	29041
812.007	29277
812.148	29121
812.29	29185
812.431	29368
812.573	29330
812.714	29558
812.855	29836
812.997	29535
813.138	29790
813.279	29699
813.421	29661
813.562	29573
813.703	29474
813.845	29280
813.986	28957
814.127	28892
814.268	28721
814.41	28896
814.551	28843
814.692	28896
814.833	28668
814.974	28630
815.115	28850
815.256	28713
815.397	28820
815.539	28500
815.68	28599
815.821	28512
815.962	28607
816.103	28516
816.244	28436
816.385	28470
816.526	28405
816.666	28390
816.807	28169
816.948	28173
817.089	28223
817.23	28181
817.371	28109
817.512	28181
817.653	28055
817.793	28093
817.934	28112
818.075	28124
818.216	28166
818.356	28063
818.497	27945
818.638	27876
818.778	27804
818.919	28006
819.06	27899
819.2	28112
819.341	28070
819.481	28120
819.622	28272
819.762	28394
819.903	28295
820.043	28375
820.184	28246
820.324	28181
820.465	28280
820.605	28265
820.746	28196
820.886	28101
821.026	28173
821.167	28242
821.307	28363
821.447	28067
821.588	28150
821.728	27914
821.868	27751
822.008	27591
822.149	27641
822.289	27530
822.429	27370
822.569	27279
822.709	27408
822.849	27020
822.99	27135
823.13	27154
823.27	26979
823.41	26899
823.55	26758
823.69	26925
823.83	26906
823.97	26823
824.11	26792
824.25	26720
824.389	26587
824.529	26853
824.669	26819
824.809	26910
824.949	26857
825.089	26811
825.228	26883
825.368	26545
825.508	26556
825.648	26705
825.787	26693
825.927	26629
826.067	26530
826.206	26579
826.346	26632
826.485	26701
826.625	26632
826.765	26686
826.904	26587
827.044	26370
827.183	26358
827.323	26465
827.462	26347
827.601	26305
827.741	26252
827.88	26415
828.02	26229
828.159	26347
828.298	26347
828.437	26351
828.577	26267
828.716	26473
828.855	26149
828.994	26111
829.134	26054
829.273	26153
829.412	26031
829.551	25921
829.69	26039
829.829	26096
829.968	26142
830.107	26221
830.246	26084
830.385	26103
830.524	25997
830.663	25830
830.802	25696
830.941	25601
831.08	25616
831.219	25727
831.357	25677
831.496	25963
831.635	25731
831.774	25582
831.913	25518
832.051	25430
832.19	25392
832.329	25358
832.467	25354
832.606	25308
832.744	25213
832.883	25343
833.022	25259
833.16	25350
833.299	25312
833.437	25285
833.576	25358
833.714	25434
833.852	25495
833.991	25460
834.129	25502
834.267	25259
834.406	25468
834.544	25441
834.682	25343
834.821	25297
834.959	25586
835.097	25396
835.235	25362
835.373	25373
835.511	25312
835.65	25289
835.788	25228
835.926	25015
836.064	24973
836.202	25103
836.34	25320
836.478	25209
836.615	25080
836.753	25244
836.891	25282
837.029	25129
837.167	25202
837.305	25046
837.443	25088
837.58	25000
837.718	25221
837.856	25187
837.993	24970
838.131	25023
838.269	24947
838.406	24920
838.544	24791
838.681	24684
838.819	24639
838.956	24582
839.094	24540
839.231	24410
839.369	24620
839.506	24814
839.643	24681
839.781	24410
839.918	24414
840.055	24490
840.193	24483
840.33	24483
840.467	24441
840.604	24475
840.742	24650
840.879	24372
841.016	24357
841.153	24315
841.29	24498
841.427	24380
841.564	24410
841.701	24369
841.838	24353
841.975	24167
842.112	24277
842.249	24315
842.385	24117
842.522	24315
842.659	24289
842.796	24201
842.933	24270
843.069	23980
843.206	24007
843.343	24110
843.479	24148
843.616	24148
843.752	23859
843.889	23992
844.025	24018
844.162	23824
844.298	23931
844.435	23942
844.571	23870
844.708	23946
844.844	24041
844.98	24022
845.117	23889
845.253	23821
845.389	23805
845.525	23882
845.661	23813
845.798	23676
845.934	23710
846.07	23573
846.206	23661
846.342	23748
846.478	23737
846.614	23547
846.75	23353
846.886	23318
847.022	23474
847.158	23425
847.294	23387
847.429	23421
847.565	23261
847.701	23615
847.837	23117
847.972	22965
848.108	23178
848.244	23170
848.379	22961
848.515	22862
848.65	22858
848.786	22812
848.921	22999
849.057	23067
849.192	23006
849.328	22915
849.463	22949
849.598	22938
849.734	22828
849.869	22740
850.004	22687
850.14	22862
850.275	22831
850.41	22729
850.545	22736
850.68	22740
850.815	22759
850.95	22656
851.085	22908
851.22	22740
851.355	22611
851.49	22801
851.625	22740
851.76	22748
851.895	22717
852.03	22588
852.165	22706
852.299	22675
852.434	22900
852.569	22797
852.703	22748
852.838	22675
852.973	22702
853.107	22831
853.242	22702
853.376	22470
853.511	22386
853.645	22470
853.78	22660
853.914	22535
854.048	22363
854.183	22500
854.317	22519
854.451	22713
854.585	22573
854.72	22531
854.854	22611
854.988	22447
855.122	22485
855.256	22371
855.39	22489
855.524	22557
855.658	22607
855.792	22694
855.926	22599
856.06	22573
856.194	22497
856.327	22596
856.461	22508
856.595	22375
856.729	22550
856.862	22580
856.996	22660
857.13	22691
857.263	22618
857.397	22702
857.53	22531
857.664	22637
857.797	22626
857.931	22634
858.064	22698
858.197	22679
858.331	22557
858.464	22459
858.597	22352
858.731	22478
858.864	22485
858.997	22504
859.13	22538
859.263	22481
859.396	22561
859.529	22546
859.662	22417
859.795	22409
859.928	22577
860.061	22672
860.194	22862
860.327	22637
860.46	22618
860.592	22584
860.725	22626
860.858	22679
860.99	22459
861.123	22424
861.256	22489
861.388	22497
861.521	23128
861.653	22432
861.786	22284
861.918	22287
862.05	22443
862.183	22455
862.315	22466
862.447	22538
862.58	22413
862.712	22230
862.844	22287
862.976	22379
863.108	22295
863.24	22820
863.372	22086
863.504	22310
863.636	22181
863.768	22379
863.9	22261
864.032	22135
864.164	22257
864.296	22219
864.428	22375
864.559	22291
864.691	22333
864.823	22215
864.954	22226
865.086	22173
865.217	22234
865.349	21998
865.48	22173
865.612	22143
865.743	22272
865.875	22177
866.006	22135
866.137	22063
866.269	22143
866.4	22207
866.531	22017
866.662	22082
866.793	22025
866.924	22029
867.055	22032
867.186	22112
867.317	22002
867.448	21975
867.579	21983
867.71	21994
867.841	22021
867.972	22040
868.103	21922
868.233	22048
868.364	22162
868.495	22067
868.625	22272
868.756	22382
868.886	22253
869.017	22204
869.147	22348
869.278	22333
869.408	22356
869.539	22318
869.669	22409
869.799	22306
869.929	22394
870.06	22333
870.19	22615
870.32	22580
870.45	22607
870.58	22687
870.71	22687
870.84	22797
870.97	22748
871.1	22622
871.23	22930
871.36	22831
871.489	22691
871.619	22691
871.749	22869
871.879	22835
872.008	22953
872.138	22942
872.267	23010
872.397	22828
872.526	22725
872.656	22664
872.785	22649
872.915	22987
873.044	22892
873.173	22881
873.303	23003
873.432	22965
873.561	22858
873.69	22991
873.819	22908
873.948	22930
874.077	23033
874.206	22778
874.335	22866
874.464	22942
874.593	23117
874.722	23109
874.851	23071
874.979	22984
875.108	23147
875.237	23060
875.365	22987
875.494	23037
875.623	23136
875.751	23064
875.88	23124
876.008	23307
876.136	23402
876.265	23509
876.393	23600
876.521	23695
876.65	23471
876.778	23531
876.906	23429
877.034	23452
877.162	23448
877.29	23402
877.418	23406
877.546	23436
877.674	23490
877.802	23516
877.93	23535
878.058	23315
878.185	23486
878.313	23330
878.441	23478
878.568	23376
878.696	23349
878.824	23509
878.951	23729
879.079	23634
879.206	23843
879.333	23592
879.461	23486
879.588	23520
879.715	23551
879.842	23836
879.97	23497
880.097	23315
880.224	23334
880.351	23258
880.478	23273
880.605	23318
880.732	23307
880.859	23448
880.986	23200
881.112	23330
881.239	23083
881.366	22908
881.493	22995
881.619	22919
881.746	22976
881.872	22801
881.999	22755
882.125	22801
882.252	22915
882.378	22915
882.505	22965
882.631	22691
882.757	22622
882.883	22618
883.01	22538
883.136	22478
883.262	22508
883.388	22322
883.514	22523
883.64	22462
883.766	22436
883.892	22188
884.018	22318
884.143	22417
884.269	22455
884.395	22310
884.52	22154
884.646	22150
884.772	22059
884.897	22135
885.023	22101
885.148	22207
885.274	22067
885.399	22303
885.524	22162
885.65	22131
885.775	22139
885.9	21998
886.025	22253
886.15	22234
886.275	22116
886.4	21949
886.525	22040
886.65	22013
886.775	22021
886.9	22280
887.025	22356
887.149	22154
887.274	21930
887.399	21918
887.523	21949
887.648	21888
887.773	21979
887.897	22051
888.021	21876
888.146	21903
888.27	21972
888.395	22036
888.519	21861
888.643	22078
888.767	22040
888.891	21857
889.015	21698
889.139	21838
889.263	21759
889.387	21774
889.511	21937
889.635	21876
889.759	21690
889.883	21519
890.006	21675
890.13	21736
890.254	21663
890.377	21694
890.501	21443
890.624	21405
890.748	21549
890.871	21386
890.995	21214
891.118	21291
891.241	21336
891.364	21367
891.488	21397
891.611	21378
891.734	21252
891.857	21298
891.98	21211
892.103	21249
892.226	21367
892.349	21188
892.471	21089
892.594	21203
892.717	21169
892.839	21116
892.962	21275
893.085	21233
893.207	21272
893.33	21112
893.452	21123
893.575	21192
893.697	21081
893.819	21241
893.941	21336
894.064	21378
894.186	21039
894.308	21123
894.43	21245
894.552	21294
894.674	21260
894.796	21165
894.918	21123
895.04	21218
895.161	21028
895.283	21241
895.405	21032
895.526	21093
895.648	21203
895.769	21188
895.891	21173
896.012	21245
896.134	21226
896.255	21237
896.376	21024
896.498	21058
896.619	21131
896.74	21077
896.861	21173
896.982	21348
897.103	21450
897.224	21344
897.345	21264
897.466	21241
897.587	21428
897.708	21542
897.828	21382
897.949	21283
898.07	21096
898.19	21249
898.311	21393
898.431	21245
898.552	21408
898.672	21302
898.792	21332
898.913	21401
899.033	21222
899.153	21077
899.273	21001
899.393	21119
899.513	21165
899.633	21062
899.753	21142
899.873	20956
899.993	21077
900.113	20937
900.232	21100
900.352	21028
900.472	20883
900.591	20727
900.711	20887
900.83	20765
900.95	20948
901.069	20990
901.189	20750
901.308	20571
901.427	20370
901.546	20438
901.665	20374
901.784	20324
901.904	20313
902.023	20206
902.141	20096
902.26	19970
902.379	20149
902.498	19974
902.617	19928
902.735	19963
902.854	19898
902.973	19871
903.091	19655
903.21	19674
903.328	19651
903.446	19544
903.565	19464
903.683	19339
903.801	19274
903.919	19365
904.038	19327
904.156	19099
904.274	19228
904.392	19053
904.51	19057
904.627	19072
904.745	19141
904.863	19141
904.981	18943
905.098	18795
905.216	18745
905.334	18844
905.451	18833
905.569	18658
905.686	18749
905.803	18795
905.921	18532
906.038	18673
906.155	18597
906.272	18369
906.389	18517
906.506	18304
906.623	18350
906.74	18292
906.857	18220
906.974	18228
907.091	18338
907.208	18353
907.324	18414
907.441	18194
907.557	18152
907.674	18087
907.79	18011
907.907	17942
908.023	18026
908.139	18087
908.256	17882
908.372	17889
908.488	17882
908.604	17771
908.72	17676
908.836	17737
908.952	17684
909.068	17794
909.184	17855
909.3	17718
909.415	17714
909.531	17707
909.647	17486
909.762	17353
909.878	17421
909.993	17444
910.108	17379
910.224	17277
910.339	17387
910.454	17356
910.57	17204
910.685	17174
910.8	17440
910.915	17330
911.03	17242
911.145	17029
911.259	16946
911.374	17045
911.489	16919
911.604	16812
911.718	16736
911.833	16854
911.947	16637
912.062	16653
912.176	16778
912.291	16771
912.405	16782
912.519	16892
912.633	16896
912.748	16664
912.862	16702
912.976	16626
913.09	16478
913.204	16516
913.318	16637
913.431	16607
913.545	16702
913.659	16729
913.772	16466
913.886	16455
914	16344
914.113	16417
914.226	16519
914.34	16500
914.453	16238
914.566	16417
914.68	16238
914.793	16196
914.906	16010
915.019	15892
915.132	15850
915.245	15998
915.358	15911
915.47	15934
915.583	15915
915.696	15975
915.809	15960
915.921	15987
916.034	15800
916.146	15895
916.259	15846
916.371	15972
916.483	15873
916.595	15759
916.708	15831
916.82	15778
916.932	15694
917.044	15587
917.156	15694
917.268	15576
917.38	15564
917.491	15561
917.603	15538
917.715	15663
917.826	15622
917.938	15549
918.049	15435
918.161	15534
918.272	15580
918.384	15591
918.495	15557
918.606	15340
918.717	15317
918.828	15416
918.939	15439
919.05	15157
919.161	15283
919.272	14986
919.383	15150
919.494	15233
919.604	15447
919.715	15268
919.826	15161
919.936	15173
920.047	15325
920.157	15230
920.267	15416
920.378	15230
920.488	15195
920.598	15283
920.708	15561
920.818	15355
920.928	15275
921.038	15530
921.148	15454
921.258	15127
921.368	15055
921.477	14990
921.587	14925
921.697	14876
921.806	14948
921.916	14796
922.025	14579
922.134	14594
922.244	14530
922.353	14632
922.462	14511
922.571	14370
922.68	14267
922.789	14164
922.898	14233
923.007	14210
923.116	14278
923.224	14210
923.333	14180
923.442	14077
923.55	14126
923.659	14123
923.767	14153
923.876	13974
923.984	14134
924.092	13947
924.201	14005
924.309	13928
924.417	13894
924.525	13887
924.633	13852
924.741	14819
924.849	13636
924.956	13845
925.064	13734
925.172	13537
925.279	13624
925.387	13689
925.494	13491
925.602	13643
925.709	13655
925.816	13525
925.924	13464
926.031	13674
926.138	13556
926.245	13563
926.352	13426
926.459	13575
926.566	13620
926.673	13396
926.779	13312
926.886	13251
926.993	13179
927.099	13187
927.206	13118
927.312	13065
927.419	13244
927.525	13209
927.631	13171
927.737	13080
927.843	12905
927.95	13008
928.056	13023
928.162	12958
928.267	12901
928.373	13468
928.479	13027
928.585	12791
928.69	12905
928.796	12905
928.901	12753
929.007	12646
929.112	12783
929.218	12768
929.323	12627
929.428	12620
929.533	12711
929.638	12494
929.743	12642
929.848	12623
929.953	12623
930.058	12460
930.163	12327
930.267	12342
930.372	12494
930.477	12205
930.581	12490
930.685	12429
930.79	12171
930.894	12285
930.998	12270
931.103	12277
931.207	11961
931.311	11866
931.415	11859
931.519	11676
931.623	11589
