Data from test_V78500241_2117.txt Node
Date: Fri Mar 25 15:56:27 CST 2022
User: usil
Spectrometer: V785-0024
Trigger mode: 0
Integration Time (sec): 4.000000E-1
Scans to average: 1
Nonlinearity correction enabled: false
Boxcar width: 0
Storing dark spectrum: false
XAxis mode: Wavelengths
Number of Pixels in Spectrum: 1024
>>>>>Begin Spectral Data<<<<<
801.071	29048
801.214	28999
801.356	28698
801.499	28679
801.641	28569
801.783	28603
801.926	28500
802.068	28481
802.211	28512
802.353	28322
802.496	28303
802.638	28280
802.78	28265
802.923	28188
803.065	28253
803.208	28265
803.35	28230
803.492	28409
803.635	28493
803.777	28299
803.919	28497
804.061	28763
804.204	28588
804.346	28379
804.488	28421
804.63	28447
804.773	28424
804.915	28489
805.057	28694
805.199	28485
805.341	28607
805.483	28759
805.626	28691
805.768	28710
805.91	28675
806.052	28683
806.194	28771
806.336	28778
806.478	28713
806.62	28550
806.762	28782
806.904	28888
807.046	29151
807.188	29067
807.33	29227
807.472	29223
807.614	29185
807.756	29113
807.898	28900
808.04	29003
808.182	28843
808.324	28987
808.465	29006
808.607	29265
808.749	29334
808.891	29501
809.033	29581
809.174	29429
809.316	29284
809.458	29486
809.6	29322
809.741	29402
809.883	29467
810.025	29775
810.166	29619
810.308	29672
810.45	29535
810.591	29611
810.733	29482
810.875	29444
811.016	29307
811.158	29391
811.299	29387
811.441	29589
811.582	29577
811.724	29368
811.865	29341
812.007	29383
812.148	29345
812.29	29524
812.431	29566
812.573	29649
812.714	29794
812.855	29832
812.997	30018
813.138	30163
813.279	30171
813.421	29855
813.562	29946
813.703	29794
813.845	29486
813.986	29429
814.127	29181
814.268	29132
814.41	29151
814.551	28987
814.692	29170
814.833	29044
814.974	29033
815.115	29064
815.256	29029
815.397	28927
815.539	28927
815.68	28972
815.821	28828
815.962	28953
816.103	28919
816.244	28850
816.385	28672
816.526	28797
816.666	28451
816.807	28314
816.948	28459
817.089	28542
817.23	28512
817.371	28481
817.512	28478
817.653	28405
817.793	28291
817.934	28440
818.075	28645
818.216	28451
818.356	28363
818.497	28318
818.638	28070
818.778	28246
818.919	28158
819.06	28344
819.2	28398
819.341	28512
819.481	28367
819.622	28538
819.762	28869
819.903	28664
820.043	28622
820.184	28584
820.324	28634
820.465	28717
820.605	28462
820.746	28535
820.886	28440
821.026	28508
821.167	28447
821.307	28428
821.447	28413
821.588	28375
821.728	28268
821.868	28029
822.008	27945
822.149	27983
822.289	27793
822.429	27739
822.569	27728
822.709	27698
822.849	27412
822.99	27458
823.13	27378
823.27	27310
823.41	27218
823.55	27226
823.69	27218
823.83	27310
823.97	27184
824.11	27051
824.25	27001
824.389	27001
824.529	27214
824.669	27123
824.809	27329
824.949	27150
825.089	27241
825.228	27074
825.368	26921
825.508	26887
825.648	26891
825.787	27028
825.927	27119
826.067	27074
826.206	26864
826.346	26982
826.485	27001
826.625	27028
826.765	27222
826.904	27077
827.044	26804
827.183	26670
827.323	26705
827.462	26804
827.601	26678
827.741	26712
827.88	26602
828.02	26480
828.159	26640
828.298	26571
828.437	26667
828.577	26629
828.716	26727
828.855	26533
828.994	26355
829.134	26374
829.273	26537
829.412	26225
829.551	26324
829.69	26473
829.829	26324
829.968	26438
830.107	26396
830.246	26522
830.385	26237
830.524	26290
830.663	26103
830.802	26054
830.941	25959
831.08	25951
831.219	26138
831.357	25978
831.496	26202
831.635	25982
831.774	25883
831.913	25906
832.051	25898
832.19	25689
832.329	25704
832.467	25757
832.606	25689
832.744	25696
832.883	25746
833.022	25651
833.16	25655
833.299	25651
833.437	25772
833.576	25696
833.714	25590
833.852	25677
833.991	25818
834.129	25849
834.267	25776
834.406	25727
834.544	25769
834.682	25655
834.821	25704
834.959	25860
835.097	25700
835.235	25799
835.373	25681
835.511	25712
835.65	25628
835.788	25624
835.926	25419
836.064	25430
836.202	25411
836.34	25563
836.478	25635
836.615	25518
836.753	25453
836.891	25632
837.029	25548
837.167	25426
837.305	25479
837.443	25384
837.58	25331
837.718	25346
837.856	25289
837.993	25346
838.131	25278
838.269	25255
838.406	25282
838.544	25168
838.681	25133
838.819	25019
838.956	24821
839.094	24711
839.231	24738
839.369	24867
839.506	25198
839.643	25061
839.781	24817
839.918	24802
840.055	24768
840.193	24795
840.33	24738
840.467	24650
840.604	24814
840.742	24909
840.879	24578
841.016	24711
841.153	24620
841.29	24848
841.427	24882
841.564	24722
841.701	24673
841.838	24741
841.975	24521
842.112	24578
842.249	24486
842.385	24494
842.522	24612
842.659	24521
842.796	24403
842.933	24490
843.069	24353
843.206	24350
843.343	24513
843.479	24494
843.616	24346
843.752	24171
843.889	24258
844.025	24460
844.162	24194
844.298	24353
844.435	24342
844.571	24205
844.708	24384
844.844	24445
844.98	24330
845.117	24403
845.253	24205
845.389	23992
845.525	24201
845.661	24114
845.798	23878
845.934	23950
846.07	23988
846.206	23961
846.342	23973
846.478	23824
846.614	23821
846.75	23619
846.886	23608
847.022	23657
847.158	23623
847.294	23680
847.429	23619
847.565	23699
847.701	23961
847.837	23467
847.972	23440
848.108	23547
848.244	23379
848.379	23299
848.515	23254
848.65	23242
848.786	23280
848.921	23280
849.057	23482
849.192	23292
849.328	23341
849.463	23299
849.598	23246
849.734	23166
849.869	23174
850.004	22965
850.14	23006
850.275	22957
850.41	23044
850.545	22862
850.68	22820
850.815	22968
850.95	23052
851.085	23189
851.22	23155
851.355	22995
851.49	23109
851.625	22972
851.76	22923
851.895	22957
852.03	22953
852.165	23109
852.299	23094
852.434	23105
852.569	23121
852.703	23056
852.838	23109
852.973	23060
853.107	23162
853.242	22774
853.376	22858
853.511	22767
853.645	22824
853.78	22965
853.914	22892
854.048	22793
854.183	22717
854.317	22828
854.451	23064
854.585	22972
854.72	22721
854.854	22873
854.988	22850
855.122	22839
855.256	22660
855.39	22816
855.524	22820
855.658	22965
855.792	22889
855.926	22801
856.06	23003
856.194	22809
856.327	22908
856.461	22767
856.595	22774
856.729	22839
856.862	22961
856.996	22946
857.13	22828
857.263	22858
857.397	22930
857.53	22862
857.664	22873
857.797	22847
857.931	22987
858.064	22976
858.197	22957
858.331	22782
858.464	22778
858.597	22820
858.731	22809
858.864	22816
858.997	22630
859.13	22877
859.263	22820
859.396	22923
859.529	22824
859.662	22980
859.795	22721
859.928	22919
860.061	23044
860.194	23006
860.327	22889
860.46	22866
860.592	23044
860.725	23006
860.858	22965
860.99	22805
861.123	22790
861.256	22725
861.388	22778
861.521	23448
861.653	22740
861.786	22577
861.918	22664
862.05	22790
862.183	22767
862.315	22858
862.447	22809
862.58	22713
862.712	22596
862.844	22485
862.976	22771
863.108	22542
863.24	22946
863.372	22402
863.504	22554
863.636	22535
863.768	22596
863.9	22519
864.032	22584
864.164	22512
864.296	22675
864.428	22542
864.559	22565
864.691	22622
864.823	22542
864.954	22481
865.086	22535
865.217	22409
865.349	22337
865.48	22459
865.612	22402
865.743	22588
865.875	22580
866.006	22367
866.137	22363
866.269	22447
866.4	22360
866.531	22322
866.662	22322
866.793	22238
866.924	22394
867.055	22531
867.186	22295
867.317	22253
867.448	22200
867.579	22276
867.71	22295
867.841	22131
867.972	22299
868.103	22363
868.233	22303
868.364	22428
868.495	22413
868.625	22550
868.756	22626
868.886	22405
869.017	22615
869.147	22687
869.278	22630
869.408	22694
869.539	22481
869.669	22672
869.799	22653
869.929	22801
870.06	22835
870.19	22919
870.32	22904
870.45	22885
870.58	23006
870.71	23052
870.84	23132
870.97	23029
871.1	22999
871.23	23269
871.36	23170
871.489	23033
871.619	23067
871.749	23170
871.879	23231
872.008	23246
872.138	23094
872.267	23280
872.397	23212
872.526	23052
872.656	23128
872.785	23094
872.915	23208
873.044	23299
873.173	23181
873.303	23193
873.432	23273
873.561	23280
873.69	23208
873.819	23193
873.948	23307
874.077	23299
874.206	23227
874.335	23265
874.464	23376
874.593	23372
874.722	23436
874.851	23330
874.979	23341
875.108	23440
875.237	23406
875.365	23235
875.494	23410
875.623	23471
875.751	23410
875.88	23501
876.008	23433
876.136	23486
876.265	23809
876.393	24003
876.521	23813
876.65	23863
876.778	23798
876.906	23767
877.034	23676
877.162	23794
877.29	23718
877.418	23824
877.546	23843
877.674	23687
877.802	23756
877.93	23718
878.058	23718
878.185	23668
878.313	23741
878.441	23794
878.568	23623
878.696	23619
878.824	23748
878.951	23786
879.079	23999
879.206	23965
879.333	23954
879.461	23775
879.588	23901
879.715	23893
879.842	23935
879.97	23729
880.097	23585
880.224	23512
880.351	23528
880.478	23592
880.605	23592
880.732	23539
880.859	23687
880.986	23634
881.112	23646
881.239	23455
881.366	23204
881.493	23239
881.619	23033
881.746	23060
881.872	23162
881.999	23105
882.125	22976
882.252	23071
882.378	23140
882.505	23102
882.631	23060
882.757	22733
882.883	22896
883.01	22782
883.136	22805
883.262	22725
883.388	22561
883.514	22675
883.64	22835
883.766	22637
883.892	22561
884.018	22531
884.143	22733
884.269	22774
884.395	22481
884.52	22379
884.646	22470
884.772	22314
884.897	22303
885.023	22504
885.148	22382
885.274	22478
885.399	22527
885.524	22363
885.65	22474
885.775	22474
885.9	22413
886.025	22424
886.15	22474
886.275	22341
886.4	22223
886.525	22382
886.65	22329
886.775	22432
886.9	22531
887.025	22626
887.149	22341
887.274	22284
887.399	22192
887.523	22147
887.648	22200
887.773	22013
887.897	22276
888.021	22200
888.146	22196
888.27	22249
888.395	22154
888.519	22200
888.643	22116
888.767	22230
888.891	22040
889.015	21972
889.139	21956
889.263	21934
889.387	22109
889.511	22188
889.635	22021
889.759	22055
889.883	21975
890.006	21918
890.13	21911
890.254	21785
890.377	21953
890.501	21656
890.624	21667
890.748	21713
890.871	21663
890.995	21542
891.118	21348
891.241	21424
891.364	21408
891.488	21675
891.611	21614
891.734	21454
891.857	21545
891.98	21587
892.103	21564
892.226	21553
892.349	21564
892.471	21344
892.594	21466
892.717	21393
892.839	21317
892.962	21477
893.085	21519
893.207	21488
893.33	21344
893.452	21313
893.575	21447
893.697	21332
893.819	21572
893.941	21644
894.064	21576
894.186	21367
894.308	21367
894.43	21557
894.552	21504
894.674	21549
894.796	21382
894.918	21389
895.04	21389
895.161	21393
895.283	21469
895.405	21370
895.526	21462
895.648	21424
895.769	21469
895.891	21363
896.012	21618
896.134	21363
896.255	21408
896.376	21302
896.498	21401
896.619	21439
896.74	21435
896.861	21462
896.982	21732
897.103	21797
897.224	21656
897.345	21542
897.466	21572
897.587	21625
897.708	21743
897.828	21606
897.949	21466
898.07	21336
898.19	21355
898.311	21557
898.431	21477
898.552	21633
898.672	21606
898.792	21660
898.913	21553
899.033	21477
899.153	21336
899.273	21264
899.393	21401
899.513	21260
899.633	21363
899.753	21340
899.873	21195
899.993	21287
900.113	21272
900.232	21272
900.352	21154
900.472	21287
900.591	21058
900.711	21070
900.83	20979
900.95	21203
901.069	21180
901.189	20868
901.308	20724
901.427	20590
901.546	20640
901.665	20636
901.784	20625
901.904	20442
902.023	20381
902.141	20161
902.26	20191
902.379	20294
902.498	20062
902.617	20046
902.735	20138
902.854	20096
902.973	20043
903.091	19799
903.21	19670
903.328	19822
903.446	19685
903.565	19594
903.683	19491
903.801	19457
903.919	19529
904.038	19575
904.156	19415
904.274	19457
904.392	19411
904.51	19247
904.627	19430
904.745	19453
904.863	19312
904.981	19209
905.098	18970
905.216	18966
905.334	19042
905.451	19088
905.569	19015
905.686	19103
905.803	18920
905.921	18920
906.038	18871
906.155	18909
906.272	18749
906.389	18646
906.506	18555
906.623	18483
906.74	18566
906.857	18407
906.974	18433
907.091	18555
907.208	18631
907.324	18563
907.441	18456
907.557	18334
907.674	18300
907.79	18224
907.907	18228
908.023	18167
908.139	18311
908.256	18171
908.372	18049
908.488	18178
908.604	17977
908.72	17939
908.836	17950
908.952	17790
909.068	17942
909.184	18133
909.3	17923
909.415	17946
909.531	17893
909.647	17691
909.762	17733
909.878	17581
909.993	17684
910.108	17577
910.224	17509
910.339	17512
910.454	17516
910.57	17501
910.685	17433
910.8	17581
910.915	17448
911.03	17402
911.145	17364
911.259	17208
911.374	17197
911.489	17174
911.604	17083
911.718	16957
911.833	17014
911.947	16869
912.062	16790
912.176	17006
912.291	16896
912.405	16953
912.519	17140
912.633	17022
912.748	17037
912.862	16877
912.976	16885
913.09	16630
913.204	16790
913.318	16706
913.431	16877
913.545	16793
913.659	16809
913.772	16611
913.886	16637
914	16474
914.113	16664
914.226	16618
914.34	16493
914.453	16489
914.566	16573
914.68	16424
914.793	16379
914.906	16219
915.019	16063
915.132	16211
915.245	16169
915.358	16128
915.47	16112
915.583	16093
915.696	16090
915.809	16249
915.921	16314
916.034	16162
916.146	15987
916.259	16002
916.371	16013
916.483	15983
916.595	15956
916.708	15895
916.82	16013
916.932	15861
917.044	15838
917.156	15903
917.268	15751
917.38	15686
917.491	15679
917.603	15732
917.715	15743
917.826	15876
917.938	15648
918.049	15587
918.161	15682
918.272	15739
918.384	15804
918.495	15587
918.606	15553
918.717	15408
918.828	15454
918.939	15389
919.05	15329
919.161	15481
919.272	15252
919.383	15268
919.494	15435
919.604	15682
919.715	15443
919.826	15283
919.936	15348
920.047	15450
920.157	15386
920.267	15656
920.378	15420
920.488	15336
920.598	15595
920.708	15720
920.818	15458
920.928	15530
921.038	15637
921.148	15652
921.258	15355
921.368	15211
921.477	15180
921.587	15161
921.697	15039
921.806	15142
921.916	15024
922.025	14861
922.134	14727
922.244	14674
922.353	14811
922.462	14746
922.571	14552
922.68	14442
922.789	14427
922.898	14305
923.007	14259
923.116	14408
923.224	14400
923.333	14328
923.442	14275
923.55	14305
923.659	14294
923.767	14286
923.876	14138
923.984	14180
924.092	14119
924.201	14142
924.309	14176
924.417	14081
924.525	14043
924.633	14012
924.741	14765
924.849	13765
924.956	14088
925.064	13822
925.172	13731
925.279	13655
925.387	13753
925.494	13734
925.602	13871
925.709	13791
925.816	13628
925.924	13628
926.031	13731
926.138	13693
926.245	13708
926.352	13582
926.459	13772
926.566	13712
926.673	13533
926.779	13567
926.886	13506
926.993	13434
927.099	13324
927.206	13202
927.312	13259
927.419	13377
927.525	13320
927.631	13247
927.737	13076
927.843	13183
927.95	13061
928.056	13042
928.162	13168
928.267	13156
928.373	13670
928.479	13164
928.585	12916
928.69	13031
928.796	13076
928.901	12970
929.007	12863
929.112	12928
929.218	12890
929.323	12833
929.428	12795
929.533	12996
929.638	12753
929.743	12757
929.848	12814
929.953	12779
930.058	12608
930.163	12365
930.267	12410
930.372	12589
930.477	12418
930.581	12684
930.685	12483
930.79	12315
930.894	12437
930.998	12330
931.103	12410
931.207	12117
931.311	11912
931.415	11889
931.519	11752
931.623	11722
