Data from test_V78500241_706.txt Node
Date: Fri Mar 25 15:46:41 CST 2022
User: usil
Spectrometer: V785-0024
Trigger mode: 0
Integration Time (sec): 4.000000E-1
Scans to average: 1
Nonlinearity correction enabled: false
Boxcar width: 0
Storing dark spectrum: false
XAxis mode: Wavelengths
Number of Pixels in Spectrum: 1024
>>>>>Begin Spectral Data<<<<<
801.071	27850
801.214	27720
801.356	27561
801.499	27443
801.641	27332
801.783	27294
801.926	27500
802.068	27321
802.211	27249
802.353	27062
802.496	27020
802.638	27058
802.78	26990
802.923	26891
803.065	26861
803.208	26872
803.35	26948
803.492	27211
803.635	27081
803.777	27085
803.919	27138
804.061	27599
804.204	27199
804.346	27184
804.488	27039
804.63	27230
804.773	27051
804.915	27150
805.057	27241
805.199	27256
805.341	27161
805.483	27317
805.626	27291
805.768	27142
805.91	27252
806.052	27146
806.194	27165
806.336	27454
806.478	27367
806.62	27272
806.762	27386
806.904	27698
807.046	27888
807.188	27766
807.33	27804
807.472	27793
807.614	27857
807.756	27663
807.898	27519
808.04	27515
808.182	27633
808.324	27507
808.465	27732
808.607	27888
808.749	27785
808.891	28032
809.033	28131
809.174	28124
809.316	27956
809.458	27953
809.6	27922
809.741	28032
809.883	28147
810.025	28025
810.166	28280
810.308	28257
810.45	28246
810.591	28215
810.733	27831
810.875	27873
811.016	27812
811.158	27911
811.299	28109
811.441	28067
811.582	28192
811.724	27979
811.865	27968
812.007	27895
812.148	27865
812.29	27846
812.431	28135
812.573	28219
812.714	28447
812.855	28428
812.997	28516
813.138	28656
813.279	28565
813.421	28504
813.562	28333
813.703	28363
813.845	28078
813.986	27816
814.127	27770
814.268	27732
814.41	27713
814.551	27686
814.692	27572
814.833	27545
814.974	27610
815.115	27671
815.256	27466
815.397	27591
815.539	27534
815.68	27519
815.821	27412
815.962	27549
816.103	27241
816.244	27332
816.385	27127
816.526	27161
816.666	27077
816.807	26948
816.948	27032
817.089	27028
817.23	26933
817.371	26956
817.512	26868
817.653	26857
817.793	26861
817.934	26876
818.075	27005
818.216	27043
818.356	26838
818.497	26819
818.638	26765
818.778	26720
818.919	26682
819.06	26587
819.2	26906
819.341	26864
819.481	26773
819.622	27093
819.762	27264
819.903	27116
820.043	27123
820.184	26998
820.324	26975
820.465	27104
820.605	27112
820.746	27062
820.886	26895
821.026	27036
821.167	26921
821.307	27085
821.447	27028
821.588	26815
821.728	26842
821.868	26598
822.008	26393
822.149	26404
822.289	26290
822.429	26183
822.569	26092
822.709	25963
822.849	25925
822.99	25826
823.13	25936
823.27	25890
823.41	25746
823.55	25609
823.69	25769
823.83	25788
823.97	25738
824.11	25529
824.25	25422
824.389	25552
824.529	25715
824.669	25548
824.809	25689
824.949	25556
825.089	25597
825.228	25571
825.368	25487
825.508	25434
825.648	25388
825.787	25422
825.927	25586
826.067	25301
826.206	25468
826.346	25556
826.485	25521
826.625	25499
826.765	25529
826.904	25422
827.044	25251
827.183	25274
827.323	24970
827.462	25103
827.601	25103
827.741	25046
827.88	25175
828.02	25091
828.159	25221
828.298	25209
828.437	24966
828.577	25088
828.716	25213
828.855	25069
828.994	24878
829.134	24833
829.273	24844
829.412	24867
829.551	24707
829.69	24749
829.829	24783
829.968	24890
830.107	24958
830.246	24783
830.385	24776
830.524	24597
830.663	24631
830.802	24490
830.941	24540
831.08	24502
831.219	24437
831.357	24479
831.496	24734
831.635	24334
831.774	24232
831.913	24353
832.051	24239
832.19	24376
832.329	24239
832.467	24106
832.606	24087
832.744	23992
832.883	23996
833.022	24125
833.16	24022
833.299	24163
833.437	24182
833.576	24319
833.714	24125
833.852	24152
833.991	24171
834.129	24228
834.267	24197
834.406	24102
834.544	24224
834.682	24140
834.821	24155
834.959	24334
835.097	24057
835.235	24155
835.373	24247
835.511	24155
835.65	24026
835.788	24003
835.926	23908
836.064	23775
836.202	23851
836.34	23889
836.478	24022
836.615	23901
836.753	23988
836.891	24121
837.029	24018
837.167	23916
837.305	24026
837.443	23847
837.58	23779
837.718	23840
837.856	23855
837.993	23733
838.131	23802
838.269	23756
838.406	23672
838.544	23630
838.681	23379
838.819	23444
838.956	23353
839.094	23280
839.231	23231
839.369	23459
839.506	23642
839.643	23570
839.781	23292
839.918	23212
840.055	23212
840.193	23143
840.33	23265
840.467	23193
840.604	23231
840.742	23490
840.879	23136
841.016	23056
841.153	23086
841.29	23417
841.427	23181
841.564	23155
841.701	23231
841.838	23269
841.975	23033
842.112	23212
842.249	23010
842.385	23052
842.522	23193
842.659	23044
842.796	22862
842.933	22896
843.069	22831
843.206	22930
843.343	23048
843.479	22927
843.616	22999
843.752	22801
843.889	22763
844.025	22961
844.162	22588
844.298	22733
844.435	22713
844.571	22588
844.708	22672
844.844	22759
844.98	22873
845.117	22835
845.253	22538
845.389	22634
845.525	22550
845.661	22554
845.798	22474
845.934	22554
846.07	22462
846.206	22542
846.342	22569
846.478	22527
846.614	22215
846.75	22200
846.886	22211
847.022	22287
847.158	22082
847.294	22268
847.429	22207
847.565	22147
847.701	22470
847.837	21876
847.972	21987
848.108	21991
848.244	21949
848.379	21846
848.515	21652
848.65	21831
848.786	21766
848.921	21831
849.057	21934
849.192	21835
849.328	21865
849.463	21793
849.598	21656
849.734	21610
849.869	21800
850.004	21591
850.14	21663
850.275	21614
850.41	21568
850.545	21496
850.68	21523
850.815	21553
850.95	21473
851.085	21682
851.22	21583
851.355	21622
851.49	21469
851.625	21564
851.76	21447
851.895	21519
852.03	21408
852.165	21507
852.299	21519
852.434	21701
852.569	21606
852.703	21568
852.838	21599
852.973	21698
853.107	21629
853.242	21545
853.376	21401
853.511	21226
853.645	21310
853.78	21515
853.914	21389
854.048	21344
854.183	21249
854.317	21397
854.451	21690
854.585	21435
854.72	21481
854.854	21454
854.988	21291
855.122	21424
855.256	21279
855.39	21329
855.524	21374
855.658	21348
855.792	21397
855.926	21344
856.06	21325
856.194	21397
856.327	21401
856.461	21256
856.595	21272
856.729	21321
856.862	21549
856.996	21370
857.13	21443
857.263	21530
857.397	21515
857.53	21249
857.664	21405
857.797	21526
857.931	21405
858.064	21332
858.197	21580
858.331	21374
858.464	21329
858.597	21283
858.731	21397
858.864	21325
858.997	21306
859.13	21325
859.263	21485
859.396	21382
859.529	21272
859.662	21348
859.795	21302
859.928	21336
860.061	21530
860.194	21393
860.327	21466
860.46	21450
860.592	21454
860.725	21545
860.858	21488
860.99	21317
861.123	21317
861.256	21283
861.388	21211
861.521	21953
861.653	21230
861.786	21283
861.918	21241
862.05	21222
862.183	21348
862.315	21359
862.447	21397
862.58	21374
862.712	21104
862.844	21062
862.976	21184
863.108	21161
863.24	21477
863.372	21127
863.504	21093
863.636	20994
863.768	21169
863.9	21036
864.032	20929
864.164	21074
864.296	21047
864.428	21150
864.559	21173
864.691	21252
864.823	21195
864.954	21036
865.086	20967
865.217	20933
865.349	21024
865.48	20956
865.612	21039
865.743	21043
865.875	20910
866.006	20990
866.137	21013
866.269	21077
866.4	21081
866.531	20986
866.662	20769
866.793	20887
866.924	20849
867.055	20910
867.186	21017
867.317	20868
867.448	20769
867.579	20815
867.71	20880
867.841	20880
867.972	20830
868.103	20872
868.233	20823
868.364	20925
868.495	21089
868.625	21093
868.756	21264
868.886	21077
869.017	21104
869.147	21233
869.278	21321
869.408	21207
869.539	21085
869.669	21157
869.799	21192
869.929	21283
870.06	21218
870.19	21389
870.32	21481
870.45	21538
870.58	21454
870.71	21534
870.84	21633
870.97	21492
871.1	21507
871.23	21724
871.36	21667
871.489	21637
871.619	21762
871.749	21766
871.879	21705
872.008	21713
872.138	21770
872.267	21686
872.397	21751
872.526	21671
872.656	21557
872.785	21591
872.915	21823
873.044	21857
873.173	21774
873.303	21884
873.432	21846
873.561	21861
873.69	21838
873.819	21755
873.948	21892
874.077	21789
874.206	21759
874.335	21808
874.464	21888
874.593	22055
874.722	21907
874.851	22013
874.979	22116
875.108	22090
875.237	21915
875.365	21869
875.494	21975
875.623	22093
875.751	21956
875.88	22010
876.008	22124
876.136	22086
876.265	22417
876.393	22573
876.521	22516
876.65	22497
876.778	22310
876.906	22402
877.034	22265
877.162	22291
877.29	22314
877.418	22299
877.546	22371
877.674	22341
877.802	22276
877.93	22394
878.058	22204
878.185	22223
878.313	22242
878.441	22348
878.568	22185
878.696	22363
878.824	22409
878.951	22497
879.079	22527
879.206	22481
879.333	22584
879.461	22409
879.588	22436
879.715	22432
879.842	22550
879.97	22523
880.097	22223
880.224	22200
880.351	22284
880.478	22135
880.605	22177
880.732	22143
880.859	22500
880.986	22291
881.112	22162
881.239	22051
881.366	21895
881.493	21819
881.619	21705
881.746	21793
881.872	21766
881.999	21717
882.125	21698
882.252	21823
882.378	21675
882.505	21759
882.631	21629
882.757	21507
882.883	21485
883.01	21458
883.136	21355
883.262	21336
883.388	21336
883.514	21488
883.64	21374
883.766	21405
883.892	21211
884.018	21302
884.143	21370
884.269	21488
884.395	21058
884.52	21032
884.646	21154
884.772	21081
884.897	21005
885.023	21161
885.148	21123
885.274	21211
885.399	21150
885.524	21127
885.65	21017
885.775	21036
885.9	20994
886.025	21214
886.15	21146
886.275	21001
886.4	20975
886.525	20994
886.65	21051
886.775	20994
886.9	21142
887.025	21256
887.149	21032
887.274	20815
887.399	20887
887.523	20785
887.648	20758
887.773	20788
887.897	20986
888.021	20849
888.146	20811
888.27	20944
888.395	20864
888.519	20762
888.643	20887
888.767	20872
888.891	20804
889.015	20754
889.139	20800
889.263	20575
889.387	20651
889.511	20853
889.635	20792
889.759	20667
889.883	20701
890.006	20667
890.13	20811
890.254	20537
890.377	20594
890.501	20434
890.624	20320
890.748	20404
890.871	20183
890.995	20168
891.118	20115
891.241	20317
891.364	20161
891.488	20309
891.611	20305
891.734	20275
891.857	20389
891.98	20111
892.103	20263
892.226	20278
892.349	20164
892.471	20077
892.594	20176
892.717	20134
892.839	20096
892.962	20176
893.085	20191
893.207	20164
893.33	20062
893.452	20065
893.575	20103
893.697	20126
893.819	20320
893.941	20389
894.064	20233
894.186	20081
894.308	20005
894.43	20218
894.552	20164
894.674	20199
894.796	20142
894.918	20046
895.04	20084
895.161	20092
895.283	20122
895.405	20054
895.526	20050
895.648	20153
895.769	20065
895.891	20191
896.012	20176
896.134	20035
896.255	20126
896.376	20046
896.498	20240
896.619	20221
896.74	20191
896.861	20183
896.982	20434
897.103	20648
897.224	20492
897.345	20408
897.466	20366
897.587	20385
897.708	20552
897.828	20476
897.949	20229
898.07	20244
898.19	20324
898.311	20431
898.431	20366
898.552	20317
898.672	20518
898.792	20427
898.913	20339
899.033	20218
899.153	20240
899.273	20199
899.393	20161
899.513	20138
899.633	20073
899.753	20161
899.873	19970
899.993	20138
900.113	20065
900.232	20073
900.352	19951
900.472	19875
900.591	19826
900.711	19849
900.83	19871
900.95	19936
901.069	19913
901.189	19807
901.308	19590
901.427	19453
901.546	19396
901.665	19552
901.784	19499
901.904	19263
902.023	19266
902.141	19072
902.26	19107
902.379	19095
902.498	18951
902.617	18859
902.735	19015
902.854	18939
902.973	18848
903.091	18642
903.21	18578
903.328	18654
903.446	18540
903.565	18509
903.683	18464
903.801	18319
903.919	18456
904.038	18407
904.156	18140
904.274	18258
904.392	18163
904.51	18213
904.627	18220
904.745	18346
904.863	18300
904.981	18019
905.098	17885
905.216	17859
905.334	17885
905.451	17863
905.569	17817
905.686	17904
905.803	17897
905.921	17752
906.038	17851
906.155	17714
906.272	17524
906.389	17630
906.506	17414
906.623	17482
906.74	17444
906.857	17322
906.974	17235
907.091	17490
907.208	17493
907.324	17448
907.441	17345
907.557	17143
907.674	17143
907.79	17064
907.907	17075
908.023	17155
908.139	17083
908.256	17109
908.372	16965
908.488	17060
908.604	16953
908.72	16953
908.836	16900
908.952	16847
909.068	16885
909.184	16892
909.3	16801
909.415	16828
909.531	16904
909.647	16622
909.762	16523
909.878	16546
909.993	16588
910.108	16519
910.224	16489
910.339	16550
910.454	16394
910.57	16402
910.685	16325
910.8	16592
910.915	16535
911.03	16352
911.145	16242
911.259	16219
911.374	16162
911.489	16177
911.604	15998
911.718	16002
911.833	15972
911.947	15899
912.062	15724
912.176	15934
912.291	15979
912.405	15949
912.519	16071
912.633	16112
912.748	15922
912.862	15869
912.976	15759
913.09	15686
913.204	15686
913.318	15667
913.431	15850
913.545	15778
913.659	15842
913.772	15580
913.886	15542
914	15420
914.113	15595
914.226	15622
914.34	15618
914.453	15412
914.566	15656
914.68	15401
914.793	15332
914.906	15203
915.019	15184
915.132	15043
915.245	15070
915.358	15138
915.47	15150
915.583	15131
915.696	15173
915.809	15154
915.921	15207
916.034	15146
916.146	14994
916.259	15017
916.371	15112
916.483	15157
916.595	14925
916.708	15020
916.82	14956
916.932	14963
917.044	14861
917.156	14887
917.268	14705
917.38	14815
917.491	14796
917.603	14781
917.715	14823
917.826	14792
917.938	14754
918.049	14727
918.161	14750
918.272	14872
918.384	14845
918.495	14606
918.606	14564
918.717	14434
918.828	14492
918.939	14530
919.05	14514
919.161	14488
919.272	14366
919.383	14396
919.494	14579
919.604	14731
919.715	14450
919.826	14389
919.936	14484
920.047	14590
920.157	14530
920.267	14674
920.378	14469
920.488	14442
920.598	14667
920.708	14815
920.818	14663
920.928	14686
921.038	14762
921.148	14708
921.258	14469
921.368	14450
921.477	14336
921.587	14202
921.697	14050
921.806	14256
921.916	14168
922.025	13902
922.134	13883
922.244	13799
922.353	13925
922.462	13788
922.571	13731
922.68	13578
922.789	13537
922.898	13476
923.007	13449
923.116	13518
923.224	13499
923.333	13460
923.442	13453
923.55	13331
923.659	13301
923.767	13483
923.876	13289
923.984	13430
924.092	13232
924.201	13373
924.309	13187
924.417	13362
924.525	13168
924.633	13251
924.741	14134
924.849	12985
924.956	13179
925.064	13046
925.172	12924
925.279	12848
925.387	13008
925.494	12920
925.602	13038
925.709	12981
925.816	12863
925.924	12947
926.031	12985
926.138	12821
926.245	12954
926.352	12924
926.459	12996
926.566	12977
926.673	12760
926.779	12715
926.886	12692
926.993	12540
927.099	12517
927.206	12460
927.312	12441
927.419	12502
927.525	12445
927.631	12521
927.737	12391
927.843	12365
927.95	12251
928.056	12327
928.162	12273
928.267	12429
928.373	13076
928.479	12334
928.585	12098
928.69	12270
928.796	12357
928.901	12152
929.007	12072
929.112	12247
929.218	12095
929.323	12087
929.428	11958
929.533	12159
929.638	12038
929.743	12038
929.848	12102
929.953	11958
930.058	11798
930.163	11767
930.267	11760
930.372	11863
930.477	11741
930.581	11931
930.685	11828
930.79	11718
930.894	11623
930.998	11649
931.103	11668
931.207	11391
931.311	11326
931.415	11151
931.519	11094
931.623	10965
