Data from test_V78500241_618.txt Node
Date: Fri Mar 25 15:46:04 CST 2022
User: usil
Spectrometer: V785-0024
Trigger mode: 0
Integration Time (sec): 4.000000E-1
Scans to average: 1
Nonlinearity correction enabled: false
Boxcar width: 0
Storing dark spectrum: false
XAxis mode: Wavelengths
Number of Pixels in Spectrum: 1024
>>>>>Begin Spectral Data<<<<<
801.071	27823
801.214	27762
801.356	27386
801.499	27283
801.641	27348
801.783	27332
801.926	27496
802.068	27321
802.211	27173
802.353	27173
802.496	26952
802.638	26979
802.78	26940
802.923	26861
803.065	26940
803.208	26963
803.35	26861
803.492	27203
803.635	27306
803.777	27058
803.919	27154
804.061	27378
804.204	27279
804.346	27146
804.488	27112
804.63	27138
804.773	26990
804.915	27211
805.057	27363
805.199	27165
805.341	27222
805.483	27310
805.626	27214
805.768	27203
805.91	27260
806.052	27195
806.194	27146
806.336	27447
806.478	27321
806.62	27249
806.762	27469
806.904	27610
807.046	27903
807.188	27629
807.33	27644
807.472	27724
807.614	27500
807.756	27724
807.898	27526
808.04	27534
808.182	27427
808.324	27473
808.465	27656
808.607	27774
808.749	27842
808.891	27964
809.033	28029
809.174	27968
809.316	27960
809.458	27956
809.6	27857
809.741	28128
809.883	28025
810.025	28086
810.166	28226
810.308	28063
810.45	28109
810.591	28162
810.733	27797
810.875	27922
811.016	27907
811.158	27888
811.299	27960
811.441	28109
811.582	28017
811.724	27941
811.865	27854
812.007	27953
812.148	27766
812.29	27930
812.431	27911
812.573	28192
812.714	28268
812.855	28234
812.997	28554
813.138	28710
813.279	28516
813.421	28504
813.562	28375
813.703	28261
813.845	28181
813.986	27869
814.127	27762
814.268	27603
814.41	27644
814.551	27469
814.692	27519
814.833	27458
814.974	27534
815.115	27637
815.256	27397
815.397	27492
815.539	27519
815.68	27359
815.821	27355
815.962	27405
816.103	27325
816.244	27241
816.385	27138
816.526	27203
816.666	26982
816.807	26929
816.948	26967
817.089	26918
817.23	26990
817.371	26853
817.512	26948
817.653	26929
817.793	26914
817.934	26845
818.075	26910
818.216	26872
818.356	26811
818.497	26796
818.638	26701
818.778	26533
818.919	26712
819.06	26712
819.2	26689
819.341	26811
819.481	26785
819.622	26914
819.762	27169
819.903	27142
820.043	27135
820.184	27058
820.324	27066
820.465	27085
820.605	27062
820.746	27009
820.886	26853
821.026	27017
821.167	26914
821.307	27108
821.447	27070
821.588	26891
821.728	26693
821.868	26549
822.008	26324
822.149	26301
822.289	26526
822.429	26126
822.569	25993
822.709	26065
822.849	25947
822.99	25814
823.13	25727
823.27	25826
823.41	25696
823.55	25559
823.69	25719
823.83	25624
823.97	25616
824.11	25422
824.25	25464
824.389	25392
824.529	25620
824.669	25472
824.809	25639
824.949	25544
825.089	25586
825.228	25540
825.368	25320
825.508	25381
825.648	25350
825.787	25392
825.927	25419
826.067	25449
826.206	25274
826.346	25354
826.485	25282
826.625	25312
826.765	25362
826.904	25327
827.044	25080
827.183	25209
827.323	25107
827.462	25114
827.601	25046
827.741	24878
827.88	24996
828.02	24981
828.159	25023
828.298	24989
828.437	25072
828.577	25053
828.716	25023
828.855	25038
828.994	24833
829.134	24612
829.273	24962
829.412	24753
829.551	24677
829.69	24817
829.829	24829
829.968	24863
830.107	24905
830.246	24852
830.385	24623
830.524	24642
830.663	24517
830.802	24380
830.941	24426
831.08	24334
831.219	24517
831.357	24555
831.496	24593
831.635	24357
831.774	24270
831.913	24239
832.051	24186
832.19	24258
832.329	24197
832.467	23954
832.606	24125
832.744	23935
832.883	24018
833.022	23969
833.16	23996
833.299	24159
833.437	24114
833.576	24098
833.714	24068
833.852	24110
833.991	24049
834.129	24247
834.267	24174
834.406	24163
834.544	24095
834.682	24106
834.821	24011
834.959	24338
835.097	24053
835.235	24133
835.373	24072
835.511	24117
835.65	23901
835.788	23992
835.926	23790
836.064	23627
836.202	23691
836.34	23874
836.478	24011
836.615	23760
836.753	24022
836.891	24011
837.029	23946
837.167	23809
837.305	23870
837.443	23707
837.58	23760
837.718	23756
837.856	23798
837.993	23722
838.131	23741
838.269	23581
838.406	23687
838.544	23444
838.681	23406
838.819	23356
838.956	23269
839.094	23223
839.231	23356
839.369	23440
839.506	23611
839.643	23543
839.781	23223
839.918	23098
840.055	23147
840.193	23193
840.33	23105
840.467	23140
840.604	23273
840.742	23493
840.879	23003
841.016	23105
841.153	22976
841.29	23318
841.427	23189
841.564	23147
841.701	23136
841.838	23060
841.975	22984
842.112	23189
842.249	23056
842.385	22942
842.522	23128
842.659	22862
842.796	22930
842.933	22938
843.069	22900
843.206	22896
843.343	22892
843.479	22881
843.616	22843
843.752	22710
843.889	22717
844.025	22820
844.162	22706
844.298	22725
844.435	22561
844.571	22599
844.708	22748
844.844	22710
844.98	22866
845.117	22790
845.253	22611
845.389	22618
845.525	22580
845.661	22546
845.798	22409
845.934	22459
846.07	22436
846.206	22409
846.342	22592
846.478	22352
846.614	22188
846.75	22032
846.886	22181
847.022	22238
847.158	22242
847.294	22249
847.429	22325
847.565	22147
847.701	22379
847.837	21850
847.972	21915
848.108	22029
848.244	21956
848.379	21854
848.515	21781
848.65	21618
848.786	21736
848.921	21793
849.057	21732
849.192	21831
849.328	21728
849.463	21827
849.598	21644
849.734	21694
849.869	21671
850.004	21507
850.14	21606
850.275	21583
850.41	21473
850.545	21523
850.68	21526
850.815	21595
850.95	21462
851.085	21762
851.22	21622
851.355	21496
851.49	21492
851.625	21367
851.76	21397
851.895	21359
852.03	21466
852.165	21507
852.299	21519
852.434	21549
852.569	21542
852.703	21515
852.838	21568
852.973	21663
853.107	21568
853.242	21332
853.376	21367
853.511	21279
853.645	21298
853.78	21412
853.914	21291
854.048	21336
854.183	21256
854.317	21428
854.451	21477
854.585	21351
854.72	21291
854.854	21511
854.988	21218
855.122	21408
855.256	21256
855.39	21241
855.524	21416
855.658	21485
855.792	21351
855.926	21268
856.06	21344
856.194	21374
856.327	21264
856.461	21249
856.595	21291
856.729	21348
856.862	21462
856.996	21485
857.13	21454
857.263	21504
857.397	21340
857.53	21416
857.664	21359
857.797	21488
857.931	21386
858.064	21298
858.197	21500
858.331	21431
858.464	21283
858.597	21169
858.731	21249
858.864	21336
858.997	21237
859.13	21416
859.263	21279
859.396	21351
859.529	21370
859.662	21245
859.795	21230
859.928	21351
860.061	21488
860.194	21568
860.327	21321
860.46	21245
860.592	21477
860.725	21405
860.858	21439
860.99	21329
861.123	21355
861.256	21222
861.388	21363
861.521	21907
861.653	21150
861.786	21138
861.918	21131
862.05	21176
862.183	21211
862.315	21275
862.447	21367
862.58	21241
862.712	21074
862.844	21043
862.976	21176
863.108	21116
863.24	21488
863.372	21077
863.504	21100
863.636	21028
863.768	20914
863.9	20994
864.032	21028
864.164	20895
864.296	20960
864.428	21180
864.559	21108
864.691	21116
864.823	21009
864.954	20998
865.086	20967
865.217	21032
865.349	20921
865.48	20982
865.612	20891
865.743	21093
865.875	21009
866.006	20788
866.137	21074
866.269	21028
866.4	20819
866.531	21036
866.662	20861
866.793	20925
866.924	20826
867.055	20899
867.186	20883
867.317	20842
867.448	20834
867.579	20788
867.71	20708
867.841	20880
867.972	20815
868.103	20788
868.233	20971
868.364	20849
868.495	20963
868.625	21233
868.756	21237
868.886	21055
869.017	21256
869.147	21241
869.278	21332
869.408	21226
869.539	21176
869.669	21195
869.799	21169
869.929	21268
870.06	21279
870.19	21389
870.32	21435
870.45	21568
870.58	21355
870.71	21576
870.84	21641
870.97	21466
871.1	21549
871.23	21698
871.36	21705
871.489	21583
871.619	21652
871.749	21591
871.879	21690
872.008	21808
872.138	21736
872.267	21743
872.397	21610
872.526	21435
872.656	21538
872.785	21542
872.915	21766
873.044	21842
873.173	21762
873.303	21774
873.432	21804
873.561	21800
873.69	21861
873.819	21732
873.948	21759
874.077	21739
874.206	21751
874.335	21804
874.464	21770
874.593	21937
874.722	21979
874.851	21983
874.979	21949
875.108	22051
875.237	21964
875.365	21953
875.494	21934
875.623	22051
875.751	21937
875.88	21937
876.008	22013
876.136	22112
876.265	22375
876.393	22485
876.521	22405
876.65	22466
876.778	22306
876.906	22310
877.034	22249
877.162	22257
877.29	22299
877.418	22272
877.546	22333
877.674	22322
877.802	22280
877.93	22314
878.058	22226
878.185	22109
878.313	22238
878.441	22261
878.568	22036
878.696	22200
878.824	22352
878.951	22371
879.079	22478
879.206	22782
879.333	22402
879.461	22459
879.588	22531
879.715	22504
879.842	22637
879.97	22344
880.097	22150
880.224	22226
880.351	22074
880.478	22200
880.605	21987
880.732	22116
880.859	22405
880.986	22109
881.112	22177
881.239	22097
881.366	21926
881.493	21835
881.619	21713
881.746	21755
881.872	21819
881.999	21736
882.125	21641
882.252	21842
882.378	21717
882.505	21884
882.631	21504
882.757	21462
882.883	21515
883.01	21481
883.136	21378
883.262	21302
883.388	21245
883.514	21382
883.64	21454
883.766	21393
883.892	21199
884.018	21176
884.143	21340
884.269	21481
884.395	21207
884.52	21070
884.646	21116
884.772	20971
884.897	21001
885.023	21093
885.148	21161
885.274	21142
885.399	21184
885.524	21085
885.65	20979
885.775	21116
885.9	20971
886.025	21119
886.15	21142
886.275	20986
886.4	20914
886.525	21066
886.65	20982
886.775	20910
886.9	21036
887.025	21180
887.149	21100
887.274	20925
887.399	20845
887.523	20895
887.648	20625
887.773	20659
887.897	20994
888.021	20815
888.146	20765
888.27	20883
888.395	21028
888.519	20819
888.643	20792
888.767	20823
888.891	20689
889.015	20754
889.139	20781
889.263	20457
889.387	20765
889.511	20777
889.635	20636
889.759	20503
889.883	20686
890.006	20667
890.13	20583
890.254	20568
890.377	20507
890.501	20412
890.624	20396
890.748	20370
890.871	20259
890.995	20126
891.118	20138
891.241	20100
891.364	20225
891.488	20317
891.611	20183
891.734	20210
891.857	20301
891.98	20043
892.103	20259
892.226	20176
892.349	20096
892.471	19871
892.594	20050
892.717	20172
892.839	20077
892.962	20050
893.085	20081
893.207	20088
893.33	20008
893.452	19963
893.575	20058
893.697	19951
893.819	20218
893.941	20240
894.064	20275
894.186	20138
894.308	19997
894.43	20225
894.552	20191
894.674	20157
894.796	20012
894.918	19978
895.04	20012
895.161	20206
895.283	20145
895.405	20062
895.526	20008
895.648	19982
895.769	20134
895.891	20111
896.012	20130
896.134	20172
896.255	20180
896.376	20062
896.498	20142
896.619	20115
896.74	20065
896.861	20149
896.982	20355
897.103	20530
897.224	20442
897.345	20271
897.466	20206
897.587	20366
897.708	20298
897.828	20313
897.949	20225
898.07	20062
898.19	20126
898.311	20438
898.431	20233
898.552	20298
898.672	20313
898.792	20385
898.913	20358
899.033	20294
899.153	20077
899.273	19970
899.393	20062
899.513	20058
899.633	20058
899.753	20183
899.873	20172
899.993	19982
900.113	19970
900.232	20039
900.352	19932
900.472	19898
900.591	19860
900.711	19860
900.83	19765
900.95	19883
901.069	19932
901.189	19780
901.308	19533
901.427	19369
901.546	19480
901.665	19441
901.784	19438
901.904	19282
902.023	19137
902.141	18977
902.26	19000
902.379	19072
902.498	18928
902.617	18920
902.735	19072
902.854	19004
902.973	18829
903.091	18612
903.21	18612
903.328	18684
903.446	18544
903.565	18353
903.683	18418
903.801	18270
903.919	18376
904.038	18330
904.156	18194
904.274	18174
904.392	18190
904.51	18232
904.627	18167
904.745	18228
904.863	18224
904.981	17988
905.098	17885
905.216	17836
905.334	17859
905.451	17939
905.569	17874
905.686	17942
905.803	17866
905.921	17668
906.038	17832
906.155	17630
906.272	17539
906.389	17570
906.506	17376
906.623	17497
906.74	17387
906.857	17296
906.974	17364
907.091	17410
907.208	17463
907.324	17353
907.441	17227
907.557	17208
907.674	17014
907.79	17109
907.907	17147
908.023	17045
908.139	17102
908.256	17064
908.372	16984
908.488	17033
908.604	16938
908.72	16812
908.836	16869
908.952	16812
909.068	16839
909.184	16885
909.3	16885
909.415	16824
909.531	16793
909.647	16516
909.762	16573
909.878	16569
909.993	16588
910.108	16436
910.224	16588
910.339	16481
910.454	16386
910.57	16257
910.685	16295
910.8	16512
910.915	16447
911.03	16367
911.145	16177
911.259	16185
911.374	16097
911.489	16029
911.604	15926
911.718	15823
911.833	15846
911.947	15701
912.062	15732
912.176	15899
912.291	15857
912.405	15861
912.519	16074
912.633	15968
912.748	15994
912.862	15926
912.976	15720
913.09	15660
913.204	15576
913.318	15656
913.431	15698
913.545	15762
913.659	15751
913.772	15705
913.886	15412
914	15420
914.113	15542
914.226	15572
914.34	15591
914.453	15336
914.566	15504
914.68	15355
914.793	15291
914.906	15100
915.019	15058
915.132	15017
915.245	15089
915.358	15188
915.47	15165
915.583	15066
915.696	15066
915.809	15226
915.921	15123
916.034	15001
916.146	14994
916.259	15024
916.371	15051
916.483	15051
916.595	14952
916.708	14918
916.82	14956
916.932	14910
917.044	15001
917.156	14895
917.268	14769
917.38	14777
917.491	14731
917.603	14724
917.715	14750
917.826	14921
917.938	14693
918.049	14640
918.161	14659
918.272	14823
918.384	14773
918.495	14670
918.606	14602
918.717	14537
918.828	14610
918.939	14590
919.05	14419
919.161	14613
919.272	14355
919.383	14393
919.494	14613
919.604	14701
919.715	14480
919.826	14400
919.936	14522
920.047	14667
920.157	14511
920.267	14712
920.378	14522
920.488	14446
920.598	14686
920.708	14826
920.818	14594
920.928	14667
921.038	14765
921.148	14765
921.258	14461
921.368	14339
921.477	14259
921.587	14271
921.697	14153
921.806	14259
921.916	14069
922.025	14035
922.134	13913
922.244	13807
922.353	14005
922.462	13696
922.571	13666
922.68	13540
922.789	13464
922.898	13487
923.007	13460
923.116	13525
923.224	13449
923.333	13430
923.442	13415
923.55	13346
923.659	13400
923.767	13472
923.876	13236
923.984	13460
924.092	13228
924.201	13327
924.309	13278
924.417	13285
924.525	13152
924.633	13240
924.741	14096
924.849	12958
924.956	13129
925.064	13015
925.172	12913
925.279	13012
925.387	13038
925.494	12901
925.602	13008
925.709	13061
925.816	12757
925.924	12833
926.031	12966
926.138	12852
926.245	12897
926.352	12817
926.459	12867
926.566	12996
926.673	12875
926.779	12700
926.886	12703
926.993	12601
927.099	12483
927.206	12460
927.312	12395
927.419	12506
927.525	12445
927.631	12517
927.737	12429
927.843	12369
927.95	12213
928.056	12372
928.162	12323
928.267	12369
928.373	12996
928.479	12361
928.585	12144
928.69	12239
928.796	12342
928.901	12201
929.007	12098
929.112	12190
929.218	12159
929.323	12216
929.428	12144
929.533	12224
929.638	11969
929.743	12026
929.848	12038
929.953	12015
930.058	11927
930.163	11767
930.267	11828
930.372	11817
930.477	11680
930.581	11946
930.685	11828
930.79	11570
930.894	11619
930.998	11615
931.103	11714
931.207	11398
931.311	11398
931.415	11212
931.519	11060
931.623	10942
