Data from test_V78500241_1329.txt Node
Date: Fri Mar 25 15:51:00 CST 2022
User: usil
Spectrometer: V785-0024
Trigger mode: 0
Integration Time (sec): 4.000000E-1
Scans to average: 1
Nonlinearity correction enabled: false
Boxcar width: 0
Storing dark spectrum: false
XAxis mode: Wavelengths
Number of Pixels in Spectrum: 1024
>>>>>Begin Spectral Data<<<<<
801.071	28204
801.214	28154
801.356	27861
801.499	27831
801.641	27694
801.783	27759
801.926	27865
802.068	27652
802.211	27622
802.353	27603
802.496	27458
802.638	27431
802.78	27488
802.923	27374
803.065	27374
803.208	27264
803.35	27393
803.492	27549
803.635	27568
803.777	27534
803.919	27614
804.061	27945
804.204	27686
804.346	27747
804.488	27473
804.63	27538
804.773	27504
804.915	27561
805.057	27869
805.199	27614
805.341	27667
805.483	27690
805.626	27694
805.768	27797
805.91	27762
806.052	27671
806.194	27671
806.336	27804
806.478	27934
806.62	27800
806.762	27960
806.904	28101
807.046	28265
807.188	28192
807.33	28192
807.472	28112
807.614	28249
807.756	28246
807.898	28112
808.04	27930
808.182	28158
808.324	28109
808.465	28215
808.607	28295
808.749	28360
808.891	28573
809.033	28512
809.174	28538
809.316	28318
809.458	28470
809.6	28417
809.741	28443
809.883	28653
810.025	28782
810.166	28675
810.308	28812
810.45	28653
810.591	28588
810.733	28493
810.875	28470
811.016	28379
811.158	28287
811.299	28580
811.441	28573
811.582	28546
811.724	28421
811.865	28352
812.007	28417
812.148	28481
812.29	28527
812.431	28596
812.573	28835
812.714	28957
812.855	28995
812.997	29128
813.138	29220
813.279	28999
813.421	29079
813.562	28911
813.703	28790
813.845	28729
813.986	28379
814.127	28112
814.268	28200
814.41	28116
814.551	28109
814.692	28128
814.833	28090
814.974	28006
815.115	28268
815.256	28051
815.397	28048
815.539	27949
815.68	27941
815.821	27914
815.962	28025
816.103	28013
816.244	27686
816.385	27743
816.526	27698
816.666	27534
816.807	27427
816.948	27462
817.089	27496
817.23	27367
817.371	27450
817.512	27454
817.653	27591
817.793	27458
817.934	27473
818.075	27378
818.216	27545
818.356	27504
818.497	27306
818.638	27043
818.778	27119
818.919	27192
819.06	27157
819.2	27237
819.341	27500
819.481	27477
819.622	27583
819.762	27861
819.903	27743
820.043	27553
820.184	27614
820.324	27523
820.465	27393
820.605	27511
820.746	27603
820.886	27485
821.026	27443
821.167	27424
821.307	27542
821.447	27523
821.588	27473
821.728	27192
821.868	27138
822.008	26979
822.149	26990
822.289	26979
822.429	26686
822.569	26613
822.709	26575
822.849	26442
822.99	26427
823.13	26404
823.27	26492
823.41	26172
823.55	26126
823.69	26320
823.83	26157
823.97	26275
824.11	26050
824.25	26107
824.389	26027
824.529	26183
824.669	26050
824.809	26263
824.949	26267
825.089	26275
825.228	26050
825.368	25803
825.508	25921
825.648	26100
825.787	25909
825.927	26020
826.067	25883
826.206	25909
826.346	26001
826.485	26008
826.625	26065
826.765	26088
826.904	25989
827.044	25620
827.183	25868
827.323	25597
827.462	25700
827.601	25674
827.741	25674
827.88	25594
828.02	25552
828.159	25525
828.298	25658
828.437	25780
828.577	25548
828.716	25639
828.855	25548
828.994	25403
829.134	25339
829.273	25422
829.412	25304
829.551	25373
829.69	25308
829.829	25316
829.968	25537
830.107	25312
830.246	25346
830.385	25335
830.524	25354
830.663	25244
830.802	25137
830.941	24916
831.08	24878
831.219	25012
831.357	25004
831.496	25145
831.635	24962
831.774	24825
831.913	24947
832.051	24768
832.19	24810
832.329	24707
832.467	24661
832.606	24608
832.744	24703
832.883	24627
833.022	24677
833.16	24658
833.299	24601
833.437	24700
833.576	24722
833.714	24688
833.852	24707
833.991	24661
834.129	24821
834.267	24768
834.406	24620
834.544	24707
834.682	24741
834.821	24753
834.959	24951
835.097	24688
835.235	24616
835.373	24658
835.511	24612
835.65	24528
835.788	24498
835.926	24372
836.064	24391
836.202	24270
836.34	24509
836.478	24703
836.615	24566
836.753	24570
836.891	24642
837.029	24536
837.167	24418
837.305	24426
837.443	24353
837.58	24319
837.718	24460
837.856	24388
837.993	24213
838.131	24342
838.269	24125
838.406	24262
838.544	24121
838.681	24022
838.819	23935
838.956	23851
839.094	23840
839.231	23885
839.369	24026
839.506	24342
839.643	24098
839.781	23859
839.918	23805
840.055	23809
840.193	23904
840.33	23741
840.467	23745
840.604	23680
840.742	24129
840.879	23653
841.016	23748
841.153	23665
841.29	23802
841.427	23775
841.564	23699
841.701	23703
841.838	23615
841.975	23615
842.112	23608
842.249	23604
842.385	23505
842.522	23710
842.659	23512
842.796	23478
842.933	23558
843.069	23535
843.206	23467
843.343	23611
843.479	23493
843.616	23562
843.752	23292
843.889	23326
844.025	23505
844.162	23269
844.298	23406
844.435	23273
844.571	23349
844.708	23212
844.844	23417
844.98	23360
845.117	23406
845.253	23349
845.389	23208
845.525	23208
845.661	23197
845.798	23090
845.934	23022
846.07	22934
846.206	22965
846.342	23083
846.478	22995
846.614	22843
846.75	22721
846.886	22736
847.022	22877
847.158	22569
847.294	22744
847.429	22793
847.565	22687
847.701	23025
847.837	22363
847.972	22504
848.108	22580
848.244	22504
848.379	22341
848.515	22284
848.65	22333
848.786	22306
848.921	22246
849.057	22527
849.192	22375
849.328	22295
849.463	22360
849.598	22417
849.734	22226
849.869	22173
850.004	22029
850.14	22101
850.275	22128
850.41	21991
850.545	21975
850.68	22097
850.815	22029
850.95	21994
851.085	22253
851.22	22226
851.355	22204
851.49	22131
851.625	22010
851.76	22074
851.895	22002
852.03	22025
852.165	22090
852.299	22173
852.434	22059
852.569	22063
852.703	22002
852.838	22109
852.973	22356
853.107	22291
853.242	21998
853.376	21991
853.511	21812
853.645	21888
853.78	21964
853.914	22006
854.048	21892
854.183	21926
854.317	21953
854.451	22063
854.585	21797
854.72	21861
854.854	21991
854.988	21724
855.122	21972
855.256	21892
855.39	21911
855.524	21915
855.658	21934
855.792	21945
855.926	21884
856.06	21945
856.194	21979
856.327	21884
856.461	21816
856.595	21808
856.729	21911
856.862	21968
856.996	21930
857.13	21926
857.263	22021
857.397	22059
857.53	21964
857.664	21972
857.797	22051
857.931	21983
858.064	21861
858.197	22109
858.331	21873
858.464	21899
858.597	21766
858.731	21945
858.864	21797
858.997	21895
859.13	22010
859.263	21831
859.396	22067
859.529	21861
859.662	21766
859.795	21816
859.928	21907
860.061	22074
860.194	22070
860.327	21956
860.46	21941
860.592	22082
860.725	22124
860.858	21998
860.99	21903
861.123	21846
861.256	21842
861.388	21979
861.521	22527
861.653	21747
861.786	21622
861.918	21728
862.05	21797
862.183	21823
862.315	21835
862.447	21800
862.58	21778
862.712	21675
862.844	21553
862.976	21755
863.108	21530
863.24	21991
863.372	21625
863.504	21568
863.636	21671
863.768	21671
863.9	21614
864.032	21519
864.164	21538
864.296	21530
864.428	21595
864.559	21690
864.691	21675
864.823	21568
864.954	21530
865.086	21656
865.217	21435
865.349	21382
865.48	21496
865.612	21595
865.743	21606
865.875	21488
866.006	21412
866.137	21530
866.269	21485
866.4	21488
866.531	21614
866.662	21279
866.793	21386
866.924	21412
867.055	21374
867.186	21469
867.317	21553
867.448	21397
867.579	21374
867.71	21329
867.841	21336
867.972	21412
868.103	21382
868.233	21348
868.364	21504
868.495	21580
868.625	21743
868.756	21717
868.886	21614
869.017	21686
869.147	21728
869.278	21823
869.408	21701
869.539	21755
869.669	21755
869.799	21785
869.929	21835
870.06	21785
870.19	21930
870.32	22010
870.45	21846
870.58	22150
870.71	22306
870.84	21991
870.97	22029
871.1	22082
871.23	22196
871.36	22306
871.489	22116
871.619	22257
871.749	22211
871.879	22257
872.008	22299
872.138	22268
872.267	22284
872.397	22147
872.526	22074
872.656	22116
872.785	22036
872.915	22287
873.044	22344
873.173	22360
873.303	22451
873.432	22329
873.561	22459
873.69	22325
873.819	22265
873.948	22421
874.077	22329
874.206	22306
874.335	22272
874.464	22417
874.593	22523
874.722	22447
874.851	22474
874.979	22519
875.108	22546
875.237	22443
875.365	22367
875.494	22550
875.623	22554
875.751	22500
875.88	22546
876.008	22618
876.136	22725
876.265	22854
876.393	23060
876.521	22984
876.65	22984
876.778	22854
876.906	22862
877.034	22858
877.162	22824
877.29	22763
877.418	22965
877.546	22831
877.674	22862
877.802	22672
877.93	22820
878.058	22748
878.185	22725
878.313	22820
878.441	22862
878.568	22592
878.696	22759
878.824	22835
878.951	22896
879.079	23132
879.206	23261
879.333	22938
879.461	23022
879.588	22991
879.715	23128
879.842	23121
879.97	22850
880.097	22542
880.224	22656
880.351	22687
880.478	22733
880.605	22607
880.732	22668
880.859	22862
880.986	22691
881.112	22615
881.239	22516
881.366	22310
881.493	22314
881.619	22242
881.746	22257
881.872	22303
881.999	22226
882.125	22257
882.252	22447
882.378	22211
882.505	22337
882.631	22032
882.757	21869
882.883	22025
883.01	21983
883.136	21956
883.262	21751
883.388	21713
883.514	21892
883.64	21953
883.766	21911
883.892	21561
884.018	21732
884.143	21797
884.269	21804
884.395	21591
884.52	21496
884.646	21743
884.772	21496
884.897	21545
885.023	21576
885.148	21622
885.274	21739
885.399	21580
885.524	21652
885.65	21477
885.775	21557
885.9	21458
886.025	21622
886.15	21709
886.275	21545
886.4	21507
886.525	21526
886.65	21523
886.775	21492
886.9	21606
887.025	21762
887.149	21443
887.274	21450
887.399	21237
887.523	21367
887.648	21264
887.773	21112
887.897	21435
888.021	21454
888.146	21321
888.27	21424
888.395	21424
888.519	21260
888.643	21317
888.767	21348
888.891	21264
889.015	21233
889.139	21127
889.263	21146
889.387	21389
889.511	21279
889.635	21275
889.759	21043
889.883	21275
890.006	21252
890.13	21119
890.254	20960
890.377	21017
890.501	20857
890.624	20929
890.748	20941
890.871	20739
890.995	20674
891.118	20552
891.241	20686
891.364	20705
891.488	20823
891.611	20708
891.734	20697
891.857	20655
891.98	20708
892.103	20796
892.226	20617
892.349	20621
892.471	20465
892.594	20636
892.717	20590
892.839	20556
892.962	20678
893.085	20583
893.207	20602
893.33	20473
893.452	20530
893.575	20746
893.697	20560
893.819	20705
893.941	20731
894.064	20819
894.186	20613
894.308	20434
894.43	20514
894.552	20819
894.674	20552
894.796	20469
894.918	20514
895.04	20473
895.161	20583
895.283	20476
895.405	20469
895.526	20541
895.648	20533
895.769	20564
895.891	20621
896.012	20701
896.134	20667
896.255	20571
896.376	20602
896.498	20507
896.619	20609
896.74	20545
896.861	20530
896.982	20834
897.103	21085
897.224	20864
897.345	20788
897.466	20750
897.587	20765
897.708	20929
897.828	20758
897.949	20735
898.07	20556
898.19	20667
898.311	20746
898.431	20758
898.552	20815
898.672	20705
898.792	20781
898.913	20830
899.033	20659
899.153	20575
899.273	20526
899.393	20518
899.513	20598
899.633	20632
899.753	20541
899.873	20503
899.993	20571
900.113	20358
900.232	20461
900.352	20431
900.472	20301
900.591	20259
900.711	20309
900.83	20263
900.95	20381
901.069	20328
901.189	20172
901.308	20012
901.427	19864
901.546	19738
901.665	19959
901.784	19864
901.904	19693
902.023	19609
902.141	19552
902.26	19384
902.379	19537
902.498	19422
902.617	19324
902.735	19415
902.854	19266
902.973	19255
903.091	19042
903.21	19088
903.328	19084
903.446	19061
903.565	18890
903.683	18924
903.801	18783
903.919	18829
904.038	18825
904.156	18589
904.274	18764
904.392	18589
904.51	18646
904.627	18608
904.745	18635
904.863	18612
904.981	18441
905.098	18247
905.216	18323
905.334	18323
905.451	18308
905.569	18289
905.686	18308
905.803	18254
905.921	18102
906.038	18106
906.155	18091
906.272	18011
906.389	17980
906.506	17870
906.623	17809
906.74	17775
906.857	17718
906.974	17748
907.091	17901
907.208	17958
907.324	17847
907.441	17668
907.557	17543
907.674	17486
907.79	17417
907.907	17516
908.023	17657
908.139	17490
908.256	17512
908.372	17349
908.488	17398
908.604	17296
908.72	17212
908.836	17227
908.952	17220
909.068	17311
909.184	17277
909.3	17299
909.415	17341
909.531	17216
909.647	16987
909.762	16927
909.878	16930
909.993	16908
910.108	16873
910.224	16892
910.339	16896
910.454	16812
910.57	16869
910.685	16698
910.8	16961
910.915	16812
911.03	16618
911.145	16592
911.259	16500
911.374	16500
911.489	16398
911.604	16470
911.718	16303
911.833	16348
911.947	16204
912.062	16169
912.176	16261
912.291	16265
912.405	16333
912.519	16398
912.633	16386
912.748	16219
912.862	16341
912.976	16124
913.09	15987
913.204	16051
913.318	16074
913.431	16147
913.545	16143
913.659	16242
913.772	16044
913.886	15937
914	15759
914.113	15915
914.226	16048
914.34	15876
914.453	15713
914.566	15937
914.68	15804
914.793	15736
914.906	15526
915.019	15587
915.132	15370
915.245	15469
915.358	15507
915.47	15504
915.583	15511
915.696	15515
915.809	15553
915.921	15633
916.034	15519
916.146	15317
916.259	15298
916.371	15435
916.483	15405
916.595	15294
916.708	15306
916.82	15348
916.932	15287
917.044	15275
917.156	15298
917.268	15161
917.38	15150
917.491	15138
917.603	15119
917.715	15214
917.826	15275
917.938	15024
918.049	14944
918.161	15039
918.272	15192
918.384	15184
918.495	15119
918.606	14986
918.717	14826
918.828	14830
918.939	14876
919.05	14788
919.161	14948
919.272	14644
919.383	14712
919.494	14971
919.604	14948
919.715	14868
919.826	14796
919.936	14800
920.047	14830
920.157	14788
920.267	14998
920.378	14952
920.488	14781
920.598	14975
920.708	15051
920.818	14967
920.928	14902
921.038	15032
921.148	15036
921.258	14689
921.368	14625
921.477	14590
921.587	14511
921.697	14454
921.806	14636
921.916	14385
922.025	14328
922.134	14214
922.244	14180
922.353	14191
922.462	14069
922.571	14058
922.68	13868
922.789	13906
922.898	13788
923.007	13776
923.116	13921
923.224	13746
923.333	13868
923.442	13643
923.55	13719
923.659	13734
923.767	13837
923.876	13594
923.984	13651
924.092	13533
924.201	13670
924.309	13514
924.417	13556
924.525	13559
924.633	13430
924.741	14377
924.849	13297
924.956	13415
925.064	13259
925.172	13285
925.279	13202
925.387	13278
925.494	13107
925.602	13362
925.709	13316
925.816	13194
925.924	13179
926.031	13339
926.138	13141
926.245	13217
926.352	13187
926.459	13221
926.566	13228
926.673	13149
926.779	12996
926.886	12947
926.993	12833
927.099	12863
927.206	12722
927.312	12719
927.419	12741
927.525	12768
927.631	12829
927.737	12646
927.843	12601
927.95	12467
928.056	12532
928.162	12585
928.267	12646
928.373	13160
928.479	12654
928.585	12414
928.69	12517
928.796	12639
928.901	12475
929.007	12235
929.112	12361
929.218	12418
929.323	12315
929.428	12353
929.533	12399
929.638	12213
929.743	12281
929.848	12311
929.953	12239
930.058	12194
930.163	12034
930.267	12026
930.372	12171
930.477	11973
930.581	12186
930.685	12034
930.79	11851
930.894	11916
930.998	11878
931.103	12007
931.207	11668
931.311	11547
931.415	11493
931.519	11231
931.623	11239
