Data from test_V78500241_3520.txt Node
Date: Fri Mar 25 16:06:11 CST 2022
User: usil
Spectrometer: V785-0024
Trigger mode: 0
Integration Time (sec): 4.000000E-1
Scans to average: 1
Nonlinearity correction enabled: false
Boxcar width: 0
Storing dark spectrum: false
XAxis mode: Wavelengths
Number of Pixels in Spectrum: 1024
>>>>>Begin Spectral Data<<<<<
801.071	28866
801.214	28782
801.356	28542
801.499	28500
801.641	28367
801.783	28455
801.926	28356
802.068	28436
802.211	28683
802.353	28280
802.496	28074
802.638	27979
802.78	28074
802.923	28112
803.065	28021
803.208	28120
803.35	28086
803.492	28318
803.635	28375
803.777	28215
803.919	28375
804.061	28687
804.204	28538
804.346	28200
804.488	28284
804.63	28306
804.773	28211
804.915	28394
805.057	28504
805.199	28299
805.341	28367
805.483	28577
805.626	28382
805.768	28382
805.91	28527
806.052	28462
806.194	28531
806.336	28733
806.478	28607
806.62	28382
806.762	28675
806.904	28733
807.046	29079
807.188	29037
807.33	29014
807.472	29006
807.614	28885
807.756	28843
807.898	28793
808.04	28736
808.182	28839
808.324	28839
808.465	28835
808.607	29029
808.749	29185
808.891	29258
809.033	29448
809.174	29322
809.316	29151
809.458	29143
809.6	29269
809.741	29406
809.883	29349
810.025	29402
810.166	29463
810.308	29634
810.45	29497
810.591	29353
810.733	29322
810.875	29147
811.016	29185
811.158	29029
811.299	29356
811.441	29303
811.582	29379
811.724	29261
811.865	29220
812.007	29258
812.148	29242
812.29	29280
812.431	29512
812.573	29512
812.714	29703
812.855	29752
812.997	29832
813.138	29996
813.279	29885
813.421	29870
813.562	29627
813.703	29505
813.845	29539
813.986	29330
814.127	29041
814.268	28938
814.41	28934
814.551	28976
814.692	29064
814.833	28904
814.974	28930
815.115	29117
815.256	28675
815.397	28919
815.539	28843
815.68	28763
815.821	28706
815.962	28809
816.103	28763
816.244	28626
816.385	28599
816.526	28447
816.666	28280
816.807	28303
816.948	28337
817.089	28421
817.23	28276
817.371	28196
817.512	28143
817.653	28398
817.793	28265
817.934	28329
818.075	28303
818.216	28333
818.356	28322
818.497	28211
818.638	28051
818.778	27972
818.919	28063
819.06	28040
819.2	28097
819.341	28367
819.481	28272
819.622	28337
819.762	28554
819.903	28493
820.043	28337
820.184	28268
820.324	28360
820.465	28344
820.605	28344
820.746	28356
820.886	28166
821.026	28478
821.167	28139
821.307	28421
821.447	28424
821.588	28253
821.728	28223
821.868	27876
822.008	27819
822.149	27743
822.289	27694
822.429	27625
822.569	27496
822.709	27496
822.849	27165
822.99	27207
823.13	27089
823.27	27291
823.41	27131
823.55	26910
823.69	27214
823.83	27142
823.97	26914
824.11	26754
824.25	26838
824.389	26921
824.529	27066
824.669	26842
824.809	27081
824.949	27085
825.089	27032
825.228	27017
825.368	26834
825.508	27005
825.648	26819
825.787	26906
825.927	26853
826.067	26834
826.206	26792
826.346	26986
826.485	26838
826.625	26834
826.765	26807
826.904	26910
827.044	26549
827.183	26476
827.323	26461
827.462	26571
827.601	26537
827.741	26453
827.88	26689
828.02	26476
828.159	26629
828.298	26545
828.437	26549
828.577	26404
828.716	26621
828.855	26427
828.994	26180
829.134	26176
829.273	26282
829.412	26221
829.551	26172
829.69	26240
829.829	26301
829.968	26237
830.107	26290
830.246	26092
830.385	26225
830.524	26092
830.663	25963
830.802	25970
830.941	25894
831.08	25746
831.219	26008
831.357	25879
831.496	26020
831.635	25871
831.774	25677
831.913	25674
832.051	25544
832.19	25613
832.329	25518
832.467	25529
832.606	25377
832.744	25445
832.883	25643
833.022	25434
833.16	25616
833.299	25548
833.437	25464
833.576	25514
833.714	25540
833.852	25723
833.991	25537
834.129	25609
834.267	25548
834.406	25597
834.544	25434
834.682	25601
834.821	25460
834.959	25753
835.097	25506
835.235	25457
835.373	25491
835.511	25586
835.65	25346
835.788	25457
835.926	25221
836.064	25213
836.202	25255
836.34	25365
836.478	25415
836.615	25373
836.753	25259
836.891	25392
837.029	25400
837.167	25411
837.305	25407
837.443	25316
837.58	25282
837.718	25373
837.856	25091
837.993	25122
838.131	25072
838.269	25046
838.406	25091
838.544	25027
838.681	24734
838.819	24814
838.956	24677
839.094	24730
839.231	24734
839.369	24821
839.506	25046
839.643	24825
839.781	24684
839.918	24540
840.055	24677
840.193	24623
840.33	24483
840.467	24547
840.604	24642
840.742	24913
840.879	24403
841.016	24517
841.153	24441
841.29	24563
841.427	24635
841.564	24601
841.701	24608
841.838	24464
841.975	24441
842.112	24483
842.249	24380
842.385	24232
842.522	24589
842.659	24456
842.796	24346
842.933	24376
843.069	24285
843.206	24228
843.343	24498
843.479	24357
843.616	24357
843.752	24034
843.889	24224
844.025	24220
844.162	23999
844.298	24049
844.435	24102
844.571	24041
844.708	24144
844.844	24205
844.98	24232
845.117	24205
845.253	23965
845.389	23988
845.525	23977
845.661	23916
845.798	23707
845.934	23870
846.07	23707
846.206	23878
846.342	23988
846.478	23836
846.614	23589
846.75	23452
846.886	23433
847.022	23668
847.158	23547
847.294	23535
847.429	23551
847.565	23547
847.701	23665
847.837	23334
847.972	23193
848.108	23296
848.244	23334
848.379	23094
848.515	23231
848.65	23117
848.786	23090
848.921	23254
849.057	23318
849.192	23147
849.328	23220
849.463	23235
849.598	23094
849.734	22987
849.869	22915
850.004	22968
850.14	22915
850.275	22892
850.41	22847
850.545	22877
850.68	22904
850.815	22919
850.95	22919
851.085	23174
851.22	22984
851.355	22805
851.49	22850
851.625	22866
851.76	22953
851.895	22793
852.03	22835
852.165	22957
852.299	22938
852.434	22980
852.569	22782
852.703	22934
852.838	23006
852.973	23003
853.107	23200
853.242	22687
853.376	22755
853.511	22500
853.645	22668
853.78	22843
853.914	22664
854.048	22626
854.183	22698
854.317	22763
854.451	22774
854.585	22698
854.72	22706
854.854	22786
854.988	22626
855.122	22664
855.256	22656
855.39	22839
855.524	22820
855.658	22706
855.792	22698
855.926	22725
856.06	22881
856.194	22797
856.327	22660
856.461	22656
856.595	22675
856.729	22664
856.862	22900
856.996	22710
857.13	22691
857.263	22713
857.397	22744
857.53	22729
857.664	22793
857.797	22778
857.931	22778
858.064	22660
858.197	22782
858.331	22763
858.464	22656
858.597	22641
858.731	22698
858.864	22626
858.997	22721
859.13	22675
859.263	22626
859.396	22904
859.529	22683
859.662	22626
859.795	22713
859.928	22740
860.061	22915
860.194	22854
860.327	22767
860.46	22793
860.592	22835
860.725	22965
860.858	22942
860.99	22809
861.123	22713
861.256	22771
861.388	22706
861.521	23493
861.653	22592
861.786	22516
861.918	22455
862.05	22717
862.183	22672
862.315	22599
862.447	22725
862.58	22653
862.712	22493
862.844	22440
862.976	22466
863.108	22504
863.24	22915
863.372	22394
863.504	22440
863.636	22451
863.768	22630
863.9	22451
864.032	22402
864.164	22462
864.296	22584
864.428	22607
864.559	22531
864.691	22379
864.823	22466
864.954	22360
865.086	22424
865.217	22310
865.349	22276
865.48	22394
865.612	22421
865.743	22519
865.875	22352
866.006	22242
866.137	22192
866.269	22371
866.4	22173
866.531	22352
866.662	22173
866.793	22200
866.924	22215
867.055	22409
867.186	22181
867.317	22143
867.448	22166
867.579	22261
867.71	22173
867.841	22131
867.972	22238
868.103	22261
868.233	22261
868.364	22207
868.495	22337
868.625	22489
868.756	22516
868.886	22333
869.017	22527
869.147	22561
869.278	22592
869.408	22489
869.539	22592
869.669	22512
869.799	22500
869.929	22725
870.06	22603
870.19	22805
870.32	22809
870.45	22869
870.58	22938
870.71	23044
870.84	22999
870.97	22889
871.1	22892
871.23	23029
871.36	23018
871.489	22908
871.619	23052
871.749	23132
871.879	23117
872.008	23353
872.138	23147
872.267	23151
872.397	22889
872.526	22904
872.656	22942
872.785	22809
872.915	23010
873.044	23216
873.173	23193
873.303	23102
873.432	23159
873.561	23136
873.69	23136
873.819	23204
873.948	23197
874.077	23075
874.206	23022
874.335	23227
874.464	23170
874.593	23254
874.722	23189
874.851	23265
874.979	23315
875.108	23387
875.237	23341
875.365	23166
875.494	23322
875.623	23410
875.751	23235
875.88	23261
876.008	23372
876.136	23402
876.265	23752
876.393	23847
876.521	23760
876.65	23737
876.778	23760
876.906	23608
877.034	23680
877.162	23764
877.29	23596
877.418	23657
877.546	23657
877.674	23592
877.802	23486
877.93	23592
878.058	23627
878.185	23486
878.313	23539
878.441	23657
878.568	23436
878.696	23604
878.824	23596
878.951	23752
879.079	23984
879.206	23889
879.333	23687
879.461	23748
879.588	23771
879.715	23756
879.842	23942
879.97	23672
880.097	23467
880.224	23452
880.351	23528
880.478	23391
880.605	23429
880.732	23558
880.859	23817
880.986	23368
881.112	23539
881.239	23277
881.366	23330
881.493	23166
881.619	23231
881.746	22987
881.872	23014
881.999	23113
882.125	22972
882.252	23052
882.378	22972
882.505	23075
882.631	22790
882.757	22687
882.883	22854
883.01	22668
883.136	22653
883.262	22500
883.388	22580
883.514	22755
883.64	22771
883.766	22626
883.892	22538
884.018	22538
884.143	22729
884.269	22634
884.395	22432
884.52	22192
884.646	22371
884.772	22314
884.897	22215
885.023	22314
885.148	22428
885.274	22405
885.399	22348
885.524	22249
885.65	22379
885.775	22363
885.9	22223
886.025	22462
886.15	22409
886.275	22135
886.4	22272
886.525	22337
886.65	22211
886.775	22268
886.9	22356
887.025	22569
887.149	22242
887.274	22177
887.399	21968
887.523	22051
887.648	22135
887.773	21937
887.897	22299
888.021	22013
888.146	21972
888.27	22185
888.395	22219
888.519	22059
888.643	22051
888.767	22010
888.891	21949
889.015	21922
889.139	21998
889.263	21964
889.387	21956
889.511	22101
889.635	22025
889.759	21823
889.883	21682
890.006	21960
890.13	21865
890.254	21823
890.377	21808
890.501	21625
890.624	21507
890.748	21641
890.871	21439
890.995	21310
891.118	21374
891.241	21473
891.364	21405
891.488	21542
891.611	21447
891.734	21378
891.857	21317
891.98	21355
892.103	21447
892.226	21397
892.349	21336
892.471	21245
892.594	21237
892.717	21389
892.839	21256
892.962	21340
893.085	21245
893.207	21332
893.33	21218
893.452	21226
893.575	21336
893.697	21287
893.819	21557
893.941	21481
894.064	21564
894.186	21203
894.308	21241
894.43	21405
894.552	21466
894.674	21507
894.796	21226
894.918	21298
895.04	21188
895.161	21272
895.283	21283
895.405	21245
895.526	21249
895.648	21287
895.769	21275
895.891	21283
896.012	21374
896.134	21359
896.255	21245
896.376	21313
896.498	21249
896.619	21203
896.74	21226
896.861	21420
896.982	21606
897.103	21739
897.224	21603
897.345	21507
897.466	21329
897.587	21469
897.708	21599
897.828	21466
897.949	21469
898.07	21176
898.19	21397
898.311	21519
898.431	21408
898.552	21545
898.672	21553
898.792	21549
898.913	21500
899.033	21439
899.153	21321
899.273	21123
899.393	21161
899.513	21344
899.633	21237
899.753	21291
899.873	21127
899.993	21291
900.113	21165
900.232	21127
900.352	21051
900.472	21001
900.591	20918
900.711	21161
900.83	20842
900.95	21077
901.069	21009
901.189	20785
901.308	20663
901.427	20480
901.546	20495
901.665	20560
901.784	20575
901.904	20450
902.023	20290
902.141	20096
902.26	20062
902.379	20164
902.498	20065
902.617	19921
902.735	20073
902.854	19940
902.973	19955
903.091	19742
903.21	19689
903.328	19693
903.446	19624
903.565	19597
903.683	19460
903.801	19369
903.919	19438
904.038	19350
904.156	19179
904.274	19324
904.392	19179
904.51	19213
904.627	19228
904.745	19403
904.863	19221
904.981	18985
905.098	18928
905.216	18886
905.334	18970
905.451	18905
905.569	18894
905.686	18935
905.803	18852
905.921	18677
906.038	18764
906.155	18673
906.272	18593
906.389	18525
906.506	18327
906.623	18563
906.74	18403
906.857	18418
906.974	18327
907.091	18471
907.208	18498
907.324	18452
907.441	18304
907.557	18174
907.674	18011
907.79	18022
907.907	18178
908.023	18167
908.139	18064
908.256	18003
908.372	18022
908.488	17999
908.604	17859
908.72	17851
908.836	17836
908.952	17824
909.068	17904
909.184	17942
909.3	17946
909.415	17958
909.531	17832
909.647	17535
909.762	17539
909.878	17585
909.993	17448
910.108	17478
910.224	17452
910.339	17356
910.454	17345
910.57	17383
910.685	17273
910.8	17520
910.915	17455
911.03	17421
911.145	17174
911.259	17094
911.374	17075
911.489	17022
911.604	16984
911.718	16809
911.833	16930
911.947	16847
912.062	16740
912.176	16843
912.291	16797
912.405	16908
912.519	17113
912.633	17052
912.748	16923
912.862	16824
912.976	16660
913.09	16512
913.204	16592
913.318	16519
913.431	16710
913.545	16748
913.659	16763
913.772	16725
913.886	16489
914	16462
914.113	16516
914.226	16565
914.34	16443
914.453	16341
914.566	16474
914.68	16333
914.793	16333
914.906	16135
915.019	16048
915.132	15930
915.245	16071
915.358	16090
915.47	16032
915.583	16032
915.696	16032
915.809	16188
915.921	16147
916.034	16029
916.146	15869
916.259	15819
916.371	15983
916.483	15964
916.595	15850
916.708	15850
916.82	15778
916.932	15766
917.044	15835
917.156	15728
917.268	15675
917.38	15679
917.491	15610
917.603	15587
917.715	15663
917.826	15766
917.938	15622
918.049	15515
918.161	15599
918.272	15724
918.384	15785
918.495	15568
918.606	15389
918.717	15298
918.828	15408
918.939	15504
919.05	15272
919.161	15344
919.272	15203
919.383	15161
919.494	15401
919.604	15587
919.715	15306
919.826	15393
919.936	15279
920.047	15424
920.157	15370
920.267	15496
920.378	15363
920.488	15317
920.598	15458
920.708	15656
920.818	15420
920.928	15401
921.038	15526
921.148	15549
921.258	15211
921.368	15176
921.477	15024
921.587	15100
921.697	14845
921.806	14952
921.916	14956
922.025	14815
922.134	14720
922.244	14629
922.353	14674
922.462	14617
922.571	14530
922.68	14389
922.789	14313
922.898	14275
923.007	14267
923.116	14351
923.224	14290
923.333	14195
923.442	14096
923.55	14111
923.659	14206
923.767	14210
923.876	14058
923.984	14168
924.092	13970
924.201	14138
924.309	14020
924.417	13940
924.525	13837
924.633	13967
924.741	14914
924.849	13807
924.956	13913
925.064	13742
925.172	13765
925.279	13731
925.387	13795
925.494	13613
925.602	13780
925.709	13742
925.816	13613
925.924	13666
926.031	13765
926.138	13655
926.245	13723
926.352	13533
926.459	13727
926.566	13693
926.673	13616
926.779	13434
926.886	13445
926.993	13278
927.099	13316
927.206	13187
927.312	13156
927.419	13308
927.525	13225
927.631	13274
927.737	13141
927.843	13008
927.95	12966
928.056	13110
928.162	13110
928.267	13076
928.373	13761
928.479	13129
928.585	12916
928.69	13057
928.796	13008
928.901	12859
929.007	12810
929.112	12875
929.218	12901
929.323	12783
929.428	12787
929.533	12886
929.638	12681
929.743	12673
929.848	12787
929.953	12700
930.058	12616
930.163	12437
930.267	12506
930.372	12544
930.477	12376
930.581	12646
930.685	12490
930.79	12296
930.894	12369
930.998	12357
931.103	12494
931.207	12087
931.311	11893
931.415	11923
931.519	11764
931.623	11710
