Data from test_V78500241_1836.txt Node
Date: Fri Mar 25 15:54:31 CST 2022
User: usil
Spectrometer: V785-0024
Trigger mode: 0
Integration Time (sec): 4.000000E-1
Scans to average: 1
Nonlinearity correction enabled: false
Boxcar width: 0
Storing dark spectrum: false
XAxis mode: Wavelengths
Number of Pixels in Spectrum: 1024
>>>>>Begin Spectral Data<<<<<
801.071	28440
801.214	28394
801.356	28238
801.499	28078
801.641	27972
801.783	27941
801.926	28097
802.068	27854
802.211	27892
802.353	27907
802.496	27698
802.638	27679
802.78	27629
802.923	27572
803.065	27625
803.208	27641
803.35	27599
803.492	27937
803.635	27907
803.777	27698
803.919	27831
804.061	28135
804.204	28021
804.346	27941
804.488	27781
804.63	27911
804.773	27789
804.915	27983
805.057	28090
805.199	27994
805.341	27930
805.483	28078
805.626	28036
805.768	27998
805.91	28128
806.052	28078
806.194	27914
806.336	28181
806.478	28078
806.62	28097
806.762	28272
806.904	28268
807.046	28622
807.188	28546
807.33	28413
807.472	28592
807.614	28493
807.756	28531
807.898	28409
808.04	28421
808.182	28432
808.324	28287
808.465	28409
808.607	28626
808.749	28668
808.891	28908
809.033	28911
809.174	28774
809.316	28733
809.458	28668
809.6	28698
809.741	28744
809.883	28850
810.025	29048
810.166	29052
810.308	29041
810.45	29010
810.591	28957
810.733	28847
810.875	28774
811.016	28596
811.158	28531
811.299	28835
811.441	28984
811.582	28869
811.724	28706
811.865	28573
812.007	28774
812.148	28706
812.29	28698
812.431	28831
812.573	28991
812.714	29048
812.855	29265
812.997	29212
813.138	29471
813.279	29303
813.421	29246
813.562	29204
813.703	29079
813.845	29014
813.986	28615
814.127	28428
814.268	28516
814.41	28443
814.551	28398
814.692	28481
814.833	28280
814.974	28409
815.115	28466
815.256	28249
815.397	28276
815.539	28390
815.68	28226
815.821	28291
815.962	28166
816.103	28360
816.244	28105
816.385	27987
816.526	27979
816.666	27854
816.807	27797
816.948	27781
817.089	27800
817.23	27781
817.371	27751
817.512	27747
817.653	27644
817.793	27724
817.934	27835
818.075	27679
818.216	27599
818.356	27720
818.497	27587
818.638	27606
818.778	27420
818.919	27477
819.06	27443
819.2	27553
819.341	27789
819.481	27804
819.622	27945
819.762	28025
819.903	28070
820.043	27930
820.184	27869
820.324	27922
820.465	27941
820.605	27926
820.746	27918
820.886	27778
821.026	27880
821.167	27827
821.307	27949
821.447	27842
821.588	27766
821.728	27549
821.868	27485
822.008	27420
822.149	27317
822.289	27264
822.429	26925
822.569	27055
822.709	26864
822.849	26686
822.99	26849
823.13	26739
823.27	26522
823.41	26499
823.55	26446
823.69	26617
823.83	26701
823.97	26545
824.11	26499
824.25	26351
824.389	26362
824.529	26499
824.669	26362
824.809	26583
824.949	26526
825.089	26457
825.228	26351
825.368	26202
825.508	26233
825.648	26301
825.787	26210
825.927	26347
826.067	26298
826.206	26062
826.346	26305
826.485	26324
826.625	26161
826.765	26362
826.904	26393
827.044	26058
827.183	26058
827.323	25818
827.462	26069
827.601	26092
827.741	26012
827.88	25997
828.02	25883
828.159	25879
828.298	25921
828.437	26027
828.577	25898
828.716	26100
828.855	25761
828.994	25613
829.134	25639
829.273	25620
829.412	25635
829.551	25689
829.69	25571
829.829	25601
829.968	25696
830.107	25662
830.246	25609
830.385	25723
830.524	25426
830.663	25392
830.802	25343
830.941	25198
831.08	25225
831.219	25339
831.357	25324
831.496	25407
831.635	25156
831.774	25160
831.913	25122
832.051	25088
832.19	25069
832.329	25076
832.467	24966
832.606	24886
832.744	24833
832.883	24932
833.022	24817
833.16	24867
833.299	24913
833.437	24890
833.576	25091
833.714	25046
833.852	25023
833.991	24977
834.129	25156
834.267	25008
834.406	24970
834.544	25133
834.682	24973
834.821	24951
834.959	25103
835.097	24894
835.235	25107
835.373	25034
835.511	24909
835.65	24913
835.788	24833
835.926	24642
836.064	24692
836.202	24608
836.34	24783
836.478	24932
836.615	24772
836.753	24821
836.891	24935
837.029	24863
837.167	24719
837.305	24692
837.443	24768
837.58	24623
837.718	24726
837.856	24612
837.993	24654
838.131	24829
838.269	24593
838.406	24490
838.544	24471
838.681	24273
838.819	24235
838.956	24068
839.094	24106
839.231	24262
839.369	24228
839.506	24528
839.643	24270
839.781	24087
839.918	23999
840.055	24079
840.193	23988
840.33	23885
840.467	24018
840.604	23961
840.742	24346
840.879	23760
841.016	23954
841.153	23946
841.29	24068
841.427	23946
841.564	24060
841.701	23939
841.838	23969
841.975	23908
842.112	23977
842.249	23802
842.385	23771
842.522	24022
842.659	23710
842.796	23707
842.933	23817
843.069	23752
843.206	23741
843.343	23828
843.479	23878
843.616	23722
843.752	23551
843.889	23486
844.025	23707
844.162	23634
844.298	23707
844.435	23551
844.571	23535
844.708	23722
844.844	23676
844.98	23684
845.117	23668
845.253	23520
845.389	23322
845.525	23379
845.661	23474
845.798	23273
845.934	23121
846.07	23334
846.206	23155
846.342	23372
846.478	23254
846.614	22946
846.75	22972
846.886	22938
847.022	22953
847.158	22923
847.294	22919
847.429	23048
847.565	22900
847.701	23174
847.837	22691
847.972	22611
848.108	22805
848.244	22748
848.379	22641
848.515	22580
848.65	22504
848.786	22531
848.921	22443
849.057	22649
849.192	22778
849.328	22668
849.463	22550
849.598	22557
849.734	22580
849.869	22512
850.004	22303
850.14	22356
850.275	22329
850.41	22284
850.545	22268
850.68	22204
850.815	22295
850.95	22272
851.085	22436
851.22	22451
851.355	22382
851.49	22280
851.625	22310
851.76	22226
851.895	22249
852.03	22284
852.165	22371
852.299	22356
852.434	22409
852.569	22360
852.703	22276
852.838	22333
852.973	22519
853.107	22459
853.242	22204
853.376	22109
853.511	22131
853.645	22082
853.78	22363
853.914	22223
854.048	22097
854.183	22082
854.317	22333
854.451	22409
854.585	22169
854.72	22200
854.854	22207
854.988	22082
855.122	22306
855.256	22029
855.39	22169
855.524	22207
855.658	22169
855.792	22261
855.926	22143
856.06	22284
856.194	22166
856.327	22150
856.461	22128
856.595	22006
856.729	22086
856.862	22375
856.996	22234
857.13	22238
857.263	22363
857.397	22154
857.53	22223
857.664	22272
857.797	22192
857.931	22154
858.064	22177
858.197	22253
858.331	22207
858.464	22109
858.597	21987
858.731	22295
858.864	22105
858.997	22082
859.13	22143
859.263	22211
859.396	22257
859.529	22154
859.662	22154
859.795	22010
859.928	22135
860.061	22196
860.194	22421
860.327	22143
860.46	22135
860.592	22409
860.725	22196
860.858	22382
860.99	22200
861.123	22158
861.256	22006
861.388	22093
861.521	22953
861.653	21968
861.786	21964
861.918	21937
862.05	22101
862.183	22082
862.315	22082
862.447	22181
862.58	22082
862.712	21918
862.844	21892
862.976	21949
863.108	21907
863.24	22310
863.372	21854
863.504	21800
863.636	21857
863.768	22021
863.9	21918
864.032	21774
864.164	21892
864.296	21934
864.428	21918
864.559	22006
864.691	21956
864.823	21937
864.954	21781
865.086	21797
865.217	21736
865.349	21705
865.48	21747
865.612	21778
865.743	21941
865.875	21781
866.006	21778
866.137	21869
866.269	21747
866.4	21690
866.531	21717
866.662	21804
866.793	21557
866.924	21553
867.055	21728
867.186	21644
867.317	21568
867.448	21682
867.579	21519
867.71	21618
867.841	21485
867.972	21797
868.103	21625
868.233	21610
868.364	21671
868.495	21854
868.625	21983
868.756	22036
868.886	21911
869.017	21895
869.147	22029
869.278	22010
869.408	22021
869.539	22021
869.669	22162
869.799	22006
869.929	21983
870.06	22097
870.19	22181
870.32	22249
870.45	22314
870.58	22341
870.71	22382
870.84	22329
870.97	22325
871.1	22299
871.23	22462
871.36	22573
871.489	22474
871.619	22538
871.749	22424
871.879	22527
872.008	22611
872.138	22405
872.267	22519
872.397	22398
872.526	22322
872.656	22344
872.785	22360
872.915	22580
873.044	22710
873.173	22554
873.303	22656
873.432	22569
873.561	22668
873.69	22443
873.819	22474
873.948	22580
874.077	22565
874.206	22519
874.335	22573
874.464	22580
874.593	22805
874.722	22740
874.851	22767
874.979	22706
875.108	22824
875.237	22763
875.365	22725
875.494	22755
875.623	22774
875.751	22577
875.88	22710
876.008	22923
876.136	22984
876.265	23227
876.393	23311
876.521	23231
876.65	23159
876.778	23113
876.906	23010
877.034	23090
877.162	23121
877.29	23056
877.418	23178
877.546	23033
877.674	23121
877.802	23052
877.93	22995
878.058	22980
878.185	23033
878.313	23060
878.441	23060
878.568	22991
878.696	22934
878.824	23090
878.951	23132
879.079	23227
879.206	23410
879.333	23242
879.461	23147
879.588	23140
879.715	23269
879.842	23353
879.97	23162
880.097	22957
880.224	23018
880.351	22904
880.478	22923
880.605	22843
880.732	22984
880.859	23197
880.986	22908
881.112	22980
881.239	22847
881.366	22763
881.493	22508
881.619	22459
881.746	22504
881.872	22470
881.999	22466
882.125	22493
882.252	22421
882.378	22523
882.505	22538
882.631	22318
882.757	22162
882.883	22181
883.01	22284
883.136	22249
883.262	22025
883.388	21972
883.514	22158
883.64	22295
883.766	22147
883.892	21930
884.018	21987
884.143	22013
884.269	22128
884.395	21747
884.52	21698
884.646	21865
884.772	21625
884.897	21819
885.023	21823
885.148	21865
885.274	21869
885.399	21922
885.524	21835
885.65	21660
885.775	21705
885.9	21743
886.025	21823
886.15	21907
886.275	21846
886.4	21618
886.525	21709
886.65	21603
886.775	21793
886.9	21964
887.025	22010
887.149	21633
887.274	21462
887.399	21534
887.523	21481
887.648	21466
887.773	21412
887.897	21553
888.021	21481
888.146	21595
888.27	21641
888.395	21652
888.519	21660
888.643	21610
888.767	21660
888.891	21443
889.015	21405
889.139	21382
889.263	21294
889.387	21466
889.511	21469
889.635	21492
889.759	21488
889.883	21283
890.006	21264
890.13	21389
890.254	21351
890.377	21264
890.501	20979
890.624	21100
890.748	21020
890.871	20967
890.995	20830
891.118	20899
891.241	20948
891.364	20933
891.488	21028
891.611	20990
891.734	20826
891.857	20944
891.98	20963
892.103	20998
892.226	20834
892.349	20800
892.471	20686
892.594	20861
892.717	20952
892.839	20853
892.962	20758
893.085	20902
893.207	20826
893.33	20815
893.452	20727
893.575	20861
893.697	20746
893.819	20883
893.941	20994
894.064	20899
894.186	20686
894.308	20697
894.43	20895
894.552	20971
894.674	20921
894.796	20746
894.918	20746
895.04	20746
895.161	20861
895.283	20864
895.405	20739
895.526	20815
895.648	20746
895.769	20754
895.891	20739
896.012	20918
896.134	20937
896.255	20811
896.376	20621
896.498	20830
896.619	20963
896.74	20773
896.861	20918
896.982	21199
897.103	21260
897.224	21108
897.345	20986
897.466	20914
897.587	21074
897.708	21081
897.828	21062
897.949	20982
898.07	20731
898.19	20918
898.311	21058
898.431	20941
898.552	20994
898.672	21119
898.792	21074
898.913	21020
899.033	20902
899.153	20807
899.273	20746
899.393	20781
899.513	20663
899.633	20773
899.753	20815
899.873	20792
899.993	20762
900.113	20689
900.232	20769
900.352	20739
900.472	20522
900.591	20438
900.711	20499
900.83	20423
900.95	20530
901.069	20651
901.189	20396
901.308	20271
901.427	20020
901.546	20142
901.665	20084
901.784	20077
901.904	19967
902.023	19830
902.141	19723
902.26	19704
902.379	19696
902.498	19567
902.617	19445
902.735	19563
902.854	19594
902.973	19495
903.091	19297
903.21	19282
903.328	19202
903.446	19072
903.565	19175
903.683	19057
903.801	18856
903.919	18932
904.038	19034
904.156	18844
904.274	18916
904.392	18692
904.51	18749
904.627	18772
904.745	18829
904.863	18913
904.981	18551
905.098	18536
905.216	18456
905.334	18479
905.451	18414
905.569	18410
905.686	18528
905.803	18403
905.921	18308
906.038	18330
906.155	18372
906.272	18201
906.389	18262
906.506	18007
906.623	18076
906.74	17977
906.857	17737
906.974	17832
907.091	18015
907.208	18152
907.324	18068
907.441	17870
907.557	17836
907.674	17752
907.79	17532
907.907	17687
908.023	17661
908.139	17798
908.256	17646
908.372	17528
908.488	17600
908.604	17524
908.72	17490
908.836	17410
908.952	17433
909.068	17417
909.184	17573
909.3	17402
909.415	17315
909.531	17322
909.647	17140
909.762	17124
909.878	17212
909.993	17258
910.108	17079
910.224	17029
910.339	17067
910.454	16968
910.57	16892
910.685	16824
910.8	17220
910.915	17060
911.03	16953
911.145	16828
911.259	16717
911.374	16683
911.489	16634
911.604	16599
911.718	16481
911.833	16478
911.947	16291
912.062	16363
912.176	16447
912.291	16470
912.405	16523
912.519	16615
912.633	16599
912.748	16527
912.862	16306
912.976	16379
913.09	16109
913.204	16242
913.318	16341
913.431	16329
913.545	16371
913.659	16352
913.772	16204
913.886	16143
914	15964
914.113	16196
914.226	16158
914.34	16139
914.453	15918
914.566	16036
914.68	15835
914.793	15972
914.906	15766
915.019	15648
915.132	15606
915.245	15614
915.358	15507
915.47	15606
915.583	15587
915.696	15618
915.809	15660
915.921	15812
916.034	15606
916.146	15553
916.259	15408
916.371	15671
916.483	15584
916.595	15526
916.708	15481
916.82	15443
916.932	15348
917.044	15348
917.156	15294
917.268	15218
917.38	15291
917.491	15279
917.603	15226
917.715	15393
917.826	15405
917.938	15173
918.049	15161
918.161	15249
918.272	15268
918.384	15302
918.495	15108
918.606	15108
918.717	14933
918.828	15089
918.939	15077
919.05	14918
919.161	14952
919.272	14819
919.383	14963
919.494	15058
919.604	15165
919.715	15005
919.826	14815
919.936	14941
920.047	14990
920.157	15039
920.267	15211
920.378	15047
920.488	14963
920.598	15180
920.708	15226
920.818	15161
920.928	15112
921.038	15329
921.148	15329
921.258	14906
921.368	14842
921.477	14705
921.587	14739
921.697	14465
921.806	14731
921.916	14507
922.025	14461
922.134	14343
922.244	14317
922.353	14317
922.462	14248
922.571	14157
922.68	14123
922.789	13947
922.898	13993
923.007	13982
923.116	14054
923.224	14046
923.333	13993
923.442	13890
923.55	13837
923.659	13890
923.767	13898
923.876	13731
923.984	13811
924.092	13708
924.201	13791
924.309	13681
924.417	13693
924.525	13715
924.633	13681
924.741	14408
924.849	13438
924.956	13651
925.064	13514
925.172	13426
925.279	13400
925.387	13411
925.494	13476
925.602	13575
925.709	13480
925.816	13282
925.924	13388
926.031	13384
926.138	13346
926.245	13362
926.352	13293
926.459	13384
926.566	13407
926.673	13251
926.779	13152
926.886	13209
926.993	12947
927.099	13015
927.206	12897
927.312	12932
927.419	13015
927.525	12966
927.631	13015
927.737	12913
927.843	12798
927.95	12722
928.056	12817
928.162	12806
928.267	12840
928.373	13346
928.479	12802
928.585	12662
928.69	12707
928.796	12722
928.901	12601
929.007	12544
929.112	12639
929.218	12593
929.323	12498
929.428	12414
929.533	12665
929.638	12372
929.743	12445
929.848	12540
929.953	12433
930.058	12277
930.163	12076
930.267	12182
930.372	12418
930.477	11999
930.581	12361
930.685	12186
930.79	12041
930.894	12060
930.998	12003
931.103	12155
931.207	11741
931.311	11767
931.415	11638
931.519	11455
931.623	11398
