Data from test_V78500241_806.txt Node
Date: Fri Mar 25 15:47:23 CST 2022
User: usil
Spectrometer: V785-0024
Trigger mode: 0
Integration Time (sec): 4.000000E-1
Scans to average: 1
Nonlinearity correction enabled: false
Boxcar width: 0
Storing dark spectrum: false
XAxis mode: Wavelengths
Number of Pixels in Spectrum: 1024
>>>>>Begin Spectral Data<<<<<
801.071	27819
801.214	27743
801.356	27416
801.499	27378
801.641	27199
801.783	27291
801.926	27336
802.068	27275
802.211	27214
802.353	27150
802.496	26967
802.638	26929
802.78	26937
802.923	26979
803.065	26883
803.208	26838
803.35	26929
803.492	27096
803.635	27154
803.777	27074
803.919	27081
804.061	27454
804.204	27123
804.346	27085
804.488	26975
804.63	27089
804.773	27001
804.915	27051
805.057	27279
805.199	27161
805.341	27241
805.483	27241
805.626	27195
805.768	27157
805.91	27169
806.052	27241
806.194	27222
806.336	27443
806.478	27252
806.62	27112
806.762	27348
806.904	27382
807.046	27823
807.188	27644
807.33	27511
807.472	27717
807.614	27538
807.756	27591
807.898	27564
808.04	27507
808.182	27397
808.324	27485
808.465	27595
808.607	27701
808.749	27854
808.891	27914
809.033	28090
809.174	28029
809.316	28029
809.458	27892
809.6	27979
809.741	28063
809.883	28131
810.025	28257
810.166	28238
810.308	28257
810.45	28090
810.591	28150
810.733	27975
810.875	27816
811.016	27808
811.158	27850
811.299	27899
811.441	28147
811.582	28135
811.724	27994
811.865	27960
812.007	28013
812.148	27937
812.29	27854
812.431	28029
812.573	28314
812.714	28299
812.855	28516
812.997	28512
813.138	28694
813.279	28672
813.421	28447
813.562	28409
813.703	28078
813.845	28169
813.986	27671
814.127	27633
814.268	27663
814.41	27618
814.551	27492
814.692	27732
814.833	27572
814.974	27606
815.115	27648
815.256	27420
815.397	27408
815.539	27564
815.68	27256
815.821	27161
815.962	27359
816.103	27363
816.244	27260
816.385	27119
816.526	27298
816.666	26937
816.807	26830
816.948	26960
817.089	26982
817.23	26986
817.371	26727
817.512	26902
817.653	26750
817.793	26811
817.934	26788
818.075	26880
818.216	26857
818.356	26705
818.497	26746
818.638	26648
818.778	26682
818.919	26636
819.06	26724
819.2	26880
819.341	26830
819.481	26880
819.622	27051
819.762	27135
819.903	27051
820.043	27020
820.184	26906
820.324	26944
820.465	27077
820.605	27207
820.746	26788
820.886	26811
821.026	26944
821.167	26883
821.307	26971
821.447	26800
821.588	26758
821.728	26853
821.868	26446
822.008	26305
822.149	26240
822.289	26336
822.429	26077
822.569	25997
822.709	26092
822.849	25940
822.99	25784
823.13	25856
823.27	25772
823.41	25822
823.55	25712
823.69	25723
823.83	25696
823.97	25639
824.11	25567
824.25	25358
824.389	25388
824.529	25567
824.669	25377
824.809	25575
824.949	25548
825.089	25552
825.228	25483
825.368	25312
825.508	25289
825.648	25369
825.787	25521
825.927	25377
826.067	25327
826.206	25445
826.346	25544
826.485	25453
826.625	25255
826.765	25445
826.904	25304
827.044	25148
827.183	25091
827.323	25137
827.462	25107
827.601	25050
827.741	25069
827.88	25247
828.02	24875
828.159	25095
828.298	25122
828.437	25118
828.577	25061
828.716	25164
828.855	25088
828.994	24749
829.134	24749
829.273	24722
829.412	24700
829.551	24681
829.69	24810
829.829	24890
829.968	24783
830.107	24840
830.246	24696
830.385	24684
830.524	24772
830.663	24661
830.802	24483
830.941	24460
831.08	24296
831.219	24456
831.357	24414
831.496	24665
831.635	24311
831.774	24220
831.913	24304
832.051	24197
832.19	24098
832.329	24136
832.467	24079
832.606	24026
832.744	23920
832.883	24041
833.022	23999
833.16	24045
833.299	24114
833.437	24117
833.576	24136
833.714	24136
833.852	24277
833.991	24076
834.129	24178
834.267	24243
834.406	24178
834.544	24087
834.682	24106
834.821	24068
834.959	24311
835.097	24163
835.235	24216
835.373	24136
835.511	24091
835.65	24102
835.788	23920
835.926	23809
836.064	23741
836.202	23649
836.34	23980
836.478	23965
836.615	23878
836.753	24068
836.891	23965
837.029	23950
837.167	23855
837.305	23760
837.443	23684
837.58	23832
837.718	23821
837.856	23695
837.993	23699
838.131	23786
838.269	23710
838.406	23642
838.544	23661
838.681	23417
838.819	23520
838.956	23349
839.094	23364
839.231	23288
839.369	23368
839.506	23646
839.643	23490
839.781	23189
839.918	23136
840.055	23269
840.193	23231
840.33	23288
840.467	23208
840.604	23185
840.742	23349
840.879	22984
841.016	23113
841.153	23067
841.29	23075
841.427	23052
841.564	23315
841.701	22968
841.838	22957
841.975	22999
842.112	23113
842.249	22972
842.385	22873
842.522	23155
842.659	22957
842.796	22946
842.933	22911
843.069	22927
843.206	22862
843.343	22900
843.479	22828
843.616	22793
843.752	22569
843.889	22668
844.025	22881
844.162	22626
844.298	22702
844.435	22672
844.571	22675
844.708	22645
844.844	22866
844.98	22854
845.117	22702
845.253	22702
845.389	22542
845.525	22584
845.661	22561
845.798	22348
845.934	22508
846.07	22413
846.206	22405
846.342	22561
846.478	22386
846.614	22287
846.75	22226
846.886	22059
847.022	22181
847.158	22162
847.294	22249
847.429	22169
847.565	22048
847.701	22394
847.837	21945
847.972	21899
848.108	22025
848.244	21949
848.379	21747
848.515	21838
848.65	21682
848.786	21717
848.921	21766
849.057	21880
849.192	21892
849.328	21778
849.463	21747
849.598	21656
849.734	21610
849.869	21572
850.004	21572
850.14	21549
850.275	21435
850.41	21435
850.545	21428
850.68	21523
850.815	21538
850.95	21557
851.085	21587
851.22	21648
851.355	21534
851.49	21462
851.625	21454
851.76	21488
851.895	21382
852.03	21405
852.165	21272
852.299	21466
852.434	21603
852.569	21496
852.703	21473
852.838	21458
852.973	21671
853.107	21526
853.242	21313
853.376	21408
853.511	21268
853.645	21199
853.78	21374
853.914	21386
854.048	21279
854.183	21378
854.317	21393
854.451	21492
854.585	21302
854.72	21275
854.854	21447
854.988	21195
855.122	21256
855.256	21119
855.39	21332
855.524	21340
855.658	21298
855.792	21294
855.926	21336
856.06	21374
856.194	21519
856.327	21458
856.461	21264
856.595	21226
856.729	21382
856.862	21405
856.996	21412
857.13	21454
857.263	21515
857.397	21351
857.53	21279
857.664	21348
857.797	21424
857.931	21530
858.064	21336
858.197	21462
858.331	21336
858.464	21306
858.597	21207
858.731	21454
858.864	21291
858.997	21336
859.13	21367
859.263	21310
859.396	21370
859.529	21294
859.662	21340
859.795	21332
859.928	21325
860.061	21363
860.194	21450
860.327	21332
860.46	21370
860.592	21481
860.725	21496
860.858	21363
860.99	21264
861.123	21195
861.256	21306
861.388	21241
861.521	21964
861.653	21180
861.786	21211
861.918	21119
862.05	21077
862.183	21192
862.315	21306
862.447	21233
862.58	21256
862.712	21169
862.844	21104
862.976	21081
863.108	21020
863.24	21629
863.372	21024
863.504	21077
863.636	20948
863.768	20982
863.9	21039
864.032	20994
864.164	21043
864.296	21036
864.428	21157
864.559	21085
864.691	21211
864.823	21207
864.954	21112
865.086	21051
865.217	20979
865.349	20861
865.48	20914
865.612	20807
865.743	21119
865.875	20960
866.006	20944
866.137	20861
866.269	20864
866.4	21047
866.531	20899
866.662	20788
866.793	20914
866.924	20921
867.055	20929
867.186	20864
867.317	20975
867.448	20864
867.579	20819
867.71	20773
867.841	20849
867.972	20891
868.103	20937
868.233	20929
868.364	20895
868.495	20925
868.625	21154
868.756	21237
868.886	21036
869.017	21047
869.147	21264
869.278	21287
869.408	21138
869.539	21104
869.669	21260
869.799	21298
869.929	21268
870.06	21188
870.19	21504
870.32	21355
870.45	21462
870.58	21629
870.71	21580
870.84	21652
870.97	21473
871.1	21424
871.23	21618
871.36	21724
871.489	21610
871.619	21625
871.749	21694
871.879	21846
872.008	21846
872.138	21774
872.267	21732
872.397	21580
872.526	21523
872.656	21595
872.785	21580
872.915	21747
873.044	21778
873.173	21827
873.303	21846
873.432	21759
873.561	21816
873.69	21671
873.819	21819
873.948	21774
874.077	21819
874.206	21759
874.335	21762
874.464	21899
874.593	22036
874.722	22032
874.851	22040
874.979	21934
875.108	22093
875.237	22048
875.365	22010
875.494	21968
875.623	22017
875.751	21930
875.88	21953
876.008	22048
876.136	22166
876.265	22306
876.393	22447
876.521	22538
876.65	22455
876.778	22382
876.906	22356
877.034	22268
877.162	22485
877.29	22325
877.418	22394
877.546	22337
877.674	22226
877.802	22337
877.93	22204
878.058	22318
878.185	22154
878.313	22238
878.441	22318
878.568	22177
878.696	22154
878.824	22265
878.951	22402
879.079	22462
879.206	22637
879.333	22447
879.461	22360
879.588	22337
879.715	22542
879.842	22577
879.97	22474
880.097	22204
880.224	22204
880.351	22223
880.478	22131
880.605	22097
880.732	22169
880.859	22432
880.986	22234
881.112	22143
881.239	22017
881.366	21816
881.493	21926
881.619	21732
881.746	21861
881.872	21785
881.999	21603
882.125	21603
882.252	21755
882.378	21732
882.505	21762
882.631	21759
882.757	21424
882.883	21492
883.01	21492
883.136	21325
883.262	21279
883.388	21306
883.514	21473
883.64	21416
883.766	21298
883.892	21214
884.018	21260
884.143	21416
884.269	21496
884.395	21150
884.52	21123
884.646	21028
884.772	21043
884.897	20921
885.023	21108
885.148	21203
885.274	21135
885.399	21154
885.524	21058
885.65	20948
885.775	21077
885.9	21043
886.025	21093
886.15	21127
886.275	21036
886.4	20956
886.525	21032
886.65	20990
886.775	20899
886.9	21157
887.025	21237
887.149	20998
887.274	20853
887.399	20929
887.523	20887
887.648	20720
887.773	20617
887.897	20921
888.021	20941
888.146	20788
888.27	20929
888.395	20880
888.519	20853
888.643	20929
888.767	20899
888.891	20667
889.015	20659
889.139	20629
889.263	20689
889.387	20807
889.511	20906
889.635	20731
889.759	20636
889.883	20564
890.006	20727
890.13	20807
890.254	20522
890.377	20427
890.501	20396
890.624	20301
890.748	20366
890.871	20317
890.995	20161
891.118	20153
891.241	20271
891.364	20309
891.488	20351
891.611	20214
891.734	20248
891.857	20263
891.98	20225
892.103	20214
892.226	20298
892.349	20214
892.471	20088
892.594	20084
892.717	20176
892.839	20096
892.962	20252
893.085	20187
893.207	20069
893.33	19890
893.452	20130
893.575	20153
893.697	20012
893.819	20206
893.941	20328
894.064	20191
894.186	19963
894.308	20043
894.43	20092
894.552	20256
894.674	20309
894.796	20005
894.918	20012
895.04	19936
895.161	20168
895.283	20088
895.405	19947
895.526	20100
895.648	20115
895.769	20172
895.891	20115
896.012	20218
896.134	20100
896.255	20195
896.376	20065
896.498	20119
896.619	20065
896.74	20157
896.861	20256
896.982	20415
897.103	20533
897.224	20351
897.345	20294
897.466	20248
897.587	20370
897.708	20454
897.828	20499
897.949	20229
898.07	20145
898.19	20252
898.311	20381
898.431	20252
898.552	20358
898.672	20381
898.792	20351
898.913	20385
899.033	20157
899.153	20161
899.273	20058
899.393	20050
899.513	20081
899.633	20088
899.753	20073
899.873	20161
899.993	20122
900.113	20005
900.232	19978
900.352	20077
900.472	19852
900.591	19837
900.711	19898
900.83	19822
900.95	19986
901.069	20005
901.189	19845
901.308	19586
901.427	19495
901.546	19540
901.665	19422
901.784	19430
901.904	19396
902.023	19133
902.141	19095
902.26	19008
902.379	18993
902.498	19019
902.617	18993
902.735	18928
902.854	19023
902.973	18867
903.091	18711
903.21	18673
903.328	18665
903.446	18433
903.565	18483
903.683	18456
903.801	18350
903.919	18407
904.038	18422
904.156	18133
904.274	18292
904.392	18254
904.51	18102
904.627	18201
904.745	18323
904.863	18266
904.981	18125
905.098	17946
905.216	17836
905.334	17870
905.451	17802
905.569	17904
905.686	17889
905.803	17821
905.921	17684
906.038	17786
906.155	17729
906.272	17440
906.389	17634
906.506	17490
906.623	17486
906.74	17402
906.857	17360
906.974	17372
907.091	17360
907.208	17554
907.324	17364
907.441	17273
907.557	17197
907.674	17128
907.79	17121
907.907	17086
908.023	17200
908.139	17048
908.256	17060
908.372	16987
908.488	17010
908.604	16919
908.72	16778
908.836	16972
908.952	16869
909.068	16869
909.184	16984
909.3	16858
909.415	16885
909.531	16831
909.647	16626
909.762	16508
909.878	16542
909.993	16554
910.108	16584
910.224	16481
910.339	16573
910.454	16390
910.57	16398
910.685	16238
910.8	16546
910.915	16504
911.03	16325
911.145	16272
911.259	16246
911.374	16112
911.489	16074
911.604	16090
911.718	15918
911.833	15903
911.947	15793
912.062	15709
912.176	15899
912.291	15926
912.405	15778
912.519	16139
912.633	16086
912.748	15968
912.862	15835
912.976	15797
913.09	15439
913.204	15641
913.318	15625
913.431	15808
913.545	15736
913.659	15739
913.772	15686
913.886	15641
914	15473
914.113	15496
914.226	15641
914.34	15584
914.453	15348
914.566	15557
914.68	15378
914.793	15397
914.906	15169
915.019	15180
915.132	15043
915.245	15055
915.358	15104
915.47	15154
915.583	15085
915.696	15157
915.809	15344
915.921	15245
916.034	15043
916.146	14998
916.259	14960
916.371	15028
916.483	15135
916.595	14868
916.708	15017
916.82	14956
916.932	14925
917.044	14864
917.156	14941
917.268	14682
917.38	14811
917.491	14834
917.603	14746
917.715	14845
917.826	14842
917.938	14746
918.049	14590
918.161	14727
918.272	14914
918.384	14853
918.495	14731
918.606	14594
918.717	14389
918.828	14659
918.939	14530
919.05	14400
919.161	14507
919.272	14313
919.383	14370
919.494	14590
919.604	14716
919.715	14446
919.826	14461
919.936	14434
920.047	14606
920.157	14492
920.267	14621
920.378	14537
920.488	14442
920.598	14663
920.708	14811
920.818	14655
920.928	14579
921.038	14686
921.148	14807
921.258	14480
921.368	14298
921.477	14237
921.587	14278
921.697	14111
921.806	14164
921.916	13997
922.025	13959
922.134	13849
922.244	13837
922.353	13902
922.462	13799
922.571	13734
922.68	13586
922.789	13620
922.898	13480
923.007	13472
923.116	13457
923.224	13438
923.333	13449
923.442	13373
923.55	13396
923.659	13369
923.767	13362
923.876	13320
923.984	13464
924.092	13244
924.201	13285
924.309	13289
924.417	13301
924.525	13206
924.633	13213
924.741	14100
924.849	12916
924.956	13164
925.064	13004
925.172	12890
925.279	12852
925.387	12916
925.494	12962
925.602	13103
925.709	12996
925.816	12856
925.924	12848
926.031	13038
926.138	12943
926.245	12837
926.352	12768
926.459	12878
926.566	12863
926.673	12741
926.779	12711
926.886	12623
926.993	12502
927.099	12475
927.206	12506
927.312	12464
927.419	12578
927.525	12479
927.631	12506
927.737	12361
927.843	12365
927.95	12216
928.056	12262
928.162	12254
928.267	12338
928.373	12947
928.479	12456
928.585	12125
928.69	12342
928.796	12270
928.901	12110
929.007	12087
929.112	12155
929.218	12216
929.323	12015
929.428	12003
929.533	12125
929.638	11942
929.743	12038
929.848	12045
929.953	11999
930.058	11942
930.163	11699
930.267	11707
930.372	11870
930.477	11714
930.581	11950
930.685	11699
930.79	11619
930.894	11581
930.998	11611
931.103	11756
931.207	11459
931.311	11280
931.415	11166
931.519	10972
931.623	10987
