Data from test_V78500241_1243.txt Node
Date: Fri Mar 25 15:50:24 CST 2022
User: usil
Spectrometer: V785-0024
Trigger mode: 0
Integration Time (sec): 4.000000E-1
Scans to average: 1
Nonlinearity correction enabled: false
Boxcar width: 0
Storing dark spectrum: false
XAxis mode: Wavelengths
Number of Pixels in Spectrum: 1024
>>>>>Begin Spectral Data<<<<<
801.071	28782
801.214	28626
801.356	28478
801.499	28440
801.641	28192
801.783	28284
801.926	28219
802.068	28234
802.211	28287
802.353	28246
802.496	28021
802.638	27987
802.78	27968
802.923	27876
803.065	27949
803.208	27899
803.35	27846
803.492	27991
803.635	28048
803.777	28101
803.919	28059
804.061	28428
804.204	28360
804.346	28093
804.488	28059
804.63	28287
804.773	28055
804.915	28249
805.057	28211
805.199	28299
805.341	28238
805.483	28344
805.626	28443
805.768	28196
805.91	28363
806.052	28310
806.194	28219
806.336	28500
806.478	28329
806.62	28363
806.762	28367
806.904	28679
807.046	28854
807.188	28812
807.33	28778
807.472	28930
807.614	28679
807.756	28850
807.898	28763
808.04	28687
808.182	28683
808.324	28691
808.465	28888
808.607	29025
808.749	29098
808.891	29151
809.033	29231
809.174	29037
809.316	28991
809.458	28919
809.6	29018
809.741	29223
809.883	29132
810.025	29341
810.166	29391
810.308	29440
810.45	29284
810.591	29288
810.733	29143
810.875	29071
811.016	29006
811.158	29037
811.299	29143
811.441	29322
811.582	29280
811.724	29041
811.865	29140
812.007	29022
812.148	29022
812.29	29273
812.431	29250
812.573	29478
812.714	29547
812.855	29634
812.997	29718
813.138	29923
813.279	29710
813.421	29737
813.562	29501
813.703	29452
813.845	29258
813.986	29075
814.127	28801
814.268	28820
814.41	28850
814.551	28725
814.692	28820
814.833	28869
814.974	28626
815.115	28752
815.256	28512
815.397	28672
815.539	28736
815.68	28615
815.821	28531
815.962	28702
816.103	28645
816.244	28436
816.385	28344
816.526	28386
816.666	28154
816.807	28006
816.948	28090
817.089	28204
817.23	28196
817.371	28090
817.512	28112
817.653	28128
817.793	28029
817.934	28219
818.075	28040
818.216	28166
818.356	28181
818.497	28013
818.638	27835
818.778	27861
818.919	27865
819.06	27876
819.2	28010
819.341	28265
819.481	28090
819.622	28131
819.762	28470
819.903	28360
820.043	28303
820.184	28295
820.324	28200
820.465	28333
820.605	28196
820.746	28196
820.886	28116
821.026	28234
821.167	28306
821.307	28329
821.447	28234
821.588	28120
821.728	27964
821.868	27766
822.008	27743
822.149	27610
822.289	27644
822.429	27416
822.569	27279
822.709	27355
822.849	27142
822.99	27131
823.13	27214
823.27	27104
823.41	26872
823.55	26800
823.69	26906
823.83	27001
823.97	26914
824.11	26781
824.25	26689
824.389	26807
824.529	26906
824.669	26731
824.809	26967
824.949	26960
825.089	26834
825.228	26804
825.368	26743
825.508	26663
825.648	26648
825.787	26796
825.927	26678
826.067	26724
826.206	26530
826.346	26762
826.485	26739
826.625	26621
826.765	26807
826.904	26598
827.044	26480
827.183	26503
827.323	26415
827.462	26465
827.601	26457
827.741	26374
827.88	26450
828.02	26267
828.159	26324
828.298	26374
828.437	26377
828.577	26282
828.716	26328
828.855	26324
828.994	25989
829.134	26100
829.273	26016
829.412	25909
829.551	25864
829.69	26016
829.829	26084
829.968	26058
830.107	26005
830.246	25989
830.385	26027
830.524	25936
830.663	25841
830.802	25852
830.941	25578
831.08	25658
831.219	25723
831.357	25856
831.496	25989
831.635	25677
831.774	25639
831.913	25605
832.051	25384
832.19	25422
832.329	25365
832.467	25221
832.606	25354
832.744	25270
832.883	25407
833.022	25232
833.16	25377
833.299	25362
833.437	25354
833.576	25438
833.714	25411
833.852	25403
833.991	25400
834.129	25445
834.267	25400
834.406	25457
834.544	25373
834.682	25415
834.821	25384
834.959	25457
835.097	25308
835.235	25422
835.373	25495
835.511	25392
835.65	25209
835.788	25316
835.926	25179
836.064	24966
836.202	25091
836.34	25240
836.478	25266
836.615	25160
836.753	25076
836.891	25278
837.029	25274
837.167	25179
837.305	25156
837.443	25114
837.58	25065
837.718	25171
837.856	25012
837.993	25038
838.131	25027
838.269	24882
838.406	24932
838.544	24943
838.681	24772
838.819	24684
838.956	24525
839.094	24612
839.231	24593
839.369	24684
839.506	24951
839.643	24802
839.781	24483
839.918	24467
840.055	24570
840.193	24353
840.33	24414
840.467	24418
840.604	24433
840.742	24749
840.879	24254
841.016	24353
841.153	24190
841.29	24585
841.427	24315
841.564	24407
841.701	24395
841.838	24410
841.975	24281
842.112	24350
842.249	24194
842.385	24243
842.522	24357
842.659	24228
842.796	24209
842.933	24167
843.069	24136
843.206	24117
843.343	24205
843.479	24178
843.616	24068
843.752	24121
843.889	24022
844.025	24076
844.162	23992
844.298	23984
844.435	23901
844.571	23878
844.708	23935
844.844	24072
844.98	24030
845.117	24011
845.253	23916
845.389	23866
845.525	23726
845.661	23927
845.798	23703
845.934	23722
846.07	23482
846.206	23661
846.342	23771
846.478	23672
846.614	23509
846.75	23265
846.886	23402
847.022	23406
847.158	23490
847.294	23455
847.429	23406
847.565	23376
847.701	23463
847.837	23067
847.972	22991
848.108	23143
848.244	23277
848.379	22889
848.515	22930
848.65	22942
848.786	23029
848.921	22999
849.057	23014
849.192	23124
849.328	23105
849.463	22927
849.598	22923
849.734	22911
849.869	22805
850.004	22828
850.14	22946
850.275	22843
850.41	22615
850.545	22672
850.68	22687
850.815	22793
850.95	22694
851.085	22889
851.22	22812
851.355	22809
851.49	22782
851.625	22702
851.76	22611
851.895	22687
852.03	22664
852.165	22805
852.299	22767
852.434	22892
852.569	22687
852.703	22793
852.838	22816
852.973	22752
853.107	22820
853.242	22649
853.376	22519
853.511	22417
853.645	22535
853.78	22557
853.914	22626
854.048	22379
854.183	22493
854.317	22641
854.451	22755
854.585	22538
854.72	22470
854.854	22630
854.988	22402
855.122	22584
855.256	22379
855.39	22611
855.524	22550
855.658	22550
855.792	22557
855.926	22577
856.06	22664
856.194	22618
856.327	22432
856.461	22531
856.595	22546
856.729	22561
856.862	22523
856.996	22554
857.13	22668
857.263	22577
857.397	22702
857.53	22622
857.664	22607
857.797	22694
857.931	22592
858.064	22577
858.197	22656
858.331	22493
858.464	22478
858.597	22352
858.731	22459
858.864	22447
858.997	22470
859.13	22481
859.263	22554
859.396	22519
859.529	22550
859.662	22424
859.795	22508
859.928	22527
860.061	22672
860.194	22691
860.327	22531
860.46	22379
860.592	22561
860.725	22752
860.858	22736
860.99	22573
861.123	22527
861.256	22557
861.388	22455
861.521	23273
861.653	22413
861.786	22390
861.918	22348
862.05	22538
862.183	22504
862.315	22421
862.447	22535
862.58	22440
862.712	22352
862.844	22219
862.976	22291
863.108	22352
863.24	22580
863.372	22090
863.504	22287
863.636	22265
863.768	22306
863.9	22261
864.032	22253
864.164	22055
864.296	22333
864.428	22299
864.559	22310
864.691	22265
864.823	22246
864.954	22120
865.086	22234
865.217	22040
865.349	22063
865.48	22112
865.612	22070
865.743	22188
865.875	22166
866.006	22082
866.137	22093
866.269	22097
866.4	22029
866.531	22006
866.662	22063
866.793	22090
866.924	22128
867.055	22032
867.186	22109
867.317	22040
867.448	21956
867.579	21964
867.71	21911
867.841	21975
867.972	22074
868.103	22051
868.233	22116
868.364	22044
868.495	22131
868.625	22257
868.756	22352
868.886	22249
869.017	22280
869.147	22356
869.278	22535
869.408	22322
869.539	22417
869.669	22398
869.799	22257
869.929	22417
870.06	22287
870.19	22573
870.32	22508
870.45	22736
870.58	22622
870.71	22706
870.84	22790
870.97	22596
871.1	22679
871.23	22866
871.36	22828
871.489	22706
871.619	22793
871.749	22923
871.879	22790
872.008	22972
872.138	22847
872.267	22812
872.397	22702
872.526	22679
872.656	22740
872.785	22675
872.915	22946
873.044	22949
873.173	23014
873.303	22835
873.432	22927
873.561	22904
873.69	22885
873.819	22782
873.948	22896
874.077	22965
874.206	22790
874.335	23056
874.464	23044
874.593	23109
874.722	23010
874.851	23147
874.979	23250
875.108	23052
875.237	23102
875.365	23056
875.494	23155
875.623	23105
875.751	23086
875.88	23178
876.008	23231
876.136	23292
876.265	23554
876.393	23589
876.521	23570
876.65	23512
876.778	23745
876.906	23474
877.034	23395
877.162	23497
877.29	23452
877.418	23459
877.546	23315
877.674	23448
877.802	23425
877.93	23429
878.058	23356
878.185	23303
878.313	23414
878.441	23364
878.568	23315
878.696	23273
878.824	23406
878.951	23455
879.079	23608
879.206	23741
879.333	23600
879.461	23360
879.588	23684
879.715	23680
879.842	23668
879.97	23516
880.097	23220
880.224	23223
880.351	23353
880.478	23318
880.605	23132
880.732	23292
880.859	23471
880.986	23239
881.112	23326
881.239	23086
881.366	22972
881.493	22953
881.619	22847
881.746	22721
881.872	22801
881.999	22831
882.125	22725
882.252	22858
882.378	22801
882.505	22923
882.631	22763
882.757	22577
882.883	22531
883.01	22497
883.136	22508
883.262	22451
883.388	22280
883.514	22523
883.64	22470
883.766	22303
883.892	22284
884.018	22287
884.143	22344
884.269	22489
884.395	22131
884.52	22124
884.646	22082
884.772	22128
884.897	21987
885.023	22101
885.148	22215
885.274	22196
885.399	22276
885.524	22128
885.65	22059
885.775	22166
885.9	22070
886.025	22329
886.15	22246
886.275	22067
886.4	21892
886.525	22086
886.65	22112
886.775	21994
886.9	22135
887.025	22367
887.149	22032
887.274	22002
887.399	21960
887.523	21968
887.648	21679
887.773	21625
887.897	21880
888.021	21903
888.146	21766
888.27	21987
888.395	22036
888.519	21873
888.643	21975
888.767	21949
888.891	21713
889.015	21633
889.139	21717
889.263	21618
889.387	21861
889.511	21800
889.635	21747
889.759	21606
889.883	21675
890.006	21747
890.13	21808
890.254	21561
890.377	21595
890.501	21310
890.624	21348
890.748	21492
890.871	21355
890.995	21268
891.118	21249
891.241	21218
891.364	21165
891.488	21382
891.611	21199
891.734	21203
891.857	21230
891.98	21176
892.103	21275
892.226	21313
892.349	21241
892.471	20956
892.594	21150
892.717	21173
892.839	21108
892.962	21062
893.085	21192
893.207	20998
893.33	20971
893.452	21047
893.575	21096
893.697	21058
893.819	21192
893.941	21332
894.064	21142
894.186	20880
894.308	21070
894.43	21203
894.552	21260
894.674	21370
894.796	20948
894.918	20960
895.04	21024
895.161	21207
895.283	21089
895.405	21032
895.526	21028
895.648	21081
895.769	21108
895.891	21074
896.012	21165
896.134	21203
896.255	21077
896.376	21028
896.498	21138
896.619	21108
896.74	21077
896.861	21142
896.982	21428
897.103	21443
897.224	21393
897.345	21272
897.466	21249
897.587	21268
897.708	21424
897.828	21287
897.949	21165
898.07	21104
898.19	21161
898.311	21291
898.431	21245
898.552	21226
898.672	21279
898.792	21382
898.913	21211
899.033	21207
899.153	21104
899.273	20937
899.393	21017
899.513	21081
899.633	21039
899.753	20948
899.873	20960
899.993	21020
900.113	20906
900.232	20979
900.352	20895
900.472	20864
900.591	20819
900.711	20739
900.83	20686
900.95	20834
901.069	20914
901.189	20511
901.308	20438
901.427	20427
901.546	20404
901.665	20423
901.784	20351
901.904	20229
902.023	20012
902.141	19936
902.26	19928
902.379	19989
902.498	19860
902.617	19765
902.735	19811
902.854	19799
902.973	19662
903.091	19563
903.21	19575
903.328	19556
903.446	19453
903.565	19327
903.683	19297
903.801	19228
903.919	19225
904.038	19126
904.156	19061
904.274	19266
904.392	19069
904.51	18939
904.627	19000
904.745	19171
904.863	19110
904.981	18954
905.098	18783
905.216	18772
905.334	18810
905.451	18760
905.569	18700
905.686	18696
905.803	18726
905.921	18589
906.038	18650
906.155	18646
906.272	18471
906.389	18502
906.506	18323
906.623	18330
906.74	18308
906.857	18140
906.974	18205
907.091	18346
907.208	18418
907.324	18384
907.441	18167
907.557	18030
907.674	18034
907.79	17904
907.907	18015
908.023	18053
908.139	17988
908.256	17927
908.372	17931
908.488	17832
908.604	17786
908.72	17615
908.836	17737
908.952	17767
909.068	17695
909.184	17824
909.3	17653
909.415	17741
909.531	17619
909.647	17436
909.762	17299
909.878	17395
909.993	17459
910.108	17387
910.224	17376
910.339	17448
910.454	17261
910.57	17242
910.685	17143
910.8	17444
910.915	17429
911.03	17124
911.145	16995
911.259	17113
911.374	16980
911.489	16934
911.604	16786
911.718	16755
911.833	16687
911.947	16599
912.062	16561
912.176	16713
912.291	16721
912.405	16702
912.519	16877
912.633	16972
912.748	16816
912.862	16698
912.976	16558
913.09	16474
913.204	16523
913.318	16535
913.431	16611
913.545	16649
913.659	16656
913.772	16508
913.886	16371
914	16333
914.113	16462
914.226	16421
914.34	16424
914.453	16238
914.566	16417
914.68	16211
914.793	16143
914.906	15968
915.019	15945
915.132	15880
915.245	15956
915.358	15915
915.47	15983
915.583	16002
915.696	15975
915.809	16048
915.921	16074
916.034	15827
916.146	15861
916.259	15743
916.371	15766
916.483	15945
916.595	15812
916.708	15797
916.82	15751
916.932	15724
917.044	15656
917.156	15724
917.268	15568
917.38	15443
917.491	15561
917.603	15561
917.715	15576
917.826	15652
917.938	15401
918.049	15367
918.161	15500
918.272	15717
918.384	15656
918.495	15447
918.606	15294
918.717	15264
918.828	15492
918.939	15321
919.05	15218
919.161	15188
919.272	15017
919.383	15131
919.494	15260
919.604	15507
919.715	15245
919.826	15195
919.936	15294
920.047	15439
920.157	15287
920.267	15428
920.378	15195
920.488	15161
920.598	15408
920.708	15500
920.818	15329
920.928	15374
921.038	15549
921.148	15542
921.258	15245
921.368	15036
921.477	14921
921.587	15058
921.697	14815
921.806	14986
921.916	14819
922.025	14697
922.134	14640
922.244	14617
922.353	14564
922.462	14514
922.571	14431
922.68	14229
922.789	14206
922.898	14176
923.007	14088
923.116	14206
923.224	14195
923.333	14256
923.442	14008
923.55	14024
923.659	14164
923.767	14065
923.876	13925
923.984	14081
924.092	13902
924.201	13932
924.309	13974
924.417	13993
924.525	13830
924.633	13887
924.741	14765
924.849	13632
924.956	13738
925.064	13643
925.172	13521
925.279	13518
925.387	13696
925.494	13590
925.602	13666
925.709	13609
925.816	13491
925.924	13491
926.031	13655
926.138	13495
926.245	13632
926.352	13358
926.459	13556
926.566	13521
926.673	13400
926.779	13339
926.886	13320
926.993	13236
927.099	13190
927.206	13072
927.312	13190
927.419	13206
927.525	13050
927.631	13217
927.737	13004
927.843	12996
927.95	12863
928.056	12935
928.162	12932
928.267	12958
928.373	13605
928.479	13012
928.585	12779
928.69	12852
928.796	12852
928.901	12749
929.007	12681
929.112	12844
929.218	12696
929.323	12665
929.428	12726
929.533	12810
929.638	12547
929.743	12604
929.848	12662
929.953	12593
930.058	12483
930.163	12334
930.267	12441
930.372	12471
930.477	12319
930.581	12528
930.685	12304
930.79	12239
930.894	12281
930.998	12129
931.103	12254
931.207	11942
931.311	11851
931.415	11790
931.519	11581
931.623	11570
