Data from test_V78500241_1634.txt Node
Date: Fri Mar 25 15:53:07 CST 2022
User: usil
Spectrometer: V785-0024
Trigger mode: 0
Integration Time (sec): 4.000000E-1
Scans to average: 1
Nonlinearity correction enabled: false
Boxcar width: 0
Storing dark spectrum: false
XAxis mode: Wavelengths
Number of Pixels in Spectrum: 1024
>>>>>Begin Spectral Data<<<<<
801.071	28371
801.214	28337
801.356	28105
801.499	27819
801.641	27953
801.783	27934
801.926	27819
802.068	27838
802.211	27705
802.353	27762
802.496	27576
802.638	27488
802.78	27545
802.923	27549
803.065	27561
803.208	27496
803.35	27572
803.492	27606
803.635	27789
803.777	27625
803.919	27759
804.061	28158
804.204	27831
804.346	27694
804.488	27660
804.63	27857
804.773	27690
804.915	27850
805.057	27937
805.199	27861
805.341	27884
805.483	28025
805.626	27945
805.768	27770
805.91	28006
806.052	27953
806.194	27713
806.336	28128
806.478	27998
806.62	27842
806.762	28036
806.904	28074
807.046	28474
807.188	28424
807.33	28318
807.472	28554
807.614	28371
807.756	28409
807.898	28280
808.04	28135
808.182	28314
808.324	28234
808.465	28310
808.607	28489
808.749	28557
808.891	28557
809.033	28805
809.174	28580
809.316	28542
809.458	28649
809.6	28527
809.741	28767
809.883	28850
810.025	28923
810.166	28927
810.308	28976
810.45	28824
810.591	28778
810.733	28611
810.875	28630
811.016	28527
811.158	28538
811.299	28702
811.441	28721
811.582	28835
811.724	28592
811.865	28656
812.007	28618
812.148	28634
812.29	28641
812.431	28698
812.573	28919
812.714	29033
812.855	29170
812.997	29235
813.138	29402
813.279	29143
813.421	29204
813.562	29064
813.703	28987
813.845	28896
813.986	28519
814.127	28356
814.268	28265
814.41	28398
814.551	28173
814.692	28386
814.833	28219
814.974	28109
815.115	28322
815.256	28147
815.397	28223
815.539	28131
815.68	28112
815.821	27854
815.962	28021
816.103	28044
816.244	28086
816.385	28048
816.526	27838
816.666	27732
816.807	27583
816.948	27717
817.089	27766
817.23	27629
817.371	27595
817.512	27686
817.653	27549
817.793	27389
817.934	27496
818.075	27641
818.216	27507
818.356	27504
818.497	27405
818.638	27302
818.778	27447
818.919	27427
819.06	27424
819.2	27614
819.341	27450
819.481	27504
819.622	27663
819.762	27945
819.903	27770
820.043	27850
820.184	27793
820.324	27785
820.465	27850
820.605	27663
820.746	27774
820.886	27587
821.026	27717
821.167	27785
821.307	27720
821.447	27751
821.588	27496
821.728	27382
821.868	27264
822.008	26982
822.149	27066
822.289	27001
822.429	26769
822.569	26823
822.709	26667
822.849	26667
822.99	26568
823.13	26469
823.27	26503
823.41	26461
823.55	26366
823.69	26393
823.83	26514
823.97	26317
824.11	26145
824.25	26119
824.389	26183
824.529	26362
824.669	26389
824.809	26419
824.949	26457
825.089	26259
825.228	26092
825.368	26134
825.508	26069
825.648	26161
825.787	26210
825.927	26161
826.067	26016
826.206	26142
826.346	26039
826.485	26130
826.625	26103
826.765	26157
826.904	26126
827.044	25906
827.183	25978
827.323	25780
827.462	25864
827.601	25830
827.741	25845
827.88	25719
828.02	25616
828.159	25765
828.298	25841
828.437	25944
828.577	25647
828.716	25947
828.855	25693
828.994	25594
829.134	25632
829.273	25521
829.412	25373
829.551	25479
829.69	25559
829.829	25533
829.968	25548
830.107	25559
830.246	25491
830.385	25430
830.524	25358
830.663	25365
830.802	25183
830.941	25133
831.08	25129
831.219	25168
831.357	25107
831.496	25255
831.635	25084
831.774	25019
831.913	25046
832.051	24863
832.19	24787
832.329	24867
832.467	24798
832.606	24779
832.744	24745
832.883	24631
833.022	24833
833.16	24772
833.299	24783
833.437	24768
833.576	24856
833.714	24875
833.852	24932
833.991	24863
834.129	24970
834.267	24981
834.406	24886
834.544	24958
834.682	24901
834.821	24894
834.959	24958
835.097	24772
835.235	24837
835.373	24833
835.511	24856
835.65	24673
835.788	24741
835.926	24563
836.064	24433
836.202	24479
836.34	24654
836.478	24817
836.615	24566
836.753	24696
836.891	24726
837.029	24844
837.167	24646
837.305	24486
837.443	24532
837.58	24620
837.718	24601
837.856	24563
837.993	24498
838.131	24502
838.269	24338
838.406	24403
838.544	24258
838.681	24117
838.819	24079
838.956	23954
839.094	23859
839.231	24045
839.369	24129
839.506	24292
839.643	24239
839.781	23882
839.918	24083
840.055	23988
840.193	23904
840.33	23935
840.467	23870
840.604	23901
840.742	24140
840.879	23836
841.016	23817
841.153	23798
841.29	24038
841.427	23912
841.564	23863
841.701	23984
841.838	23931
841.975	23745
842.112	23771
842.249	23718
842.385	23638
842.522	23923
842.659	23722
842.796	23482
842.933	23463
843.069	23558
843.206	23623
843.343	23707
843.479	23558
843.616	23592
843.752	23288
843.889	23406
844.025	23646
844.162	23376
844.298	23528
844.435	23299
844.571	23315
844.708	23425
844.844	23543
844.98	23524
845.117	23573
845.253	23284
845.389	23170
845.525	23326
845.661	23360
845.798	23060
845.934	23113
846.07	23204
846.206	23315
846.342	23216
846.478	23083
846.614	22809
846.75	22759
846.886	22900
847.022	22938
847.158	22980
847.294	23006
847.429	22923
847.565	22797
847.701	23090
847.837	22554
847.972	22508
848.108	22691
848.244	22542
848.379	22550
848.515	22447
848.65	22402
848.786	22409
848.921	22546
849.057	22588
849.192	22409
849.328	22443
849.463	22432
849.598	22375
849.734	22413
849.869	22192
850.004	22124
850.14	22261
850.275	22348
850.41	22147
850.545	22177
850.68	22139
850.815	22261
850.95	22257
851.085	22303
851.22	22337
851.355	22158
851.49	22230
851.625	22196
851.76	22116
851.895	22135
852.03	22116
852.165	22177
852.299	22223
852.434	22382
852.569	22234
852.703	22192
852.838	22272
852.973	22257
853.107	22303
853.242	22093
853.376	22040
853.511	21994
853.645	21953
853.78	22196
853.914	22090
854.048	22090
854.183	21949
854.317	22040
854.451	22249
854.585	22051
854.72	22048
854.854	22032
854.988	21994
855.122	22013
855.256	21880
855.39	21998
855.524	22051
855.658	22051
855.792	22105
855.926	22059
856.06	22116
856.194	22082
856.327	22029
856.461	22032
856.595	21949
856.729	22063
856.862	22105
856.996	21975
857.13	22150
857.263	22101
857.397	22059
857.53	22067
857.664	22078
857.797	22036
857.931	22116
858.064	21945
858.197	22154
858.331	21983
858.464	21918
858.597	21956
858.731	21941
858.864	22017
858.997	22029
859.13	21968
859.263	22051
859.396	22120
859.529	21941
859.662	22063
859.795	22017
859.928	21956
860.061	22242
860.194	22306
860.327	21994
860.46	22048
860.592	22276
860.725	22143
860.858	22147
860.99	22051
861.123	21964
861.256	21956
861.388	22109
861.521	22721
861.653	21827
861.786	21728
861.918	21907
862.05	21873
862.183	21975
862.315	21998
862.447	21979
862.58	21998
862.712	21774
862.844	21595
862.976	21732
863.108	21835
863.24	22048
863.372	21717
863.504	21743
863.636	21709
863.768	21759
863.9	21720
864.032	21709
864.164	21751
864.296	21690
864.428	21884
864.559	21793
864.691	21797
864.823	21698
864.954	21739
865.086	21679
865.217	21625
865.349	21614
865.48	21553
865.612	21720
865.743	21816
865.875	21660
866.006	21580
866.137	21610
866.269	21599
866.4	21526
866.531	21663
866.662	21641
866.793	21591
866.924	21576
867.055	21583
867.186	21618
867.317	21603
867.448	21466
867.579	21549
867.71	21576
867.841	21462
867.972	21492
868.103	21561
868.233	21488
868.364	21591
868.495	21644
868.625	21865
868.756	21918
868.886	21694
869.017	21705
869.147	22036
869.278	21846
869.408	21819
869.539	21762
869.669	21831
869.799	21835
869.929	21960
870.06	21911
870.19	22185
870.32	21972
870.45	22177
870.58	22143
870.71	22169
870.84	22215
870.97	22051
871.1	22230
871.23	22280
871.36	22318
871.489	22238
871.619	22344
871.749	22382
871.879	22402
872.008	22493
872.138	22390
872.267	22394
872.397	22284
872.526	22192
872.656	22276
872.785	22166
872.915	22432
873.044	22489
873.173	22455
873.303	22421
873.432	22519
873.561	22504
873.69	22519
873.819	22398
873.948	22474
874.077	22352
874.206	22440
874.335	22421
874.464	22538
874.593	22721
874.722	22645
874.851	22618
874.979	22664
875.108	22649
875.237	22542
875.365	22512
875.494	22577
875.623	22805
875.751	22519
875.88	22664
876.008	22820
876.136	22881
876.265	23121
876.393	23143
876.521	23071
876.65	23010
876.778	23014
876.906	22999
877.034	22923
877.162	22968
877.29	22961
877.418	22991
877.546	22900
877.674	22972
877.802	22930
877.93	22946
878.058	23033
878.185	22812
878.313	22965
878.441	22793
878.568	22778
878.696	22919
878.824	23048
878.951	23098
879.079	23185
879.206	23250
879.333	23136
879.461	22987
879.588	22980
879.715	23189
879.842	23258
879.97	23128
880.097	22801
880.224	22725
880.351	22782
880.478	22755
880.605	22675
880.732	22710
880.859	23014
880.986	22816
881.112	22824
881.239	22523
881.366	22702
881.493	22398
881.619	22348
881.746	22428
881.872	22417
881.999	22363
882.125	22382
882.252	22341
882.378	22371
882.505	22504
882.631	22234
882.757	22040
882.883	22101
883.01	22036
883.136	22006
883.262	21869
883.388	21770
883.514	22040
883.64	22097
883.766	21857
883.892	21743
884.018	21789
884.143	22067
884.269	21892
884.395	21762
884.52	21660
884.646	21641
884.772	21606
884.897	21583
885.023	21553
885.148	21846
885.274	21876
885.399	21838
885.524	21686
885.65	21755
885.775	21660
885.9	21641
886.025	21846
886.15	21660
886.275	21781
886.4	21618
886.525	21610
886.65	21713
886.775	21564
886.9	21675
887.025	21751
887.149	21705
887.274	21321
887.399	21500
887.523	21405
887.648	21325
887.773	21401
887.897	21504
888.021	21389
888.146	21462
888.27	21526
888.395	21580
888.519	21542
888.643	21477
888.767	21576
888.891	21386
889.015	21245
889.139	21195
889.263	21249
889.387	21264
889.511	21473
889.635	21450
889.759	21131
889.883	21138
890.006	21222
890.13	21317
890.254	21104
890.377	21077
890.501	21028
890.624	20948
890.748	21062
890.871	20857
890.995	20758
891.118	20697
891.241	20746
891.364	20701
891.488	20948
891.611	20815
891.734	20864
891.857	20727
891.98	20845
892.103	20853
892.226	20811
892.349	20765
892.471	20503
892.594	20727
892.717	20682
892.839	20625
892.962	20769
893.085	20758
893.207	20735
893.33	20708
893.452	20663
893.575	20762
893.697	20651
893.819	20891
893.941	20864
894.064	20792
894.186	20648
894.308	20594
894.43	20785
894.552	20693
894.674	20788
894.796	20575
894.918	20556
895.04	20613
895.161	20743
895.283	20705
895.405	20598
895.526	20750
895.648	20568
895.769	20800
895.891	20773
896.012	20804
896.134	20632
896.255	20632
896.376	20655
896.498	20617
896.619	20629
896.74	20701
896.861	20785
896.982	21119
897.103	21138
897.224	21028
897.345	20883
897.466	20788
897.587	20849
897.708	21058
897.828	20921
897.949	20830
898.07	20632
898.19	20804
898.311	20956
898.431	20887
898.552	20845
898.672	20975
898.792	20998
898.913	20838
899.033	20769
899.153	20655
899.273	20678
899.393	20632
899.513	20705
899.633	20670
899.753	20667
899.873	20518
899.993	20697
900.113	20518
900.232	20499
900.352	20465
900.472	20465
900.591	20366
900.711	20374
900.83	20324
900.95	20480
901.069	20415
901.189	20267
901.308	20050
901.427	19989
901.546	19989
901.665	19986
901.784	19951
901.904	19750
902.023	19738
902.141	19544
902.26	19594
902.379	19548
902.498	19480
902.617	19453
902.735	19540
902.854	19335
902.973	19419
903.091	19164
903.21	19156
903.328	19171
903.446	19088
903.565	19069
903.683	19000
903.801	18764
903.919	18966
904.038	18871
904.156	18772
904.274	18806
904.392	18616
904.51	18688
904.627	18646
904.745	18730
904.863	18757
904.981	18490
905.098	18330
905.216	18338
905.334	18422
905.451	18399
905.569	18342
905.686	18277
905.803	18410
905.921	18155
906.038	18285
906.155	18155
906.272	18095
906.389	18057
906.506	17901
906.623	18079
906.74	18011
906.857	17783
906.974	17843
907.091	17920
907.208	18110
907.324	17958
907.441	17802
907.557	17611
907.674	17642
907.79	17592
907.907	17524
908.023	17691
908.139	17657
908.256	17573
908.372	17391
908.488	17448
908.604	17322
908.72	17284
908.836	17315
908.952	17391
909.068	17318
909.184	17520
909.3	17254
909.415	17334
909.531	17315
909.647	17014
909.762	17128
909.878	17048
909.993	16972
910.108	16911
910.224	17041
910.339	16972
910.454	16889
910.57	16835
910.685	16580
910.8	17006
910.915	16923
911.03	16816
911.145	16717
911.259	16577
911.374	16565
911.489	16588
911.604	16440
911.718	16367
911.833	16375
911.947	16299
912.062	16268
912.176	16402
912.291	16466
912.405	16284
912.519	16611
912.633	16558
912.748	16344
912.862	16337
912.976	16147
913.09	16173
913.204	16124
913.318	16207
913.431	16234
913.545	16234
913.659	16280
913.772	16036
913.886	16044
914	15953
914.113	15998
914.226	16059
914.34	16021
914.453	15892
914.566	16013
914.68	15842
914.793	15747
914.906	15675
915.019	15564
915.132	15466
915.245	15538
915.358	15564
915.47	15591
915.583	15530
915.696	15614
915.809	15698
915.921	15656
916.034	15420
916.146	15481
916.259	15458
916.371	15606
916.483	15424
916.595	15382
916.708	15336
916.82	15393
916.932	15245
917.044	15408
917.156	15329
917.268	15131
917.38	15237
917.491	15207
917.603	15260
917.715	15180
917.826	15192
917.938	15184
918.049	15047
918.161	15142
918.272	15233
918.384	15218
918.495	15112
918.606	14998
918.717	14834
918.828	15005
918.939	14895
919.05	14819
919.161	14952
919.272	14720
919.383	14674
919.494	14941
919.604	15203
919.715	14887
919.826	14819
919.936	14815
920.047	14963
920.157	14933
920.267	15024
920.378	14918
920.488	14823
920.598	15001
920.708	15218
920.818	14971
920.928	15062
921.038	15203
921.148	15039
921.258	14807
921.368	14792
921.477	14648
921.587	14613
921.697	14438
921.806	14564
921.916	14431
922.025	14381
922.134	14298
922.244	14240
922.353	14191
922.462	14138
922.571	14039
922.68	13932
922.789	13826
922.898	13944
923.007	13830
923.116	13826
923.224	13811
923.333	13776
923.442	13814
923.55	13700
923.659	13830
923.767	13776
923.876	13662
923.984	13769
924.092	13548
924.201	13647
924.309	13670
924.417	13639
924.525	13578
924.633	13632
924.741	14355
924.849	13438
924.956	13430
925.064	13255
925.172	13171
925.279	13255
925.387	13331
925.494	13282
925.602	13430
925.709	13312
925.816	13308
925.924	13236
926.031	13312
926.138	13209
926.245	13373
926.352	13190
926.459	13206
926.566	13335
926.673	13168
926.779	13072
926.886	13061
926.993	12943
927.099	12863
927.206	12844
927.312	12886
927.419	12852
927.525	12859
927.631	12916
927.737	12650
927.843	12715
927.95	12589
928.056	12700
928.162	12711
928.267	12745
928.373	13411
928.479	12700
928.585	12517
928.69	12658
928.796	12684
928.901	12494
929.007	12441
929.112	12452
929.218	12616
929.323	12517
929.428	12384
929.533	12612
929.638	12262
929.743	12376
929.848	12395
929.953	12357
930.058	12262
930.163	12095
930.267	12171
930.372	12209
930.477	12060
930.581	12300
930.685	12095
930.79	11939
930.894	12011
930.998	11988
931.103	12140
931.207	11748
931.311	11741
931.415	11562
931.519	11372
931.623	11360
