Data from test_V78500241_2086.txt Node
Date: Fri Mar 25 15:56:15 CST 2022
User: usil
Spectrometer: V785-0024
Trigger mode: 0
Integration Time (sec): 4.000000E-1
Scans to average: 1
Nonlinearity correction enabled: false
Boxcar width: 0
Storing dark spectrum: false
XAxis mode: Wavelengths
Number of Pixels in Spectrum: 1024
>>>>>Begin Spectral Data<<<<<
801.071	29341
801.214	29261
801.356	28968
801.499	29018
801.641	28801
801.783	28774
801.926	28847
802.068	28908
802.211	28767
802.353	28774
802.496	28546
802.638	28523
802.78	28413
802.923	28375
803.065	28584
803.208	28367
803.35	28691
803.492	28824
803.635	28687
803.777	28584
803.919	28778
804.061	29079
804.204	28835
804.346	28774
804.488	28877
804.63	28801
804.773	28717
804.915	28854
805.057	28908
805.199	28801
805.341	28987
805.483	29010
805.626	29003
805.768	28850
805.91	29128
806.052	29025
806.194	28976
806.336	28968
806.478	29037
806.62	28972
806.762	28995
806.904	29174
807.046	29436
807.188	29383
807.33	29417
807.472	29433
807.614	29375
807.756	29467
807.898	29322
808.04	29265
808.182	29265
808.324	29189
808.465	29395
808.607	29395
808.749	29653
808.891	29813
809.033	29885
809.174	29862
809.316	29767
809.458	29737
809.6	29585
809.741	29836
809.883	29847
810.025	30011
810.166	30030
810.308	29870
810.45	29946
810.591	29950
810.733	29779
810.875	29790
811.016	29524
811.158	29748
811.299	29642
811.441	29824
811.582	29912
811.724	29733
811.865	29764
812.007	29748
812.148	29687
812.29	29783
812.431	29882
812.573	30041
812.714	30015
812.855	30133
812.997	30346
813.138	30505
813.279	30353
813.421	30300
813.562	30220
813.703	30083
813.845	30041
813.986	29870
814.127	29512
814.268	29474
814.41	29535
814.551	29334
814.692	29589
814.833	29406
814.974	29436
815.115	29444
815.256	29315
815.397	29330
815.539	29334
815.68	29227
815.821	29220
815.962	29140
816.103	29193
816.244	29037
816.385	29094
816.526	29033
816.666	28858
816.807	28759
816.948	28801
817.089	28987
817.23	28847
817.371	28850
817.512	28774
817.653	28736
817.793	28771
817.934	28793
818.075	28763
818.216	28797
818.356	28668
818.497	28694
818.638	28538
818.778	28440
818.919	28443
819.06	28645
819.2	28675
819.341	28885
819.481	28752
819.622	28927
819.762	29041
819.903	29022
820.043	29162
820.184	28904
820.324	28976
820.465	28930
820.605	28869
820.746	28850
820.886	28847
821.026	28839
821.167	28812
821.307	28843
821.447	28805
821.588	28653
821.728	28596
821.868	28398
822.008	28375
822.149	28360
822.289	28398
822.429	28078
822.569	27956
822.709	28006
822.849	27774
822.99	27816
823.13	27724
823.27	27728
823.41	27671
823.55	27435
823.69	27561
823.83	27660
823.97	27545
824.11	27424
824.25	27336
824.389	27500
824.529	27519
824.669	27492
824.809	27637
824.949	27519
825.089	27534
825.228	27534
825.368	27336
825.508	27363
825.648	27340
825.787	27306
825.927	27488
826.067	27230
826.206	27317
826.346	27439
826.485	27355
826.625	27416
826.765	27450
826.904	27553
827.044	26998
827.183	27131
827.323	27245
827.462	27085
827.601	27036
827.741	27093
827.88	27066
828.02	26986
828.159	26933
828.298	27051
828.437	27192
828.577	26925
828.716	27135
828.855	26960
828.994	26769
829.134	26815
829.273	26762
829.412	26708
829.551	26697
829.69	26674
829.829	26861
829.968	26765
830.107	26762
830.246	26750
830.385	26765
830.524	26632
830.663	26450
830.802	26545
830.941	26393
831.08	26309
831.219	26404
831.357	26412
831.496	26579
831.635	26343
831.774	26225
831.913	26294
832.051	26240
832.19	26225
832.329	26145
832.467	26088
832.606	25921
832.744	25875
832.883	26016
833.022	26077
833.16	26001
833.299	26081
833.437	26069
833.576	26142
833.714	25978
833.852	26221
833.991	26142
834.129	26130
834.267	26043
834.406	25966
834.544	26180
834.682	26145
834.821	26081
834.959	26343
835.097	26005
835.235	26206
835.373	26103
835.511	26058
835.65	25978
835.788	25966
835.926	25833
836.064	25685
836.202	25696
836.34	25890
836.478	25970
836.615	25822
836.753	25818
836.891	25978
837.029	25906
837.167	25772
837.305	25860
837.443	25871
837.58	25769
837.718	25837
837.856	25822
837.993	25689
838.131	25830
838.269	25658
838.406	25689
838.544	25635
838.681	25365
838.819	25206
838.956	25278
839.094	25194
839.231	25091
839.369	25426
839.506	25601
839.643	25487
839.781	25278
839.918	25038
840.055	25183
840.193	25152
840.33	25080
840.467	25095
840.604	25232
840.742	25278
840.879	24973
841.016	24863
841.153	24939
841.29	25213
841.427	25095
841.564	25061
841.701	25008
841.838	25099
841.975	25057
842.112	25046
842.249	24924
842.385	24878
842.522	25148
842.659	24905
842.796	24707
842.933	24776
843.069	24768
843.206	24817
843.343	24867
843.479	24779
843.616	24878
843.752	24707
843.889	24703
844.025	24707
844.162	24612
844.298	24700
844.435	24726
844.571	24574
844.708	24700
844.844	24726
844.98	24840
845.117	24711
845.253	24551
845.389	24399
845.525	24547
845.661	24464
845.798	24372
845.934	24525
846.07	24338
846.206	24281
846.342	24441
846.478	24235
846.614	24216
846.75	24053
846.886	24152
847.022	24068
847.158	23954
847.294	24068
847.429	24049
847.565	24045
847.701	24285
847.837	23805
847.972	23809
848.108	23798
848.244	23813
848.379	23672
848.515	23596
848.65	23649
848.786	23642
848.921	23623
849.057	23866
849.192	23649
849.328	23657
849.463	23783
849.598	23646
849.734	23539
849.869	23554
850.004	23429
850.14	23440
850.275	23421
850.41	23421
850.545	23315
850.68	23334
850.815	23387
850.95	23311
851.085	23486
851.22	23512
851.355	23486
851.49	23307
851.625	23326
851.76	23307
851.895	23208
852.03	23326
852.165	23345
852.299	23379
852.434	23528
852.569	23398
852.703	23334
852.838	23512
852.973	23474
853.107	23524
853.242	23356
853.376	23174
853.511	23014
853.645	23155
853.78	23311
853.914	23246
854.048	23220
854.183	23071
854.317	23372
854.451	23353
854.585	23242
854.72	23246
854.854	23273
854.988	23102
855.122	23280
855.256	23079
855.39	23105
855.524	23250
855.658	23288
855.792	23212
855.926	23200
856.06	23326
856.194	23322
856.327	23284
856.461	23311
856.595	23090
856.729	23227
856.862	23269
856.996	23330
857.13	23292
857.263	23410
857.397	23235
857.53	23216
857.664	23322
857.797	23258
857.931	23391
858.064	23189
858.197	23326
858.331	23147
858.464	23242
858.597	23033
858.731	23170
858.864	23185
858.997	23033
859.13	23155
859.263	23109
859.396	23364
859.529	23174
859.662	23136
859.795	23166
859.928	23220
860.061	23410
860.194	23410
860.327	23204
860.46	23200
860.592	23334
860.725	23318
860.858	23433
860.99	23204
861.123	23064
861.256	23181
861.388	23220
861.521	23965
861.653	23029
861.786	23079
861.918	23037
862.05	23048
862.183	23162
862.315	23048
862.447	23166
862.58	23136
862.712	22980
862.844	22885
862.976	22904
863.108	22934
863.24	23376
863.372	22816
863.504	22877
863.636	22915
863.768	22953
863.9	22873
864.032	22710
864.164	22778
864.296	22904
864.428	22984
864.559	22930
864.691	22869
864.823	22812
864.954	22965
865.086	22866
865.217	22774
865.349	22694
865.48	22702
865.612	22797
865.743	22778
865.875	22706
866.006	22713
866.137	22820
866.269	22668
866.4	22725
866.531	22649
866.662	22630
866.793	22550
866.924	22641
867.055	22645
867.186	22683
867.317	22755
867.448	22641
867.579	22710
867.71	22588
867.841	22565
867.972	22759
868.103	22634
868.233	22691
868.364	22675
868.495	22816
868.625	22885
868.756	22995
868.886	22828
869.017	22991
869.147	23083
869.278	23052
869.408	22995
869.539	22942
869.669	23128
869.799	22957
869.929	23174
870.06	23147
870.19	23208
870.32	23311
870.45	23227
870.58	23364
870.71	23311
870.84	23330
870.97	23277
871.1	23360
871.23	23459
871.36	23531
871.489	23452
871.619	23573
871.749	23497
871.879	23478
872.008	23539
872.138	23600
872.267	23391
872.397	23459
872.526	23406
872.656	23459
872.785	23360
872.915	23509
873.044	23570
873.173	23581
873.303	23668
873.432	23589
873.561	23665
873.69	23623
873.819	23425
873.948	23551
874.077	23490
874.206	23486
874.335	23516
874.464	23573
874.593	23745
874.722	23809
874.851	23786
874.979	23794
875.108	23729
875.237	23459
875.365	23646
875.494	23668
875.623	23695
875.751	23775
875.88	23809
876.008	23775
876.136	23965
876.265	24049
876.393	24277
876.521	24190
876.65	24190
876.778	24171
876.906	24129
877.034	24057
877.162	24171
877.29	23973
877.418	24148
877.546	24026
877.674	24087
877.802	24121
877.93	24079
878.058	23980
878.185	23916
878.313	24053
878.441	24022
878.568	23908
878.696	24045
878.824	24003
878.951	24171
879.079	24334
879.206	24350
879.333	24330
879.461	24022
879.588	24129
879.715	24300
879.842	24262
879.97	24186
880.097	23931
880.224	23855
880.351	24018
880.478	23824
880.605	23893
880.732	23878
880.859	24079
880.986	23817
881.112	23878
881.239	23726
881.366	23554
881.493	23600
881.619	23474
881.746	23531
881.872	23452
881.999	23490
882.125	23311
882.252	23448
882.378	23452
882.505	23554
882.631	23197
882.757	23044
882.883	23227
883.01	23147
883.136	23155
883.262	22953
883.388	22938
883.514	23128
883.64	23071
883.766	23014
883.892	22805
884.018	22843
884.143	23155
884.269	23010
884.395	22900
884.52	22687
884.646	22687
884.772	22580
884.897	22717
885.023	22763
885.148	22892
885.274	22900
885.399	22900
885.524	22786
885.65	22672
885.775	22603
885.9	22835
886.025	22896
886.15	22820
886.275	22645
886.4	22687
886.525	22577
886.65	22626
886.775	22466
886.9	22862
887.025	23041
887.149	22694
887.274	22607
887.399	22443
887.523	22497
887.648	22363
887.773	22386
887.897	22706
888.021	22516
888.146	22352
888.27	22527
888.395	22641
888.519	22417
888.643	22504
888.767	22481
888.891	22390
889.015	22299
889.139	22413
889.263	22284
889.387	22325
889.511	22478
889.635	22459
889.759	22284
889.883	22265
890.006	22276
890.13	22333
890.254	22192
890.377	22181
890.501	22032
890.624	21964
890.748	22162
890.871	21934
890.995	21835
891.118	21701
891.241	21876
891.364	21694
891.488	21945
891.611	21812
891.734	21800
891.857	21911
891.98	21865
892.103	21987
892.226	21778
892.349	21694
892.471	21576
892.594	21671
892.717	21838
892.839	21701
892.962	21618
893.085	21766
893.207	21705
893.33	21561
893.452	21542
893.575	21698
893.697	21644
893.819	21827
893.941	21778
894.064	21846
894.186	21644
894.308	21568
894.43	21857
894.552	21892
894.674	21656
894.796	21614
894.918	21747
895.04	21572
895.161	21766
895.283	21660
895.405	21629
895.526	21576
895.648	21679
895.769	21686
895.891	21644
896.012	21675
896.134	21652
896.255	21633
896.376	21633
896.498	21686
896.619	21648
896.74	21591
896.861	21682
896.982	21972
897.103	22128
897.224	21949
897.345	21797
897.466	21747
897.587	21854
897.708	22006
897.828	21781
897.949	21857
898.07	21739
898.19	21743
898.311	21907
898.431	21717
898.552	21819
898.672	21808
898.792	21907
898.913	21747
899.033	21599
899.153	21618
899.273	21481
899.393	21557
899.513	21564
899.633	21481
899.753	21667
899.873	21557
899.993	21705
900.113	21367
900.232	21553
900.352	21473
900.472	21329
900.591	21329
900.711	21294
900.83	21294
900.95	21348
901.069	21507
901.189	21256
901.308	20933
901.427	20948
901.546	20975
901.665	20819
901.784	20830
901.904	20823
902.023	20678
902.141	20408
902.26	20423
902.379	20366
902.498	20446
902.617	20313
902.735	20465
902.854	20237
902.973	20233
903.091	20088
903.21	20024
903.328	20100
903.446	19871
903.565	19826
903.683	19757
903.801	19639
903.919	19868
904.038	19784
904.156	19620
904.274	19605
904.392	19537
904.51	19480
904.627	19548
904.745	19609
904.863	19571
904.981	19392
905.098	19308
905.216	19137
905.334	19251
905.451	19228
905.569	19255
905.686	19308
905.803	19202
905.921	18993
906.038	19072
906.155	19053
906.272	18947
906.389	18973
906.506	18730
906.623	18715
906.74	18741
906.857	18620
906.974	18608
907.091	18707
907.208	18791
907.324	18814
907.441	18574
907.557	18506
907.674	18483
907.79	18296
907.907	18441
908.023	18346
908.139	18433
908.256	18258
908.372	18323
908.488	18353
908.604	18235
908.72	18224
908.836	18258
908.952	18114
909.068	18247
909.184	18228
909.3	18152
909.415	18281
909.531	18182
909.647	17878
909.762	17843
909.878	17847
909.993	17828
910.108	17874
910.224	17893
910.339	17821
910.454	17783
910.57	17676
910.685	17433
910.8	17863
910.915	17752
911.03	17592
911.145	17573
911.259	17554
911.374	17455
911.489	17406
911.604	17341
911.718	17155
911.833	17162
911.947	17117
912.062	17037
912.176	17143
912.291	17235
912.405	17113
912.519	17360
912.633	17410
912.748	17193
912.862	17155
912.976	16904
913.09	16900
913.204	17025
913.318	16885
913.431	17045
913.545	16957
913.659	17155
913.772	16782
913.886	16869
914	16869
914.113	16869
914.226	16904
914.34	16828
914.453	16588
914.566	16774
914.68	16618
914.793	16558
914.906	16428
915.019	16344
915.132	16207
915.245	16379
915.358	16306
915.47	16268
915.583	16234
915.696	16337
915.809	16344
915.921	16413
916.034	16261
916.146	16181
916.259	16310
916.371	16257
916.483	16223
916.595	16173
916.708	16090
916.82	16032
916.932	16074
917.044	15979
917.156	16086
917.268	15922
917.38	16071
917.491	15846
917.603	15918
917.715	16029
917.826	15953
917.938	15903
918.049	15644
918.161	15831
918.272	16025
918.384	15991
918.495	15842
918.606	15663
918.717	15682
918.828	15717
918.939	15671
919.05	15519
919.161	15599
919.272	15416
919.383	15534
919.494	15633
919.604	15827
919.715	15515
919.826	15557
919.936	15584
920.047	15656
920.157	15576
920.267	15755
920.378	15637
920.488	15519
920.598	15793
920.708	15854
920.818	15835
920.928	15622
921.038	15835
921.148	15793
921.258	15614
921.368	15534
921.477	15363
921.587	15283
921.697	15249
921.806	15237
921.916	15131
922.025	15074
922.134	14895
922.244	14891
922.353	14910
922.462	14887
922.571	14765
922.68	14640
922.789	14621
922.898	14564
923.007	14632
923.116	14621
923.224	14530
923.333	14518
923.442	14415
923.55	14480
923.659	14347
923.767	14427
923.876	14355
923.984	14431
924.092	14183
924.201	14374
924.309	14294
924.417	14263
924.525	14240
924.633	14240
924.741	15093
924.849	14005
924.956	14229
925.064	13963
925.172	13879
925.279	13883
925.387	13967
925.494	13982
925.602	14069
925.709	14050
925.816	13875
925.924	13890
926.031	13955
926.138	13932
926.245	13894
926.352	13849
926.459	13936
926.566	13921
926.673	13845
926.779	13632
926.886	13670
926.993	13559
927.099	13487
927.206	13403
927.312	13430
927.419	13540
927.525	13483
927.631	13358
927.737	13327
927.843	13369
927.95	13263
928.056	13320
928.162	13244
928.267	13377
928.373	13902
928.479	13335
928.585	13114
928.69	13168
928.796	13320
928.901	13107
929.007	12954
929.112	13099
929.218	13034
929.323	12954
929.428	12897
929.533	13099
929.638	12787
929.743	12935
929.848	12871
929.953	12951
930.058	12738
930.163	12646
930.267	12658
930.372	12848
930.477	12608
930.581	12825
930.685	12673
930.79	12506
930.894	12566
930.998	12399
931.103	12612
931.207	12235
931.311	12228
931.415	12117
931.519	11840
931.623	11874
