Data from test_V78500241_455.txt Node
Date: Fri Mar 25 15:44:57 CST 2022
User: usil
Spectrometer: V785-0024
Trigger mode: 0
Integration Time (sec): 4.000000E-1
Scans to average: 1
Nonlinearity correction enabled: false
Boxcar width: 0
Storing dark spectrum: false
XAxis mode: Wavelengths
Number of Pixels in Spectrum: 1024
>>>>>Begin Spectral Data<<<<<
801.071	28379
801.214	28333
801.356	28070
801.499	28067
801.641	27956
801.783	27994
801.926	28040
802.068	27987
802.211	27808
802.353	27797
802.496	27606
802.638	27679
802.78	27622
802.923	27610
803.065	27431
803.208	27443
803.35	27519
803.492	27595
803.635	27778
803.777	27572
803.919	27671
804.061	27968
804.204	27808
804.346	27603
804.488	27603
804.63	27759
804.773	27591
804.915	27526
805.057	27667
805.199	27637
805.341	27709
805.483	27755
805.626	27842
805.768	27842
805.91	27819
806.052	27739
806.194	27804
806.336	27869
806.478	27816
806.62	27892
806.762	27956
806.904	28090
807.046	28291
807.188	28074
807.33	28261
807.472	28230
807.614	28207
807.756	28192
807.898	28067
808.04	27991
808.182	28055
808.324	28105
808.465	28128
808.607	28268
808.749	28310
808.891	28493
809.033	28679
809.174	28561
809.316	28481
809.458	28516
809.6	28557
809.741	28584
809.883	28634
810.025	28580
810.166	28672
810.308	28656
810.45	28550
810.591	28596
810.733	28405
810.875	28333
811.016	28421
811.158	28363
811.299	28489
811.441	28637
811.582	28531
811.724	28497
811.865	28314
812.007	28413
812.148	28417
812.29	28504
812.431	28618
812.573	28717
812.714	28854
812.855	28930
812.997	29022
813.138	29280
813.279	29200
813.421	29071
813.562	28984
813.703	28816
813.845	28736
813.986	28314
814.127	28185
814.268	28086
814.41	28036
814.551	28086
814.692	28143
814.833	28051
814.974	27991
815.115	28044
815.256	27899
815.397	27854
815.539	27934
815.68	27736
815.821	27865
815.962	27911
816.103	27846
816.244	27667
816.385	27625
816.526	27580
816.666	27431
816.807	27184
816.948	27252
817.089	27431
817.23	27450
817.371	27397
817.512	27355
817.653	27279
817.793	27211
817.934	27306
818.075	27488
818.216	27230
818.356	27154
818.497	27165
818.638	27005
818.778	27157
818.919	27024
819.06	26975
819.2	27184
819.341	27123
819.481	27336
819.622	27420
819.762	27553
819.903	27504
820.043	27583
820.184	27317
820.324	27283
820.465	27458
820.605	27408
820.746	27279
820.886	27195
821.026	27351
821.167	27256
821.307	27374
821.447	27306
821.588	27245
821.728	27108
821.868	26872
822.008	26678
822.149	26785
822.289	26613
822.429	26442
822.569	26427
822.709	26370
822.849	26218
822.99	26214
823.13	26092
823.27	26084
823.41	26005
823.55	25925
823.69	26084
823.83	25989
823.97	25917
824.11	25780
824.25	25849
824.389	25932
824.529	25856
824.669	25803
824.809	25932
824.949	25970
825.089	25864
825.228	25738
825.368	25639
825.508	25639
825.648	25788
825.787	25693
825.927	25788
826.067	25597
826.206	25662
826.346	25715
826.485	25700
826.625	25586
826.765	25772
826.904	25708
827.044	25438
827.183	25301
827.323	25259
827.462	25567
827.601	25346
827.741	25335
827.88	25354
828.02	25164
828.159	25324
828.298	25381
828.437	25445
828.577	25301
828.716	25552
828.855	25316
828.994	25031
829.134	25084
829.273	25061
829.412	25091
829.551	25027
829.69	25061
829.829	25046
829.968	25187
830.107	25171
830.246	24973
830.385	24989
830.524	24882
830.663	24749
830.802	24528
830.941	24612
831.08	24566
831.219	24779
831.357	24658
831.496	24901
831.635	24696
831.774	24483
831.913	24490
832.051	24513
832.19	24399
832.329	24433
832.467	24228
832.606	24357
832.744	24338
832.883	24201
833.022	24258
833.16	24342
833.299	24254
833.437	24277
833.576	24334
833.714	24315
833.852	24407
833.991	24346
834.129	24414
834.267	24479
834.406	24292
834.544	24346
834.682	24399
834.821	24251
834.959	24380
835.097	24194
835.235	24407
835.373	24323
835.511	24380
835.65	24117
835.788	24155
835.926	23908
836.064	24030
836.202	23916
836.34	24148
836.478	24167
836.615	24091
836.753	24163
836.891	24285
837.029	24136
837.167	24091
837.305	24102
837.443	23912
837.58	23863
837.718	24057
837.856	23889
837.993	24038
838.131	23973
838.269	23870
838.406	23832
838.544	23786
838.681	23687
838.819	23680
838.956	23410
839.094	23322
839.231	23402
839.369	23604
839.506	23851
839.643	23695
839.781	23307
839.918	23303
840.055	23387
840.193	23349
840.33	23284
840.467	23334
840.604	23315
840.742	23676
840.879	23223
841.016	23318
841.153	23322
841.29	23406
841.427	23356
841.564	23433
841.701	23330
841.838	23277
841.975	23235
842.112	23280
842.249	23239
842.385	23102
842.522	23292
842.659	23132
842.796	23048
842.933	23003
843.069	22885
843.206	22946
843.343	23075
843.479	23121
843.616	23094
843.752	22881
843.889	22862
844.025	22816
844.162	22797
844.298	22820
844.435	22786
844.571	22653
844.708	22759
844.844	22957
844.98	22953
845.117	22869
845.253	22721
845.389	22630
845.525	22660
845.661	22702
845.798	22660
845.934	22687
846.07	22531
846.206	22527
846.342	22645
846.478	22493
846.614	22371
846.75	22226
846.886	22249
847.022	22226
847.158	22200
847.294	22299
847.429	22246
847.565	22230
847.701	22382
847.837	21956
847.972	21972
848.108	22078
848.244	22010
848.379	21797
848.515	21835
848.65	21732
848.786	21884
848.921	21755
849.057	22048
849.192	21903
849.328	21804
849.463	21819
849.598	21759
849.734	21766
849.869	21614
850.004	21572
850.14	21656
850.275	21523
850.41	21538
850.545	21545
850.68	21564
850.815	21599
850.95	21641
851.085	21709
851.22	21679
851.355	21500
851.49	21595
851.625	21511
851.76	21538
851.895	21545
852.03	21443
852.165	21538
852.299	21622
852.434	21797
852.569	21568
852.703	21614
852.838	21717
852.973	21629
853.107	21698
853.242	21477
853.376	21359
853.511	21272
853.645	21435
853.78	21526
853.914	21507
854.048	21363
854.183	21408
854.317	21450
854.451	21652
854.585	21310
854.72	21378
854.854	21424
854.988	21428
855.122	21466
855.256	21321
855.39	21367
855.524	21523
855.658	21496
855.792	21412
855.926	21447
856.06	21515
856.194	21416
856.327	21351
856.461	21283
856.595	21306
856.729	21420
856.862	21473
856.996	21507
857.13	21473
857.263	21370
857.397	21485
857.53	21405
857.664	21466
857.797	21439
857.931	21477
858.064	21382
858.197	21526
858.331	21386
858.464	21310
858.597	21329
858.731	21249
858.864	21310
858.997	21332
859.13	21397
859.263	21378
859.396	21477
859.529	21420
859.662	21310
859.795	21272
859.928	21310
860.061	21580
860.194	21519
860.327	21310
860.46	21389
860.592	21466
860.725	21405
860.858	21507
860.99	21386
861.123	21268
861.256	21310
861.388	21336
861.521	22006
861.653	21222
861.786	21127
861.918	21173
862.05	21279
862.183	21325
862.315	21344
862.447	21431
862.58	21321
862.712	21119
862.844	21043
862.976	21150
863.108	21252
863.24	21557
863.372	21058
863.504	21135
863.636	20971
863.768	21245
863.9	21169
864.032	20994
864.164	21009
864.296	21085
864.428	21252
864.559	21195
864.691	21043
864.823	21108
864.954	21123
865.086	20990
865.217	20895
865.349	20937
865.48	20994
865.612	20933
865.743	21112
865.875	20971
866.006	20967
866.137	20933
866.269	20994
866.4	20826
866.531	20895
866.662	20971
866.793	20895
866.924	20804
867.055	20906
867.186	20941
867.317	20773
867.448	20765
867.579	20918
867.71	20864
867.841	20712
867.972	21009
868.103	20861
868.233	20925
868.364	20861
868.495	20948
868.625	21150
868.756	21192
868.886	21096
869.017	21062
869.147	21283
869.278	21283
869.408	21214
869.539	21173
869.669	21233
869.799	21146
869.929	21230
870.06	21237
870.19	21431
870.32	21454
870.45	21469
870.58	21469
870.71	21618
870.84	21610
870.97	21466
871.1	21530
871.23	21713
871.36	21732
871.489	21648
871.619	21610
871.749	21675
871.879	21808
872.008	21823
872.138	21831
872.267	21785
872.397	21736
872.526	21553
872.656	21496
872.785	21515
872.915	21781
873.044	21945
873.173	21823
873.303	21800
873.432	21804
873.561	21903
873.69	21698
873.819	21816
873.948	21816
874.077	21846
874.206	21663
874.335	21736
874.464	21930
874.593	22097
874.722	21903
874.851	22051
874.979	22105
875.108	22021
875.237	22067
875.365	21918
875.494	21983
875.623	21998
875.751	21915
875.88	21979
876.008	21998
876.136	22192
876.265	22455
876.393	22554
876.521	22447
876.65	22554
876.778	22424
876.906	22333
877.034	22280
877.162	22341
877.29	22223
877.418	22306
877.546	22295
877.674	22325
877.802	22261
877.93	22272
878.058	22417
878.185	22192
878.313	22261
878.441	22337
878.568	22261
878.696	22268
878.824	22382
878.951	22455
879.079	22523
879.206	22569
879.333	22500
879.461	22508
879.588	22523
879.715	22535
879.842	22653
879.97	22398
880.097	22154
880.224	22181
880.351	22204
880.478	22147
880.605	22223
880.732	22196
880.859	22360
880.986	22124
881.112	22238
881.239	21968
881.366	21911
881.493	21823
881.619	21930
881.746	21778
881.872	21713
881.999	21701
882.125	21671
882.252	21724
882.378	21732
882.505	21682
882.631	21542
882.757	21530
882.883	21583
883.01	21428
883.136	21408
883.262	21317
883.388	21310
883.514	21439
883.64	21492
883.766	21287
883.892	21241
884.018	21119
884.143	21298
884.269	21485
884.395	21214
884.52	21028
884.646	21108
884.772	20937
884.897	21039
885.023	21074
885.148	21230
885.274	21127
885.399	21184
885.524	20982
885.65	21275
885.775	21108
885.9	21020
886.025	21150
886.15	21051
886.275	21081
886.4	20921
886.525	20971
886.65	20941
886.775	21005
886.9	21146
887.025	21298
887.149	21024
887.274	20990
887.399	20804
887.523	20853
887.648	20720
887.773	20750
887.897	20937
888.021	20872
888.146	20823
888.27	20948
888.395	20929
888.519	20910
888.643	20849
888.767	20937
888.891	20735
889.015	20617
889.139	20689
889.263	20522
889.387	20762
889.511	20788
889.635	20724
889.759	20674
889.883	20716
890.006	20632
890.13	20674
890.254	20583
890.377	20431
890.501	20385
890.624	20393
890.748	20503
890.871	20240
890.995	20191
891.118	20199
891.241	20248
891.364	20195
891.488	20427
891.611	20126
891.734	20275
891.857	20267
891.98	20256
892.103	20377
892.226	20199
892.349	20149
892.471	20077
892.594	20138
892.717	20229
892.839	20050
892.962	20111
893.085	20149
893.207	20126
893.33	19944
893.452	19993
893.575	20096
893.697	20119
893.819	20157
893.941	20305
894.064	20218
894.186	20027
894.308	20024
894.43	20180
894.552	20275
894.674	20126
894.796	20081
894.918	20084
895.04	20100
895.161	20138
895.283	20107
895.405	19982
895.526	20020
895.648	20210
895.769	20073
895.891	20183
896.012	20126
896.134	20115
896.255	20271
896.376	20088
896.498	19989
896.619	20221
896.74	20122
896.861	20191
896.982	20336
897.103	20533
897.224	20393
897.345	20355
897.466	20252
897.587	20503
897.708	20381
897.828	20366
897.949	20195
898.07	20187
898.19	20183
898.311	20419
898.431	20210
898.552	20339
898.672	20381
898.792	20442
898.913	20256
899.033	20210
899.153	20168
899.273	19944
899.393	20065
899.513	20218
899.633	20058
899.753	20096
899.873	20027
899.993	20161
900.113	19925
900.232	20054
900.352	19940
900.472	19875
900.591	19830
900.711	19898
900.83	19967
900.95	19947
901.069	19898
901.189	19909
901.308	19613
901.427	19312
901.546	19514
901.665	19514
901.784	19445
901.904	19343
902.023	19179
902.141	19008
902.26	18973
902.379	19076
902.498	18981
902.617	18875
902.735	18958
902.854	18894
902.973	18928
903.091	18566
903.21	18544
903.328	18578
903.446	18471
903.565	18403
903.683	18399
903.801	18304
903.919	18346
904.038	18262
904.156	18243
904.274	18403
904.392	18220
904.51	18148
904.627	18110
904.745	18136
904.863	18228
904.981	17946
905.098	17893
905.216	17866
905.334	17939
905.451	17767
905.569	17878
905.686	17927
905.803	17912
905.921	17638
906.038	17573
906.155	17703
906.272	17509
906.389	17623
906.506	17429
906.623	17433
906.74	17360
906.857	17204
906.974	17242
907.091	17265
907.208	17505
907.324	17364
907.441	17258
907.557	17170
907.674	17140
907.79	17086
907.907	17147
908.023	17140
908.139	17056
908.256	17056
908.372	16927
908.488	16999
908.604	16843
908.72	16691
908.836	16831
908.952	16771
909.068	16805
909.184	16828
909.3	16752
909.415	16873
909.531	16740
909.647	16538
909.762	16573
909.878	16424
909.993	16504
910.108	16451
910.224	16546
910.339	16394
910.454	16341
910.57	16287
910.685	16234
910.8	16455
910.915	16390
911.03	16371
911.145	16185
911.259	16120
911.374	16120
911.489	15987
911.604	16006
911.718	15785
911.833	15816
911.947	15800
912.062	15724
912.176	15869
912.291	15835
912.405	15842
912.519	16017
912.633	15934
912.748	15819
912.862	15797
912.976	15679
913.09	15515
913.204	15584
913.318	15713
913.431	15603
913.545	15671
913.659	15728
913.772	15614
913.886	15458
914	15477
914.113	15542
914.226	15553
914.34	15481
914.453	15264
914.566	15458
914.68	15325
914.793	15252
914.906	15112
915.019	15039
915.132	15017
915.245	15020
915.358	15058
915.47	15009
915.583	14986
915.696	15032
915.809	15146
915.921	15207
916.034	14990
916.146	15043
916.259	14906
916.371	15108
916.483	14941
916.595	14937
916.708	14906
916.82	14918
916.932	14830
917.044	14853
917.156	14834
917.268	14701
917.38	14762
917.491	14613
917.603	14678
917.715	14735
917.826	14830
917.938	14682
918.049	14564
918.161	14610
918.272	14705
918.384	14746
918.495	14667
918.606	14503
918.717	14423
918.828	14560
918.939	14465
919.05	14374
919.161	14396
919.272	14191
919.383	14404
919.494	14469
919.604	14537
919.715	14465
919.826	14298
919.936	14396
920.047	14488
920.157	14389
920.267	14590
920.378	14412
920.488	14389
920.598	14526
920.708	14716
920.818	14617
920.928	14461
921.038	14769
921.148	14682
921.258	14366
921.368	14233
921.477	14069
921.587	14142
921.697	14012
921.806	14069
921.916	13993
922.025	13799
922.134	13746
922.244	13788
922.353	13795
922.462	13712
922.571	13586
922.68	13499
922.789	13407
922.898	13449
923.007	13297
923.116	13457
923.224	13411
923.333	13403
923.442	13289
923.55	13206
923.659	13285
923.767	13377
923.876	13164
923.984	13213
924.092	13209
924.201	13217
924.309	13103
924.417	13152
924.525	13133
924.633	13110
924.741	13898
924.849	12829
924.956	13027
925.064	12886
925.172	12806
925.279	12935
925.387	12901
925.494	12875
925.602	12932
925.709	12856
925.816	12738
925.924	12829
926.031	12886
926.138	12764
926.245	12806
926.352	12692
926.459	12886
926.566	12844
926.673	12722
926.779	12650
926.886	12570
926.993	12464
927.099	12483
927.206	12464
927.312	12342
927.419	12407
927.525	12448
927.631	12429
927.737	12277
927.843	12251
927.95	12095
928.056	12266
928.162	12197
928.267	12308
928.373	12897
928.479	12388
928.585	12121
928.69	12186
928.796	12232
928.901	12121
929.007	11950
929.112	12114
929.218	12121
929.323	11977
929.428	11923
929.533	12038
929.638	11847
929.743	11847
929.848	11935
929.953	11969
930.058	11813
930.163	11596
930.267	11646
930.372	11786
930.477	11604
930.581	11897
930.685	11688
930.79	11608
930.894	11535
930.998	11493
931.103	11642
931.207	11254
931.311	11201
931.415	11185
931.519	11003
931.623	10915
