Data from test_V78500241_2783.txt Node
Date: Fri Mar 25 16:01:04 CST 2022
User: usil
Spectrometer: V785-0024
Trigger mode: 0
Integration Time (sec): 4.000000E-1
Scans to average: 1
Nonlinearity correction enabled: false
Boxcar width: 0
Storing dark spectrum: false
XAxis mode: Wavelengths
Number of Pixels in Spectrum: 1024
>>>>>Begin Spectral Data<<<<<
801.071	29117
801.214	29102
801.356	28793
801.499	28801
801.641	28664
801.783	28733
801.926	28771
802.068	28523
802.211	28660
802.353	28573
802.496	28413
802.638	28451
802.78	28295
802.923	28143
803.065	28360
803.208	28223
803.35	28382
803.492	28710
803.635	28615
803.777	28474
803.919	28694
804.061	29014
804.204	28630
804.346	28611
804.488	28542
804.63	28767
804.773	28672
804.915	28649
805.057	28797
805.199	28592
805.341	28729
805.483	28793
805.626	28793
805.768	28835
805.91	28824
806.052	28793
806.194	28771
806.336	28873
806.478	28721
806.62	28755
806.762	28919
806.904	29128
807.046	29425
807.188	29250
807.33	29330
807.472	29261
807.614	29242
807.756	29166
807.898	29170
808.04	29117
808.182	28995
808.324	29162
808.465	29239
808.607	29497
808.749	29482
808.891	29707
809.033	29764
809.174	29630
809.316	29482
809.458	29570
809.6	29486
809.741	29699
809.883	29684
810.025	29882
810.166	29767
810.308	29821
810.45	29786
810.591	29646
810.733	29665
810.875	29573
811.016	29406
811.158	29322
811.299	29646
811.441	29611
811.582	29630
811.724	29608
811.865	29509
812.007	29539
812.148	29596
812.29	29524
812.431	29668
812.573	29859
812.714	30022
812.855	30095
812.997	30285
813.138	30437
813.279	30228
813.421	29980
813.562	29977
813.703	29836
813.845	29840
813.986	29554
814.127	29288
814.268	29216
814.41	29227
814.551	29265
814.692	29448
814.833	29204
814.974	29185
815.115	29136
815.256	29075
815.397	29136
815.539	29025
815.68	29086
815.821	29094
815.962	29185
816.103	29109
816.244	28828
816.385	28987
816.526	28831
816.666	28592
816.807	28538
816.948	28630
817.089	28656
817.23	28497
817.371	28592
817.512	28554
817.653	28664
817.793	28588
817.934	28596
818.075	28557
818.216	28637
818.356	28546
818.497	28535
818.638	28352
818.778	28367
818.919	28363
819.06	28409
819.2	28500
819.341	28550
819.481	28630
819.622	28702
819.762	28968
819.903	28873
820.043	28892
820.184	28782
820.324	28767
820.465	28736
820.605	28702
820.746	28557
820.886	28649
821.026	28710
821.167	28645
821.307	28809
821.447	28694
821.588	28588
821.728	28512
821.868	28253
822.008	28082
822.149	28211
822.289	27994
822.429	27884
822.569	27778
822.709	27827
822.849	27686
822.99	27660
823.13	27576
823.27	27420
823.41	27412
823.55	27211
823.69	27458
823.83	27420
823.97	27317
824.11	27245
824.25	27138
824.389	27355
824.529	27386
824.669	27211
824.809	27408
824.949	27336
825.089	27420
825.228	27344
825.368	27169
825.508	27089
825.648	27123
825.787	27195
825.927	27355
826.067	27176
826.206	27116
826.346	27157
826.485	27211
826.625	27116
826.765	27241
826.904	27100
827.044	26982
827.183	26891
827.323	26857
827.462	26891
827.601	26876
827.741	26864
827.88	26868
828.02	26762
828.159	26845
828.298	26986
828.437	26967
828.577	26861
828.716	26975
828.855	26731
828.994	26503
829.134	26552
829.273	26644
829.412	26492
829.551	26389
829.69	26590
829.829	26636
829.968	26530
830.107	26556
830.246	26514
830.385	26530
830.524	26362
830.663	26278
830.802	26233
830.941	26081
831.08	26100
831.219	26278
831.357	26263
831.496	26366
831.635	26027
831.774	26092
831.913	26092
832.051	25928
832.19	25795
832.329	25978
832.467	25799
832.606	25803
832.744	25769
832.883	25788
833.022	25833
833.16	25757
833.299	25921
833.437	25799
833.576	25925
833.714	25879
833.852	25856
833.991	25951
834.129	26024
834.267	26043
834.406	25841
834.544	25955
834.682	25833
834.821	25928
834.959	26138
835.097	25776
835.235	25955
835.373	25963
835.511	25932
835.65	25852
835.788	25643
835.926	25647
836.064	25556
836.202	25605
836.34	25723
836.478	25883
836.615	25727
836.753	25578
836.891	25757
837.029	25761
837.167	25552
837.305	25647
837.443	25533
837.58	25464
837.718	25590
837.856	25605
837.993	25407
838.131	25464
838.269	25365
838.406	25392
838.544	25343
838.681	25213
838.819	25266
838.956	25053
839.094	25004
839.231	25137
839.369	25141
839.506	25407
839.643	25160
839.781	25065
839.918	24970
840.055	24806
840.193	24890
840.33	24913
840.467	24973
840.604	24932
840.742	25240
840.879	24779
841.016	24783
841.153	24711
841.29	25015
841.427	24806
841.564	24738
841.701	24787
841.838	24837
841.975	24783
842.112	24939
842.249	24696
842.385	24669
842.522	24913
842.659	24722
842.796	24589
842.933	24608
843.069	24509
843.206	24642
843.343	24684
843.479	24574
843.616	24471
843.752	24403
843.889	24597
844.025	24486
844.162	24361
844.298	24551
844.435	24452
844.571	24399
844.708	24418
844.844	24627
844.98	24422
845.117	24544
845.253	24380
845.389	24140
845.525	24350
845.661	24270
845.798	24167
845.934	24216
846.07	24167
846.206	24117
846.342	24167
846.478	24087
846.614	23939
846.75	23737
846.886	23901
847.022	23866
847.158	23980
847.294	23794
847.429	23832
847.565	23908
847.701	24136
847.837	23566
847.972	23516
848.108	23604
848.244	23638
848.379	23493
848.515	23478
848.65	23471
848.786	23516
848.921	23444
849.057	23665
849.192	23497
849.328	23406
849.463	23379
849.598	23356
849.734	23307
849.869	23345
850.004	23223
850.14	23231
850.275	23250
850.41	23143
850.545	23124
850.68	23136
850.815	23277
850.95	23071
851.085	23387
851.22	23303
851.355	23147
851.49	23037
851.625	23212
851.76	23181
851.895	23048
852.03	23098
852.165	23155
852.299	23223
852.434	23303
852.569	23334
852.703	23189
852.838	23284
852.973	23372
853.107	23284
853.242	23090
853.376	22957
853.511	22885
853.645	23117
853.78	23212
853.914	23083
854.048	22904
854.183	22965
854.317	22987
854.451	23220
854.585	23079
854.72	23010
854.854	23083
854.988	22949
855.122	23048
855.256	22896
855.39	22987
855.524	23216
855.658	23003
855.792	22953
855.926	23022
856.06	22995
856.194	23067
856.327	22946
856.461	23037
856.595	23010
856.729	23033
856.862	23094
856.996	22961
857.13	23071
857.263	23136
857.397	23155
857.53	22919
857.664	23098
857.797	23048
857.931	23178
858.064	22957
858.197	23143
858.331	23033
858.464	22854
858.597	22908
858.731	22980
858.864	23086
858.997	23003
859.13	22923
859.263	22972
859.396	23147
859.529	23071
859.662	23018
859.795	22934
859.928	23014
860.061	23178
860.194	23136
860.327	22995
860.46	23044
860.592	23102
860.725	23166
860.858	23166
860.99	23083
861.123	22965
861.256	23075
861.388	23189
861.521	23680
861.653	22847
861.786	22839
861.918	22839
862.05	22824
862.183	22965
862.315	22961
862.447	23025
862.58	22904
862.712	22729
862.844	22645
862.976	22843
863.108	22812
863.24	23265
863.372	22774
863.504	22824
863.636	22710
863.768	22809
863.9	22653
864.032	22653
864.164	22729
864.296	22763
864.428	22805
864.559	22713
864.691	22805
864.823	22767
864.954	22744
865.086	22706
865.217	22637
865.349	22592
865.48	22668
865.612	22546
865.743	22740
865.875	22691
866.006	22538
866.137	22603
866.269	22687
866.4	22565
866.531	22687
866.662	22615
866.793	22462
866.924	22398
867.055	22569
867.186	22584
867.317	22455
867.448	22379
867.579	22508
867.71	22402
867.841	22470
867.972	22588
868.103	22459
868.233	22535
868.364	22546
868.495	22550
868.625	22752
868.756	22816
868.886	22767
869.017	22752
869.147	22801
869.278	22927
869.408	22786
869.539	22809
869.669	22805
869.799	22774
869.929	22930
870.06	22793
870.19	23060
870.32	23128
870.45	23090
870.58	23223
870.71	23273
870.84	23212
870.97	23128
871.1	23174
871.23	23315
871.36	23364
871.489	23162
871.619	23246
871.749	23337
871.879	23509
872.008	23448
872.138	23436
872.267	23376
872.397	23208
872.526	23239
872.656	23185
872.785	23277
872.915	23406
873.044	23455
873.173	23391
873.303	23505
873.432	23288
873.561	23410
873.69	23391
873.819	23429
873.948	23387
874.077	23474
874.206	23349
874.335	23402
874.464	23524
874.593	23668
874.722	23471
874.851	23497
874.979	23592
875.108	23707
875.237	23604
875.365	23554
875.494	23577
875.623	23634
875.751	23551
875.88	23558
876.008	23649
876.136	23722
876.265	23973
876.393	24144
876.521	24171
876.65	23980
876.778	23920
876.906	23843
877.034	23939
877.162	24064
877.29	23817
877.418	23920
877.546	23866
877.674	23870
877.802	23920
877.93	23897
878.058	23775
878.185	23729
878.313	23832
878.441	23817
878.568	23760
878.696	23809
878.824	24011
878.951	23866
879.079	24034
879.206	24194
879.333	24102
879.461	23882
879.588	24030
879.715	24076
879.842	24026
879.97	24106
880.097	23726
880.224	23767
880.351	23767
880.478	23794
880.605	23642
880.732	23676
880.859	24034
880.986	23687
881.112	23665
881.239	23623
881.366	23444
881.493	23353
881.619	23349
881.746	23273
881.872	23398
881.999	23364
882.125	23204
882.252	23345
882.378	23326
882.505	23482
882.631	23117
882.757	23083
882.883	23098
883.01	22976
883.136	22866
883.262	22881
883.388	22835
883.514	22949
883.64	23128
883.766	22881
883.892	22698
884.018	22790
884.143	22759
884.269	22968
884.395	22622
884.52	22588
884.646	22626
884.772	22508
884.897	22504
885.023	22634
885.148	22691
885.274	22763
885.399	22611
885.524	22634
885.65	22535
885.775	22668
885.9	22618
886.025	22653
886.15	22706
886.275	22573
886.4	22493
886.525	22561
886.65	22538
886.775	22550
886.9	22649
887.025	22733
887.149	22504
887.274	22363
887.399	22352
887.523	22436
887.648	22348
887.773	22257
887.897	22306
888.021	22424
888.146	22207
888.27	22310
888.395	22375
888.519	22440
888.643	22360
888.767	22295
888.891	22215
889.015	22093
889.139	22230
889.263	22150
889.387	22211
889.511	22280
889.635	22188
889.759	22082
889.883	22021
890.006	22166
890.13	22154
890.254	22025
890.377	22006
890.501	21994
890.624	21934
890.748	21869
890.871	21903
890.995	21694
891.118	21576
891.241	21804
891.364	21553
891.488	21835
891.611	21671
891.734	21682
891.857	21827
891.98	21766
892.103	21561
892.226	21610
892.349	21625
892.471	21500
892.594	21561
892.717	21663
892.839	21622
892.962	21564
893.085	21523
893.207	21568
893.33	21405
893.452	21542
893.575	21644
893.697	21466
893.819	21660
893.941	21808
894.064	21641
894.186	21485
894.308	21420
894.43	21656
894.552	21751
894.674	21739
894.796	21428
894.918	21450
895.04	21454
895.161	21637
895.283	21572
895.405	21492
895.526	21416
895.648	21583
895.769	21633
895.891	21553
896.012	21637
896.134	21549
896.255	21614
896.376	21469
896.498	21507
896.619	21515
896.74	21553
896.861	21504
896.982	21816
897.103	21895
897.224	21747
897.345	21751
897.466	21732
897.587	21686
897.708	21762
897.828	21629
897.949	21587
898.07	21500
898.19	21591
898.311	21739
898.431	21576
898.552	21625
898.672	21766
898.792	21785
898.913	21751
899.033	21534
899.153	21530
899.273	21439
899.393	21397
899.513	21443
899.633	21363
899.753	21454
899.873	21389
899.993	21504
900.113	21298
900.232	21344
900.352	21332
900.472	21405
900.591	21066
900.711	21233
900.83	21108
900.95	21329
901.069	21313
901.189	21032
901.308	20838
901.427	20746
901.546	20792
901.665	20819
901.784	20792
901.904	20625
902.023	20450
902.141	20336
902.26	20248
902.379	20374
902.498	20218
902.617	20343
902.735	20271
902.854	20290
902.973	20126
903.091	19925
903.21	19978
903.328	19909
903.446	19753
903.565	19727
903.683	19788
903.801	19620
903.919	19624
904.038	19674
904.156	19582
904.274	19518
904.392	19369
904.51	19472
904.627	19540
904.745	19499
904.863	19422
904.981	19388
905.098	19027
905.216	19270
905.334	19156
905.451	19156
905.569	19187
905.686	19171
905.803	19129
905.921	18909
906.038	19027
906.155	18939
906.272	18848
906.389	18867
906.506	18597
906.623	18658
906.74	18612
906.857	18437
906.974	18563
907.091	18798
907.208	18734
907.324	18696
907.441	18525
907.557	18342
907.674	18323
907.79	18243
907.907	18262
908.023	18380
908.139	18304
908.256	18224
908.372	18357
908.488	18121
908.604	18079
908.72	18045
908.836	18072
908.952	18003
909.068	18110
909.184	18194
909.3	18015
909.415	18125
909.531	18015
909.647	17904
909.762	17714
909.878	17687
909.993	17870
910.108	17703
910.224	17707
910.339	17703
910.454	17528
910.57	17589
910.685	17387
910.8	17653
910.915	17687
911.03	17535
911.145	17387
911.259	17303
911.374	17334
911.489	17242
911.604	17299
911.718	17105
911.833	17056
911.947	16908
912.062	16927
912.176	17094
912.291	17121
912.405	17037
912.519	17246
912.633	17200
912.748	17147
912.862	17037
912.976	16877
913.09	16740
913.204	16862
913.318	16877
913.431	16908
913.545	16923
913.659	16972
913.772	16774
913.886	16637
914	16675
914.113	16679
914.226	16675
914.34	16721
914.453	16561
914.566	16721
914.68	16558
914.793	16417
914.906	16405
915.019	16280
915.132	16230
915.245	16158
915.358	16287
915.47	16230
915.583	16200
915.696	16162
915.809	16253
915.921	16314
916.034	16139
916.146	16223
916.259	16074
916.371	16169
916.483	16040
916.595	16124
916.708	15994
916.82	15987
916.932	15915
917.044	16006
917.156	15926
917.268	15835
917.38	15895
917.491	15736
917.603	15945
917.715	15800
917.826	15937
917.938	15762
918.049	15713
918.161	15713
918.272	15854
918.384	15842
918.495	15823
918.606	15648
918.717	15580
918.828	15618
918.939	15584
919.05	15526
919.161	15496
919.272	15287
919.383	15488
919.494	15637
919.604	15751
919.715	15530
919.826	15397
919.936	15519
920.047	15606
920.157	15504
920.267	15728
920.378	15557
920.488	15439
920.598	15736
920.708	15686
920.818	15625
920.928	15663
921.038	15869
921.148	15682
921.258	15386
921.368	15374
921.477	15226
921.587	15135
921.697	15074
921.806	15203
921.916	15066
922.025	14853
922.134	14899
922.244	14838
922.353	14899
922.462	14697
922.571	14743
922.68	14522
922.789	14533
922.898	14530
923.007	14438
923.116	14541
923.224	14488
923.333	14473
923.442	14317
923.55	14351
923.659	14343
923.767	14412
923.876	14240
923.984	14389
924.092	14206
924.201	14237
924.309	14206
924.417	14252
924.525	14115
924.633	14062
924.741	15001
924.849	13906
924.956	14005
925.064	13902
925.172	13776
925.279	13845
925.387	13902
925.494	13909
925.602	13963
925.709	13890
925.816	13757
925.924	13879
926.031	13803
926.138	13803
926.245	13757
926.352	13670
926.459	13849
926.566	13841
926.673	13719
926.779	13620
926.886	13609
926.993	13415
927.099	13480
927.206	13263
927.312	13301
927.419	13419
927.525	13392
927.631	13388
927.737	13247
927.843	13171
927.95	13069
928.056	13069
928.162	13152
928.267	13232
928.373	13772
928.479	13247
928.585	13099
928.69	13114
928.796	13137
928.901	12977
929.007	12905
929.112	13057
929.218	12958
929.323	12901
929.428	12954
929.533	13027
929.638	12814
929.743	12833
929.848	12871
929.953	12871
930.058	12715
930.163	12570
930.267	12578
930.372	12719
930.477	12547
930.581	12837
930.685	12597
930.79	12422
930.894	12433
930.998	12437
931.103	12521
931.207	12155
931.311	12087
931.415	11980
931.519	11863
931.623	11775
