Data from test_V78500241_1175.txt Node
Date: Fri Mar 25 15:49:56 CST 2022
User: usil
Spectrometer: V785-0024
Trigger mode: 0
Integration Time (sec): 4.000000E-1
Scans to average: 1
Nonlinearity correction enabled: false
Boxcar width: 0
Storing dark spectrum: false
XAxis mode: Wavelengths
Number of Pixels in Spectrum: 1024
>>>>>Begin Spectral Data<<<<<
801.071	28531
801.214	28428
801.356	28280
801.499	28424
801.641	28158
801.783	28185
801.926	28070
802.068	28063
802.211	28036
802.353	28040
802.496	27838
802.638	27736
802.78	27682
802.923	27682
803.065	27618
803.208	27819
803.35	27804
803.492	27922
803.635	27911
803.777	27770
803.919	28010
804.061	28394
804.204	28105
804.346	27937
804.488	27899
804.63	28025
804.773	27994
804.915	28173
805.057	28128
805.199	28044
805.341	28291
805.483	28257
805.626	28067
805.768	28105
805.91	28200
806.052	28131
806.194	28143
806.336	28481
806.478	28219
806.62	28341
806.762	28287
806.904	28573
807.046	28877
807.188	28653
807.33	28782
807.472	28706
807.614	28599
807.756	28573
807.898	28546
808.04	28443
808.182	28531
808.324	28462
808.465	28535
808.607	28752
808.749	28850
808.891	28900
809.033	29060
809.174	28984
809.316	28953
809.458	28816
809.6	28809
809.741	29090
809.883	29155
810.025	29128
810.166	29216
810.308	29349
810.45	29178
810.591	29136
810.733	28805
810.875	28942
811.016	28873
811.158	28877
811.299	29014
811.441	29208
811.582	28961
811.724	28881
811.865	28759
812.007	28858
812.148	28965
812.29	28942
812.431	29064
812.573	29193
812.714	29258
812.855	29356
812.997	29528
813.138	29543
813.279	29501
813.421	29589
813.562	29509
813.703	29421
813.845	29200
813.986	28858
814.127	28797
814.268	28645
814.41	28660
814.551	28698
814.692	28713
814.833	28554
814.974	28634
815.115	28527
815.256	28443
815.397	28588
815.539	28531
815.68	28405
815.821	28474
815.962	28440
816.103	28493
816.244	28314
816.385	28242
816.526	28219
816.666	28044
816.807	27934
816.948	27922
817.089	28097
817.23	28006
817.371	27918
817.512	27991
817.653	27937
817.793	27846
817.934	27953
818.075	27934
818.216	27911
818.356	27793
818.497	27835
818.638	27667
818.778	27675
818.919	27732
819.06	27781
819.2	27823
819.341	28021
819.481	27953
819.622	28128
819.762	28306
819.903	28207
820.043	28101
820.184	28051
820.324	28150
820.465	28147
820.605	28048
820.746	28109
820.886	28010
821.026	28120
821.167	28120
821.307	28109
821.447	27819
821.588	27835
821.728	27835
821.868	27709
822.008	27481
822.149	27405
822.289	27287
822.429	27089
822.569	27184
822.709	27116
822.849	26849
822.99	26979
823.13	26975
823.27	26891
823.41	26861
823.55	26651
823.69	26902
823.83	26861
823.97	26773
824.11	26613
824.25	26598
824.389	26556
824.529	26686
824.669	26667
824.809	26587
824.949	26705
825.089	26602
825.228	26655
825.368	26541
825.508	26537
825.648	26533
825.787	26549
825.927	26568
826.067	26640
826.206	26469
826.346	26598
826.485	26583
826.625	26450
826.765	26507
826.904	26457
827.044	26320
827.183	26282
827.323	26206
827.462	26092
827.601	26377
827.741	26313
827.88	26221
828.02	26096
828.159	26202
828.298	26168
828.437	26298
828.577	26153
828.716	26195
828.855	26050
828.994	26024
829.134	25913
829.273	25921
829.412	25852
829.551	25879
829.69	26024
829.829	25803
829.968	26008
830.107	25963
830.246	25921
830.385	25833
830.524	25947
830.663	25647
830.802	25632
830.941	25521
831.08	25312
831.219	25643
831.357	25571
831.496	25723
831.635	25601
831.774	25487
831.913	25316
832.051	25354
832.19	25247
832.329	25259
832.467	25213
832.606	25061
832.744	25141
832.883	25251
833.022	25148
833.16	25103
833.299	25225
833.437	25156
833.576	25225
833.714	25137
833.852	25282
833.991	25259
834.129	25540
834.267	25297
834.406	25247
834.544	25308
834.682	25266
834.821	25373
834.959	25335
835.097	25194
835.235	25110
835.373	25190
835.511	25266
835.65	25065
835.788	25091
835.926	24909
836.064	24802
836.202	24798
836.34	25080
836.478	25133
836.615	25027
836.753	25190
836.891	25190
837.029	25152
837.167	25042
837.305	25019
837.443	24992
837.58	24814
837.718	24970
837.856	24932
837.993	24741
838.131	24821
838.269	24772
838.406	24795
838.544	24722
838.681	24433
838.819	24513
838.956	24334
839.094	24350
839.231	24456
839.369	24479
839.506	24802
839.643	24673
839.781	24342
839.918	24384
840.055	24323
840.193	24365
840.33	24235
840.467	24315
840.604	24327
840.742	24521
840.879	24144
841.016	24133
841.153	24155
841.29	24308
841.427	24311
841.564	24311
841.701	24258
841.838	24098
841.975	24174
842.112	24095
842.249	24136
842.385	24136
842.522	24220
842.659	24041
842.796	23904
842.933	24072
843.069	23954
843.206	24022
843.343	24045
843.479	24038
843.616	23916
843.752	23813
843.889	23889
844.025	23916
844.162	23802
844.298	23851
844.435	23668
844.571	23741
844.708	23745
844.844	23908
844.98	23916
845.117	23802
845.253	23707
845.389	23623
845.525	23604
845.661	23653
845.798	23596
845.934	23512
846.07	23440
846.206	23509
846.342	23615
846.478	23463
846.614	23212
846.75	23189
846.886	23181
847.022	23258
847.158	23128
847.294	23208
847.429	23292
847.565	23231
847.701	23391
847.837	22934
847.972	22984
848.108	23052
848.244	23052
848.379	22793
848.515	22793
848.65	22869
848.786	22759
848.921	22869
849.057	23014
849.192	22885
849.328	22900
849.463	22790
849.598	22778
849.734	22740
849.869	22713
850.004	22512
850.14	22599
850.275	22698
850.41	22527
850.545	22588
850.68	22626
850.815	22577
850.95	22573
851.085	22622
851.22	22596
851.355	22481
851.49	22618
851.625	22596
851.76	22615
851.895	22421
852.03	22375
852.165	22592
852.299	22649
852.434	22634
852.569	22607
852.703	22561
852.838	22580
852.973	22774
853.107	22828
853.242	22489
853.376	22386
853.511	22261
853.645	22485
853.78	22588
853.914	22470
854.048	22284
854.183	22382
854.317	22527
854.451	22565
854.585	22352
854.72	22508
854.854	22508
854.988	22341
855.122	22371
855.256	22280
855.39	22272
855.524	22382
855.658	22535
855.792	22333
855.926	22363
856.06	22489
856.194	22538
856.327	22333
856.461	22268
856.595	22287
856.729	22409
856.862	22470
856.996	22402
857.13	22424
857.263	22588
857.397	22504
857.53	22440
857.664	22409
857.797	22417
857.931	22459
858.064	22417
858.197	22653
858.331	22497
858.464	22322
858.597	22325
858.731	22363
858.864	22382
858.997	22363
859.13	22455
859.263	22375
859.396	22459
859.529	22375
859.662	22333
859.795	22402
859.928	22405
860.061	22466
860.194	22527
860.327	22466
860.46	22512
860.592	22500
860.725	22637
860.858	22405
860.99	22314
861.123	22310
861.256	22386
861.388	22474
861.521	23079
861.653	22341
861.786	22276
861.918	22333
862.05	22143
862.183	22272
862.315	22299
862.447	22348
862.58	22337
862.712	22036
862.844	21987
862.976	22109
863.108	22249
863.24	22592
863.372	22006
863.504	22059
863.636	22025
863.768	22169
863.9	22074
864.032	22086
864.164	22067
864.296	22105
864.428	22204
864.559	22173
864.691	22139
864.823	22154
864.954	22078
865.086	22070
865.217	22032
865.349	21941
865.48	22040
865.612	22013
865.743	22017
865.875	21960
866.006	22044
866.137	21880
866.269	21972
866.4	21869
866.531	22032
866.662	21915
866.793	21884
866.924	21861
867.055	21899
867.186	21873
867.317	21880
867.448	21785
867.579	21751
867.71	21857
867.841	21774
867.972	21945
868.103	21911
868.233	21949
868.364	21964
868.495	21968
868.625	22204
868.756	22196
868.886	22158
869.017	22154
869.147	22348
869.278	22348
869.408	22169
869.539	22044
869.669	22341
869.799	22211
869.929	22344
870.06	22306
870.19	22459
870.32	22341
870.45	22443
870.58	22466
870.71	22668
870.84	22599
870.97	22550
871.1	22656
871.23	22626
871.36	22710
871.489	22698
871.619	22763
871.749	22713
871.879	22767
872.008	22866
872.138	22698
872.267	22820
872.397	22660
872.526	22516
872.656	22550
872.785	22641
872.915	22645
873.044	22908
873.173	22786
873.303	22771
873.432	22797
873.561	22858
873.69	22869
873.819	22649
873.948	22755
874.077	22767
874.206	22736
874.335	22767
874.464	22900
874.593	22961
874.722	22923
874.851	22889
874.979	23003
875.108	23022
875.237	22774
875.365	22953
875.494	22934
875.623	22930
875.751	22946
875.88	22995
876.008	23109
876.136	23181
876.265	23379
876.393	23501
876.521	23414
876.65	23406
876.778	23372
876.906	23376
877.034	23220
877.162	23425
877.29	23159
877.418	23174
877.546	23391
877.674	23368
877.802	23387
877.93	23269
878.058	23395
878.185	23178
878.313	23136
878.441	23254
878.568	23265
878.696	23113
878.824	23425
878.951	23486
879.079	23463
879.206	23756
879.333	23501
879.461	23288
879.588	23395
879.715	23520
879.842	23592
879.97	23337
880.097	23181
880.224	23102
880.351	23083
880.478	23086
880.605	23090
880.732	23060
880.859	23307
880.986	23037
881.112	22976
881.239	22968
881.366	22881
881.493	22790
881.619	22710
881.746	22683
881.872	22660
881.999	22531
882.125	22561
882.252	22656
882.378	22538
882.505	22664
882.631	22641
882.757	22379
882.883	22363
883.01	22291
883.136	22341
883.262	22287
883.388	22204
883.514	22314
883.64	22421
883.766	22306
883.892	22147
884.018	22200
884.143	22356
884.269	22371
884.395	22048
884.52	21960
884.646	21994
884.772	21964
884.897	21968
885.023	21987
885.148	22067
885.274	22185
885.399	22116
885.524	21949
885.65	21953
885.775	21972
885.9	21994
886.025	22112
886.15	22090
886.275	21968
886.4	21865
886.525	21949
886.65	21842
886.775	21869
886.9	22082
887.025	22128
887.149	21918
887.274	21751
887.399	21789
887.523	21789
887.648	21759
887.773	21720
887.897	21899
888.021	21819
888.146	21743
888.27	21762
888.395	21869
888.519	21819
888.643	21789
888.767	21827
888.891	21713
889.015	21557
889.139	21545
889.263	21694
889.387	21717
889.511	21755
889.635	21629
889.759	21679
889.883	21431
890.006	21496
890.13	21618
890.254	21492
890.377	21416
890.501	21310
890.624	21378
890.748	21386
890.871	21165
890.995	21017
891.118	21157
891.241	21192
891.364	21036
891.488	21230
891.611	21146
891.734	21062
891.857	21176
891.98	21184
892.103	21138
892.226	21028
892.349	20986
892.471	20807
892.594	20990
892.717	21028
892.839	21051
892.962	20925
893.085	21173
893.207	21070
893.33	20887
893.452	21024
893.575	21077
893.697	20948
893.819	21131
893.941	21245
894.064	21169
894.186	20990
894.308	20967
894.43	21074
894.552	21184
894.674	21051
894.796	20910
894.918	20872
895.04	20982
895.161	20971
895.283	20883
895.405	20982
895.526	20906
895.648	20963
895.769	21055
895.891	21032
896.012	20963
896.134	21036
896.255	20998
896.376	20937
896.498	20952
896.619	20960
896.74	20944
896.861	21036
896.982	21317
897.103	21287
897.224	21252
897.345	21173
897.466	21192
897.587	21176
897.708	21340
897.828	21116
897.949	21135
898.07	21009
898.19	21062
898.311	21233
898.431	21077
898.552	21157
898.672	21116
898.792	21211
898.913	21203
899.033	21085
899.153	20963
899.273	20902
899.393	20735
899.513	20906
899.633	20925
899.753	20971
899.873	20834
899.993	20868
900.113	20876
900.232	20864
900.352	20731
900.472	20727
900.591	20583
900.711	20708
900.83	20575
900.95	20705
901.069	20735
901.189	20564
901.308	20317
901.427	20138
901.546	20195
901.665	20149
901.784	20263
901.904	20214
902.023	20062
902.141	19795
902.26	19765
902.379	19837
902.498	19696
902.617	19540
902.735	19666
902.854	19685
902.973	19582
903.091	19403
903.21	19403
903.328	19327
903.446	19278
903.565	19244
903.683	19293
903.801	19023
903.919	19228
904.038	19160
904.156	18939
904.274	18985
904.392	18867
904.51	18901
904.627	18962
904.745	19126
904.863	18856
904.981	18772
905.098	18684
905.216	18696
905.334	18707
905.451	18673
905.569	18631
905.686	18669
905.803	18566
905.921	18353
906.038	18544
906.155	18460
906.272	18384
906.389	18289
906.506	18117
906.623	18190
906.74	18019
906.857	18083
906.974	17950
907.091	18076
907.208	18266
907.324	18209
907.441	17988
907.557	17950
907.674	17863
907.79	17798
907.907	17809
908.023	17813
908.139	17923
908.256	17813
908.372	17866
908.488	17714
908.604	17573
908.72	17611
908.836	17558
908.952	17543
909.068	17665
909.184	17710
909.3	17657
909.415	17543
909.531	17520
909.647	17330
909.762	17337
909.878	17193
909.993	17311
910.108	17231
910.224	17220
910.339	17231
910.454	17121
910.57	17079
910.685	17018
910.8	17235
910.915	17200
911.03	17067
911.145	16889
911.259	16911
911.374	16790
911.489	16710
911.604	16733
911.718	16630
911.833	16577
911.947	16459
912.062	16428
912.176	16660
912.291	16721
912.405	16596
912.519	16710
912.633	16793
912.748	16584
912.862	16558
912.976	16413
913.09	16261
913.204	16421
913.318	16481
913.431	16577
913.545	16462
913.659	16573
913.772	16371
913.886	16272
914	16105
914.113	16287
914.226	16333
914.34	16246
914.453	16177
914.566	16215
914.68	16074
914.793	16051
914.906	15854
915.019	15808
915.132	15781
915.245	15759
915.358	15804
915.47	15865
915.583	15827
915.696	15759
915.809	15888
915.921	15907
916.034	15778
916.146	15561
916.259	15625
916.371	15789
916.483	15739
916.595	15633
916.708	15663
916.82	15610
916.932	15580
917.044	15466
917.156	15549
917.268	15348
917.38	15481
917.491	15458
917.603	15370
917.715	15496
917.826	15523
917.938	15272
918.049	15260
918.161	15363
918.272	15485
918.384	15386
918.495	15359
918.606	15249
918.717	15123
918.828	15184
918.939	15138
919.05	15104
919.161	15131
919.272	14929
919.383	14952
919.494	15199
919.604	15382
919.715	15142
919.826	15017
919.936	15036
920.047	15081
920.157	15093
920.267	15233
920.378	15188
920.488	15100
920.598	15226
920.708	15359
920.818	15230
920.928	15222
921.038	15370
921.148	15218
921.258	15020
921.368	14952
921.477	14876
921.587	14800
921.697	14765
921.806	14796
921.916	14648
922.025	14473
922.134	14377
922.244	14339
922.353	14530
922.462	14317
922.571	14298
922.68	14065
922.789	14153
922.898	14119
923.007	14115
923.116	14126
923.224	14081
923.333	14092
923.442	13928
923.55	13822
923.659	13936
923.767	14016
923.876	13868
923.984	13902
924.092	13837
924.201	13868
924.309	13909
924.417	13757
924.525	13769
924.633	13788
924.741	14530
924.849	13567
924.956	13776
925.064	13590
925.172	13422
925.279	13388
925.387	13510
925.494	13472
925.602	13628
925.709	13537
925.816	13384
925.924	13430
926.031	13544
926.138	13510
926.245	13491
926.352	13415
926.459	13422
926.566	13460
926.673	13358
926.779	13244
926.886	13187
926.993	13042
927.099	13031
927.206	13072
927.312	12932
927.419	13072
927.525	13015
927.631	12920
927.737	12928
927.843	12844
927.95	12715
928.056	12856
928.162	12905
928.267	12920
928.373	13529
928.479	12894
928.585	12730
928.69	12833
928.796	12840
928.901	12745
929.007	12669
929.112	12662
929.218	12601
929.323	12597
929.428	12525
929.533	12696
929.638	12506
929.743	12483
929.848	12528
929.953	12498
930.058	12350
930.163	12076
930.267	12235
930.372	12323
930.477	12243
930.581	12422
930.685	12254
930.79	12144
930.894	12178
930.998	12057
931.103	12224
931.207	11851
931.311	11718
931.415	11642
931.519	11444
931.623	11433
