Data from test_V78500241_3572.txt Node
Date: Fri Mar 25 16:06:32 CST 2022
User: usil
Spectrometer: V785-0024
Trigger mode: 0
Integration Time (sec): 4.000000E-1
Scans to average: 1
Nonlinearity correction enabled: false
Boxcar width: 0
Storing dark spectrum: false
XAxis mode: Wavelengths
Number of Pixels in Spectrum: 1024
>>>>>Begin Spectral Data<<<<<
801.071	28672
801.214	28774
801.356	28588
801.499	28390
801.641	28470
801.783	28375
801.926	28504
802.068	28523
802.211	28367
802.353	28409
802.496	28029
802.638	28143
802.78	28135
802.923	27964
803.065	27979
803.208	28086
803.35	28135
803.492	28158
803.635	28363
803.777	28295
803.919	28356
804.061	28717
804.204	28280
804.346	28348
804.488	28196
804.63	28291
804.773	28303
804.915	28386
805.057	28474
805.199	28405
805.341	28546
805.483	28451
805.626	28398
805.768	28367
805.91	28535
806.052	28500
806.194	28447
806.336	28569
806.478	28527
806.62	28493
806.762	28660
806.904	28824
807.046	29117
807.188	29025
807.33	28965
807.472	28908
807.614	28919
807.756	28911
807.898	28847
808.04	28687
808.182	28748
808.324	28896
808.465	28896
808.607	28965
808.749	29288
808.891	29334
809.033	29341
809.174	29258
809.316	29250
809.458	29261
809.6	29136
809.741	29273
809.883	29193
810.025	29421
810.166	29467
810.308	29668
810.45	29535
810.591	29436
810.733	29246
810.875	29242
811.016	29067
811.158	29178
811.299	29242
811.441	29277
811.582	29330
811.724	29296
811.865	29368
812.007	29170
812.148	29197
812.29	29337
812.431	29375
812.573	29490
812.714	29680
812.855	29790
812.997	29756
813.138	30049
813.279	29946
813.421	29798
813.562	29771
813.703	29615
813.845	29573
813.986	29239
814.127	29147
814.268	28965
814.41	29018
814.551	28854
814.692	28953
814.833	28824
814.974	29098
815.115	29044
815.256	28873
815.397	28885
815.539	28869
815.68	28847
815.821	28668
815.962	28782
816.103	28854
816.244	28713
816.385	28466
816.526	28421
816.666	28390
816.807	28314
816.948	28249
817.089	28379
817.23	28257
817.371	28234
817.512	28177
817.653	28322
817.793	28287
817.934	28154
818.075	28295
818.216	28234
818.356	28196
818.497	28169
818.638	28063
818.778	28002
818.919	27998
819.06	28097
819.2	28238
819.341	28211
819.481	28356
819.622	28394
819.762	28618
819.903	28474
820.043	28455
820.184	28512
820.324	28455
820.465	28535
820.605	28325
820.746	28314
820.886	28169
821.026	28215
821.167	28375
821.307	28478
821.447	28348
821.588	28036
821.728	27975
821.868	27831
822.008	27831
822.149	27785
822.289	27587
822.429	27504
822.569	27507
822.709	27454
822.849	27256
822.99	27313
823.13	27180
823.27	27249
823.41	27154
823.55	26967
823.69	27119
823.83	27096
823.97	27089
824.11	27001
824.25	26857
824.389	26853
824.529	27013
824.669	26864
824.809	26994
824.949	27074
825.089	27020
825.228	26937
825.368	26800
825.508	26765
825.648	26883
825.787	26853
825.927	26830
826.067	26868
826.206	26853
826.346	26807
826.485	26925
826.625	26792
826.765	26921
826.904	26857
827.044	26533
827.183	26644
827.323	26583
827.462	26492
827.601	26545
827.741	26511
827.88	26545
828.02	26362
828.159	26457
828.298	26549
828.437	26667
828.577	26473
828.716	26571
828.855	26427
828.994	26351
829.134	26176
829.273	26096
829.412	26024
829.551	26180
829.69	26138
829.829	26240
829.968	26271
830.107	26286
830.246	26161
830.385	26172
830.524	26153
830.663	26020
830.802	25963
830.941	25906
831.08	25811
831.219	25970
831.357	26005
831.496	26016
831.635	25742
831.774	25841
831.913	25647
832.051	25476
832.19	25575
832.329	25616
832.467	25495
832.606	25514
832.744	25426
832.883	25525
833.022	25438
833.16	25381
833.299	25441
833.437	25540
833.576	25601
833.714	25674
833.852	25594
833.991	25605
834.129	25537
834.267	25708
834.406	25453
834.544	25552
834.682	25518
834.821	25533
834.959	25750
835.097	25537
835.235	25734
835.373	25556
835.511	25388
835.65	25301
835.788	25419
835.926	25266
836.064	25228
836.202	25373
836.34	25449
836.478	25632
836.615	25358
836.753	25468
836.891	25388
837.029	25422
837.167	25350
837.305	25259
837.443	25194
837.58	25285
837.718	25422
837.856	25263
837.993	25133
838.131	25217
838.269	25076
838.406	25076
838.544	25107
838.681	24840
838.819	24783
838.956	24726
839.094	24658
839.231	24726
839.369	24749
839.506	25168
839.643	24970
839.781	24688
839.918	24650
840.055	24711
840.193	24684
840.33	24578
840.467	24604
840.604	24673
840.742	24833
840.879	24429
841.016	24563
841.153	24513
841.29	24719
841.427	24555
841.564	24654
841.701	24570
841.838	24494
841.975	24448
842.112	24597
842.249	24429
842.385	24323
842.522	24505
842.659	24460
842.796	24395
842.933	24247
843.069	24323
843.206	24395
843.343	24384
843.479	24292
843.616	24304
843.752	24155
843.889	24117
844.025	24152
844.162	24144
844.298	24079
844.435	24190
844.571	23973
844.708	24178
844.844	24243
844.98	24243
845.117	24289
845.253	24018
845.389	24007
845.525	24030
845.661	24076
845.798	23840
845.934	23786
846.07	23821
846.206	23859
846.342	23939
846.478	23676
846.614	23680
846.75	23433
846.886	23596
847.022	23695
847.158	23611
847.294	23512
847.429	23619
847.565	23547
847.701	23813
847.837	23250
847.972	23273
848.108	23364
848.244	23353
848.379	23220
848.515	23178
848.65	23067
848.786	23174
848.921	23181
849.057	23322
849.192	23387
849.328	23174
849.463	23189
849.598	23216
849.734	22896
849.869	23113
850.004	22938
850.14	23079
850.275	23022
850.41	22790
850.545	22965
850.68	22896
850.815	22862
850.95	22919
851.085	23060
851.22	23029
851.355	22835
851.49	22976
851.625	22908
851.76	22900
851.895	22790
852.03	22877
852.165	22881
852.299	22919
852.434	22900
852.569	22900
852.703	22824
852.838	22911
852.973	23086
853.107	22934
853.242	22744
853.376	22744
853.511	22645
853.645	22725
853.78	22847
853.914	22805
854.048	22919
854.183	22626
854.317	22763
854.451	22999
854.585	22710
854.72	22881
854.854	22877
854.988	22717
855.122	22809
855.256	22660
855.39	22641
855.524	22736
855.658	22816
855.792	22729
855.926	22729
856.06	22725
856.194	22782
856.327	22854
856.461	22771
856.595	22573
856.729	22725
856.862	22915
856.996	22805
857.13	22736
857.263	22782
857.397	22873
857.53	22835
857.664	22748
857.797	22778
857.931	22854
858.064	22793
858.197	22736
858.331	22744
858.464	22725
858.597	22592
858.731	22797
858.864	22645
858.997	22725
859.13	22706
859.263	22656
859.396	22759
859.529	22649
859.662	22660
859.795	22752
859.928	22763
860.061	22900
860.194	22900
860.327	22778
860.46	22630
860.592	22847
860.725	22953
860.858	22793
860.99	22790
861.123	22565
861.256	22618
861.388	22828
861.521	23398
861.653	22527
861.786	22546
861.918	22656
862.05	22565
862.183	22584
862.315	22668
862.447	22733
862.58	22679
862.712	22455
862.844	22516
862.976	22653
863.108	22535
863.24	22850
863.372	22371
863.504	22474
863.636	22421
863.768	22527
863.9	22538
864.032	22459
864.164	22481
864.296	22481
864.428	22611
864.559	22592
864.691	22474
864.823	22451
864.954	22390
865.086	22257
865.217	22268
865.349	22223
865.48	22390
865.612	22322
865.743	22367
865.875	22318
866.006	22234
866.137	22261
866.269	22154
866.4	22363
866.531	22265
866.662	22093
866.793	22200
866.924	22226
867.055	22246
867.186	22246
867.317	22173
867.448	22200
867.579	22314
867.71	22109
867.841	22268
867.972	22207
868.103	22147
868.233	22215
868.364	22128
868.495	22367
868.625	22432
868.756	22386
868.886	22310
869.017	22375
869.147	22535
869.278	22618
869.408	22523
869.539	22531
869.669	22447
869.799	22542
869.929	22580
870.06	22626
870.19	22824
870.32	22717
870.45	22725
870.58	22938
870.71	22938
870.84	22949
870.97	22793
871.1	22881
871.23	23121
871.36	23124
871.489	23075
871.619	23121
871.749	23037
871.879	23159
872.008	23185
872.138	23052
872.267	22999
872.397	22885
872.526	22915
872.656	22984
872.785	23025
872.915	23109
873.044	23231
873.173	23086
873.303	23200
873.432	23128
873.561	23140
873.69	23128
873.819	23140
873.948	23235
874.077	23121
874.206	23025
874.335	23102
874.464	23143
874.593	23303
874.722	23258
874.851	23349
874.979	23326
875.108	23231
875.237	23166
875.365	23235
875.494	23208
875.623	23368
875.751	23436
875.88	23242
876.008	23440
876.136	23444
876.265	23672
876.393	23950
876.521	23767
876.65	23752
876.778	23596
876.906	23707
877.034	23691
877.162	23684
877.29	23589
877.418	23657
877.546	23619
877.674	23653
877.802	23547
877.93	23627
878.058	23600
878.185	23600
878.313	23589
878.441	23608
878.568	23478
878.696	23539
878.824	23634
878.951	23737
879.079	23847
879.206	23882
879.333	23771
879.461	23642
879.588	23817
879.715	23798
879.842	23885
879.97	23729
880.097	23364
880.224	23391
880.351	23436
880.478	23524
880.605	23364
880.732	23391
880.859	23707
880.986	23452
881.112	23410
881.239	23326
881.366	23193
881.493	23140
881.619	22915
881.746	23117
881.872	23071
881.999	22976
882.125	22938
882.252	22980
882.378	22957
882.505	23200
882.631	22721
882.757	22672
882.883	22767
883.01	22793
883.136	22683
883.262	22569
883.388	22542
883.514	22679
883.64	22752
883.766	22584
883.892	22523
884.018	22459
884.143	22599
884.269	22679
884.395	22386
884.52	22398
884.646	22337
884.772	22344
884.897	22169
885.023	22341
885.148	22390
885.274	22436
885.399	22382
885.524	22455
885.65	22291
885.775	22356
885.9	22318
886.025	22409
886.15	22367
886.275	22344
886.4	22238
886.525	22310
886.65	22249
886.775	22257
886.9	22405
887.025	22519
887.149	22280
887.274	22078
887.399	22173
887.523	22006
887.648	21949
887.773	21987
887.897	22063
888.021	22143
888.146	21987
888.27	22226
888.395	22185
888.519	22158
888.643	22086
888.767	22143
888.891	21922
889.015	21892
889.139	21956
889.263	21774
889.387	21903
889.511	22032
889.635	22025
889.759	21800
889.883	21857
890.006	21956
890.13	21994
890.254	21755
890.377	21861
890.501	21667
890.624	21511
890.748	21572
890.871	21408
890.995	21416
891.118	21283
891.241	21477
891.364	21378
891.488	21477
891.611	21363
891.734	21481
891.857	21439
891.98	21374
892.103	21431
892.226	21454
892.349	21306
892.471	21203
892.594	21374
892.717	21344
892.839	21287
892.962	21370
893.085	21264
893.207	21306
893.33	21237
893.452	21252
893.575	21386
893.697	21256
893.819	21477
893.941	21504
894.064	21370
894.186	21127
894.308	21203
894.43	21321
894.552	21462
894.674	21412
894.796	21268
894.918	21233
895.04	21116
895.161	21313
895.283	21424
895.405	21146
895.526	21401
895.648	21245
895.769	21317
895.891	21359
896.012	21393
896.134	21256
896.255	21310
896.376	21275
896.498	21268
896.619	21218
896.74	21275
896.861	21237
896.982	21557
897.103	21720
897.224	21488
897.345	21466
897.466	21363
897.587	21564
897.708	21549
897.828	21504
897.949	21435
898.07	21374
898.19	21355
898.311	21553
898.431	21401
898.552	21401
898.672	21420
898.792	21587
898.913	21549
899.033	21374
899.153	21211
899.273	21199
899.393	21237
899.513	21249
899.633	21252
899.753	21211
899.873	21222
899.993	21176
900.113	21116
900.232	21074
900.352	21024
900.472	20967
900.591	20971
900.711	21005
900.83	20906
900.95	21058
901.069	20880
901.189	20796
901.308	20800
901.427	20522
901.546	20431
901.665	20484
901.784	20511
901.904	20366
902.023	20328
902.141	20077
902.26	20024
902.379	20142
902.498	20008
902.617	19940
902.735	20077
902.854	19921
902.973	19928
903.091	19727
903.21	19708
903.328	19746
903.446	19609
903.565	19453
903.683	19487
903.801	19339
903.919	19464
904.038	19350
904.156	19213
904.274	19350
904.392	19202
904.51	19084
904.627	19255
904.745	19171
904.863	19289
904.981	18973
905.098	18905
905.216	18886
905.334	18913
905.451	18875
905.569	18905
905.686	18996
905.803	18951
905.921	18665
906.038	18741
906.155	18741
906.272	18582
906.389	18570
906.506	18433
906.623	18460
906.74	18418
906.857	18311
906.974	18315
907.091	18486
907.208	18483
907.324	18429
907.441	18243
907.557	18201
907.674	18148
907.79	18144
907.907	18091
908.023	18121
908.139	18133
908.256	18038
908.372	18068
908.488	17977
908.604	17821
908.72	17882
908.836	17821
908.952	17851
909.068	17817
909.184	17870
909.3	17897
909.415	17901
909.531	17855
909.647	17520
909.762	17551
909.878	17577
909.993	17520
910.108	17592
910.224	17398
910.339	17402
910.454	17364
910.57	17387
910.685	17261
910.8	17509
910.915	17501
911.03	17284
911.145	17258
911.259	17113
911.374	17006
911.489	17083
911.604	17048
911.718	16885
911.833	16816
911.947	16816
912.062	16725
912.176	16786
912.291	16892
912.405	16828
912.519	17033
912.633	16923
912.748	16911
912.862	16793
912.976	16733
913.09	16584
913.204	16687
913.318	16615
913.431	16744
913.545	16713
913.659	16771
913.772	16546
913.886	16577
914	16390
914.113	16405
914.226	16504
914.34	16360
914.453	16352
914.566	16474
914.68	16356
914.793	16173
914.906	16158
915.019	16036
915.132	15964
915.245	15968
915.358	15972
915.47	16044
915.583	15895
915.696	16063
915.809	16185
915.921	16082
916.034	15888
916.146	16010
916.259	15873
916.371	15865
916.483	15983
916.595	15812
916.708	15808
916.82	15854
916.932	15918
917.044	15720
917.156	15747
917.268	15637
917.38	15675
917.491	15622
917.603	15580
917.715	15717
917.826	15694
917.938	15587
918.049	15526
918.161	15587
918.272	15644
918.384	15743
918.495	15523
918.606	15389
918.717	15279
918.828	15500
918.939	15386
919.05	15218
919.161	15291
919.272	15146
919.383	15169
919.494	15488
919.604	15561
919.715	15332
919.826	15275
919.936	15279
920.047	15443
920.157	15458
920.267	15492
920.378	15306
920.488	15370
920.598	15454
920.708	15599
920.818	15462
920.928	15389
921.038	15553
921.148	15641
921.258	15275
921.368	15211
921.477	15108
921.587	15020
921.697	14826
921.806	15001
921.916	14899
922.025	14724
922.134	14746
922.244	14625
922.353	14682
922.462	14511
922.571	14461
922.68	14370
922.789	14355
922.898	14370
923.007	14294
923.116	14305
923.224	14202
923.333	14271
923.442	14096
923.55	14168
923.659	14149
923.767	14214
923.876	14058
923.984	14119
924.092	13982
924.201	14020
924.309	14035
924.417	14001
924.525	14001
924.633	13902
924.741	14815
924.849	13734
924.956	13860
925.064	13757
925.172	13609
925.279	13651
925.387	13750
925.494	13632
925.602	13708
925.709	13666
925.816	13540
925.924	13586
926.031	13742
926.138	13597
926.245	13693
926.352	13521
926.459	13609
926.566	13632
926.673	13445
926.779	13369
926.886	13358
926.993	13350
927.099	13297
927.206	13168
927.312	13141
927.419	13221
927.525	13259
927.631	13202
927.737	13103
927.843	13099
927.95	12954
928.056	13023
928.162	13008
928.267	13129
928.373	13674
928.479	13046
928.585	12924
928.69	12981
928.796	12962
928.901	12916
929.007	12798
929.112	12859
929.218	12825
929.323	12806
929.428	12741
929.533	12859
929.638	12654
929.743	12639
929.848	12730
929.953	12635
930.058	12551
930.163	12418
930.267	12433
930.372	12498
930.477	12304
930.581	12589
930.685	12452
930.79	12163
930.894	12247
930.998	12319
931.103	12422
931.207	11996
931.311	11954
931.415	11843
931.519	11688
931.623	11668
