Data from test_V78500241_3682.txt Node
Date: Fri Mar 25 16:07:18 CST 2022
User: usil
Spectrometer: V785-0024
Trigger mode: 0
Integration Time (sec): 4.000000E-1
Scans to average: 1
Nonlinearity correction enabled: false
Boxcar width: 0
Storing dark spectrum: false
XAxis mode: Wavelengths
Number of Pixels in Spectrum: 1024
>>>>>Begin Spectral Data<<<<<
801.071	28234
801.214	28070
801.356	27835
801.499	27831
801.641	27603
801.783	27736
801.926	27751
802.068	27603
802.211	27629
802.353	27625
802.496	27405
802.638	27355
802.78	27203
802.923	27412
803.065	27173
803.208	27283
803.35	27298
803.492	27530
803.635	27488
803.777	27321
803.919	27526
804.061	27865
804.204	27500
804.346	27515
804.488	27462
804.63	27690
804.773	27515
804.915	27580
805.057	27675
805.199	27511
805.341	27614
805.483	27625
805.626	27656
805.768	27526
805.91	27671
806.052	27583
806.194	27622
806.336	27816
806.478	27652
806.62	27736
806.762	27743
806.904	27892
807.046	28265
807.188	28112
807.33	28219
807.472	28070
807.614	28006
807.756	28093
807.898	28002
808.04	27861
808.182	27854
808.324	27892
808.465	28051
808.607	28230
808.749	28413
808.891	28497
809.033	28462
809.174	28455
809.316	28344
809.458	28318
809.6	28291
809.741	28459
809.883	28462
810.025	28679
810.166	28626
810.308	28672
810.45	28634
810.591	28489
810.733	28398
810.875	28325
811.016	28337
811.158	28261
811.299	28390
811.441	28455
811.582	28417
811.724	28310
811.865	28356
812.007	28314
812.148	28348
812.29	28470
812.431	28512
812.573	28710
812.714	28702
812.855	28771
812.997	29033
813.138	29006
813.279	28904
813.421	28828
813.562	28717
813.703	28630
813.845	28599
813.986	28352
814.127	28181
814.268	28166
814.41	28070
814.551	27823
814.692	28070
814.833	27968
814.974	28063
815.115	27956
815.256	27736
815.397	27937
815.539	27899
815.68	27941
815.821	27770
815.962	27914
816.103	27812
816.244	27656
816.385	27587
816.526	27629
816.666	27401
816.807	27275
816.948	27393
817.089	27454
817.23	27313
817.371	27294
817.512	27424
817.653	27241
817.793	27298
817.934	27374
818.075	27336
818.216	27374
818.356	27230
818.497	27138
818.638	26963
818.778	27043
818.919	26940
819.06	27074
819.2	27173
819.341	27256
819.481	27302
819.622	27500
819.762	27705
819.903	27488
820.043	27599
820.184	27424
820.324	27427
820.465	27515
820.605	27397
820.746	27424
820.886	27386
821.026	27397
821.167	27412
821.307	27439
821.447	27386
821.588	27233
821.728	27264
821.868	26857
822.008	26872
822.149	26952
822.289	26758
822.429	26663
822.569	26446
822.709	26507
822.849	26320
822.99	26286
823.13	26332
823.27	26248
823.41	26199
823.55	26058
823.69	26176
823.83	26218
823.97	26130
824.11	26001
824.25	25951
824.389	26039
824.529	26050
824.669	25883
824.809	26027
824.949	26100
825.089	26111
825.228	26001
825.368	25795
825.508	25734
825.648	25761
825.787	25944
825.927	26024
826.067	25868
826.206	25970
826.346	25890
826.485	25890
826.625	25906
826.765	25932
826.904	25902
827.044	25727
827.183	25609
827.323	25544
827.462	25457
827.601	25472
827.741	25483
827.88	25635
828.02	25426
828.159	25476
828.298	25487
828.437	25616
828.577	25411
828.716	25575
828.855	25457
828.994	25331
829.134	25244
829.273	25103
829.412	25312
829.551	25061
829.69	25266
829.829	25225
829.968	25384
830.107	25324
830.246	25183
830.385	25285
830.524	25190
830.663	25129
830.802	24966
830.941	24806
831.08	24783
831.219	24970
831.357	24837
831.496	25099
831.635	24932
831.774	24730
831.913	24696
832.051	24677
832.19	24703
832.329	24703
832.467	24578
832.606	24563
832.744	24418
832.883	24601
833.022	24578
833.16	24422
833.299	24601
833.437	24620
833.576	24692
833.714	24585
833.852	24608
833.991	24650
834.129	24703
834.267	24646
834.406	24585
834.544	24703
834.682	24585
834.821	24536
834.959	24783
835.097	24517
835.235	24623
835.373	24479
835.511	24627
835.65	24452
835.788	24490
835.926	24197
836.064	24254
836.202	24273
836.34	24517
836.478	24422
836.615	24273
836.753	24323
836.891	24513
837.029	24304
837.167	24456
837.305	24361
837.443	24315
837.58	24194
837.718	24391
837.856	24148
837.993	24186
838.131	24163
838.269	24068
838.406	24197
838.544	24110
838.681	23809
838.819	23882
838.956	23714
839.094	23668
839.231	23847
839.369	23764
839.506	24121
839.643	23965
839.781	23665
839.918	23729
840.055	23748
840.193	23638
840.33	23596
840.467	23680
840.604	23680
840.742	23847
840.879	23570
841.016	23543
841.153	23512
841.29	23828
841.427	23577
841.564	23665
841.701	23535
841.838	23486
841.975	23493
842.112	23493
842.249	23459
842.385	23379
842.522	23558
842.659	23501
842.796	23497
842.933	23429
843.069	23322
843.206	23360
843.343	23440
843.479	23410
843.616	23356
843.752	23220
843.889	23204
844.025	23284
844.162	23216
844.298	23265
844.435	23128
844.571	23083
844.708	23242
844.844	23235
844.98	23242
845.117	23356
845.253	23022
845.389	22877
845.525	23010
845.661	22961
845.798	22809
845.934	22908
846.07	22831
846.206	22927
846.342	22980
846.478	22927
846.614	22645
846.75	22565
846.886	22550
847.022	22649
847.158	22656
847.294	22542
847.429	22721
847.565	22546
847.701	22828
847.837	22436
847.972	22348
848.108	22478
848.244	22360
848.379	22234
848.515	22181
848.65	22223
848.786	22329
848.921	22112
849.057	22344
849.192	22234
849.328	22268
849.463	22154
849.598	22352
849.734	22070
849.869	21945
850.004	22063
850.14	22010
850.275	21953
850.41	21892
850.545	21907
850.68	21880
850.815	21987
850.95	21915
851.085	22162
851.22	22131
851.355	22017
851.49	21979
851.625	21953
851.76	21945
851.895	21964
852.03	21895
852.165	22010
852.299	22040
852.434	21968
852.569	21991
852.703	22017
852.838	21895
852.973	22036
853.107	22021
853.242	21953
853.376	21831
853.511	21660
853.645	21819
853.78	21930
853.914	21827
854.048	21888
854.183	21926
854.317	21816
854.451	21979
854.585	21819
854.72	21804
854.854	22044
854.988	21846
855.122	21827
855.256	21679
855.39	21736
855.524	21854
855.658	21888
855.792	21876
855.926	21800
856.06	21861
856.194	21903
856.327	21762
856.461	21774
856.595	21736
856.729	21797
856.862	21956
856.996	21838
857.13	21907
857.263	21892
857.397	21983
857.53	21778
857.664	21892
857.797	21895
857.931	21793
858.064	21770
858.197	21797
858.331	21797
858.464	21743
858.597	21720
858.731	21793
858.864	21728
858.997	21778
859.13	21755
859.263	21857
859.396	21781
859.529	21793
859.662	21816
859.795	21800
859.928	21895
860.061	21972
860.194	22051
860.327	21899
860.46	21812
860.592	21964
860.725	21915
860.858	21979
860.99	21884
861.123	21732
861.256	21675
861.388	21854
861.521	22481
861.653	21698
861.786	21515
861.918	21720
862.05	21675
862.183	21838
862.315	21720
862.447	21755
862.58	21663
862.712	21534
862.844	21526
862.976	21530
863.108	21633
863.24	21994
863.372	21431
863.504	21572
863.636	21644
863.768	21682
863.9	21515
864.032	21488
864.164	21557
864.296	21576
864.428	21549
864.559	21682
864.691	21538
864.823	21564
864.954	21526
865.086	21374
865.217	21443
865.349	21287
865.48	21416
865.612	21405
865.743	21568
865.875	21473
866.006	21485
866.137	21420
866.269	21325
866.4	21351
866.531	21272
866.662	21325
866.793	21245
866.924	21310
867.055	21367
867.186	21310
867.317	21222
867.448	21386
867.579	21397
867.71	21294
867.841	21226
867.972	21321
868.103	21321
868.233	21439
868.364	21306
868.495	21382
868.625	21587
868.756	21686
868.886	21488
869.017	21713
869.147	21641
869.278	21724
869.408	21568
869.539	21587
869.669	21633
869.799	21625
869.929	21743
870.06	21675
870.19	21915
870.32	21762
870.45	21892
870.58	21983
870.71	22116
870.84	22063
870.97	22101
871.1	22051
871.23	22204
871.36	22188
871.489	22059
871.619	22230
871.749	22029
871.879	22181
872.008	22363
872.138	22192
872.267	22063
872.397	22086
872.526	22002
872.656	22040
872.785	22120
872.915	22223
873.044	22219
873.173	22238
873.303	22219
873.432	22249
873.561	22344
873.69	22242
873.819	22124
873.948	22344
874.077	22257
874.206	22223
874.335	22352
874.464	22325
874.593	22573
874.722	22363
874.851	22443
874.979	22356
875.108	22481
875.237	22535
875.365	22306
875.494	22356
875.623	22470
875.751	22546
875.88	22519
876.008	22679
876.136	22691
876.265	22733
876.393	22889
876.521	22908
876.65	22904
876.778	22820
876.906	22740
877.034	22740
877.162	22755
877.29	22641
877.418	22729
877.546	22801
877.674	22771
877.802	22774
877.93	22835
878.058	22809
878.185	22649
878.313	22710
878.441	22820
878.568	22672
878.696	22721
878.824	22809
878.951	22820
879.079	22957
879.206	23060
879.333	22965
879.461	22725
879.588	22721
879.715	22968
879.842	23060
879.97	22847
880.097	22641
880.224	22611
880.351	22588
880.478	22577
880.605	22481
880.732	22481
880.859	22843
880.986	22557
881.112	22497
881.239	22481
881.366	22322
881.493	22291
881.619	22143
881.746	22280
881.872	22166
881.999	22116
882.125	22059
882.252	22207
882.378	22242
882.505	22291
882.631	22063
882.757	21884
882.883	21892
883.01	21884
883.136	21857
883.262	21736
883.388	21751
883.514	21861
883.64	21774
883.766	21812
883.892	21606
884.018	21663
884.143	21838
884.269	21682
884.395	21679
884.52	21496
884.646	21564
884.772	21458
884.897	21424
885.023	21488
885.148	21481
885.274	21625
885.399	21530
885.524	21599
885.65	21477
885.775	21386
885.9	21382
886.025	21568
886.15	21496
886.275	21496
886.4	21431
886.525	21488
886.65	21351
886.775	21439
886.9	21572
887.025	21720
887.149	21504
887.274	21169
887.399	21192
887.523	21321
887.648	21116
887.773	21165
887.897	21424
888.021	21310
888.146	21188
888.27	21348
888.395	21363
888.519	21279
888.643	21192
888.767	21195
888.891	21146
889.015	21032
889.139	20948
889.263	21047
889.387	21226
889.511	21287
889.635	21211
889.759	20975
889.883	21066
890.006	21074
890.13	21108
890.254	20944
890.377	20823
890.501	20895
890.624	20773
890.748	20941
890.871	20735
890.995	20571
891.118	20549
891.241	20651
891.364	20594
891.488	20720
891.611	20724
891.734	20674
891.857	20583
891.98	20640
892.103	20678
892.226	20651
892.349	20587
892.471	20381
892.594	20495
892.717	20522
892.839	20541
892.962	20476
893.085	20571
893.207	20541
893.33	20465
893.452	20343
893.575	20560
893.697	20423
893.819	20712
893.941	20587
894.064	20651
894.186	20507
894.308	20404
894.43	20609
894.552	20640
894.674	20636
894.796	20454
894.918	20446
895.04	20454
895.161	20609
895.283	20579
895.405	20434
895.526	20503
895.648	20495
895.769	20507
895.891	20530
896.012	20568
896.134	20427
896.255	20461
896.376	20450
896.498	20514
896.619	20537
896.74	20556
896.861	20552
896.982	20727
897.103	20902
897.224	20701
897.345	20682
897.466	20636
897.587	20754
897.708	20842
897.828	20876
897.949	20689
898.07	20522
898.19	20648
898.311	20823
898.431	20621
898.552	20667
898.672	20750
898.792	20758
898.913	20735
899.033	20697
899.153	20518
899.273	20457
899.393	20541
899.513	20450
899.633	20454
899.753	20598
899.873	20404
899.993	20507
900.113	20389
900.232	20381
900.352	20400
900.472	20286
900.591	20202
900.711	20214
900.83	20157
900.95	20389
901.069	20286
901.189	20020
901.308	19906
901.427	19719
901.546	19784
901.665	19841
901.784	19822
901.904	19814
902.023	19556
902.141	19430
902.26	19293
902.379	19415
902.498	19297
902.617	19240
902.735	19396
902.854	19312
902.973	19209
903.091	19065
903.21	19000
903.328	19019
903.446	18924
903.565	18871
903.683	18806
903.801	18661
903.919	18802
904.038	18741
904.156	18620
904.274	18646
904.392	18532
904.51	18448
904.627	18612
904.745	18642
904.863	18585
904.981	18323
905.098	18239
905.216	18224
905.334	18391
905.451	18087
905.569	18182
905.686	18247
905.803	18209
905.921	17950
906.038	18205
906.155	17999
906.272	17764
906.389	17878
906.506	17771
906.623	17805
906.74	17703
906.857	17611
906.974	17703
907.091	17741
907.208	17775
907.324	17790
907.441	17581
907.557	17429
907.674	17467
907.79	17387
907.907	17356
908.023	17402
908.139	17471
908.256	17398
908.372	17360
908.488	17391
908.604	17273
908.72	17239
908.836	17166
908.952	17170
909.068	17212
909.184	17216
909.3	17102
909.415	17204
909.531	17292
909.647	16892
909.762	16889
909.878	16767
909.993	16778
910.108	16759
910.224	16786
910.339	16816
910.454	16740
910.57	16710
910.685	16752
910.8	16873
910.915	16755
911.03	16713
911.145	16558
911.259	16466
911.374	16504
911.489	16466
911.604	16268
911.718	16257
911.833	16253
911.947	16177
912.062	16006
912.176	16318
912.291	16196
912.405	16150
912.519	16390
912.633	16268
912.748	16207
912.862	16196
912.976	15953
913.09	15838
913.204	15998
913.318	16093
913.431	16120
913.545	16082
913.659	16040
913.772	15975
913.886	15884
914	15831
914.113	15884
914.226	15987
914.34	15911
914.453	15682
914.566	15812
914.68	15717
914.793	15709
914.906	15477
915.019	15401
915.132	15370
915.245	15397
915.358	15389
915.47	15359
915.583	15458
915.696	15504
915.809	15553
915.921	15610
916.034	15363
916.146	15313
916.259	15275
916.371	15424
916.483	15272
916.595	15275
916.708	15249
916.82	15287
916.932	15188
917.044	15218
917.156	15180
917.268	15039
917.38	15070
917.491	14998
917.603	15005
917.715	15169
917.826	15138
917.938	15055
918.049	14826
918.161	14921
918.272	15039
918.384	15077
918.495	14929
918.606	14864
918.717	14857
918.828	14842
918.939	14838
919.05	14724
919.161	14754
919.272	14667
919.383	14670
919.494	14864
919.604	14998
919.715	14754
919.826	14716
919.936	14712
920.047	14769
920.157	14796
920.267	15017
920.378	14731
920.488	14697
920.598	14982
920.708	15089
920.818	14857
920.928	14834
921.038	15043
921.148	15058
921.258	14613
921.368	14541
921.477	14511
921.587	14469
921.697	14461
921.806	14507
921.916	14336
922.025	14305
922.134	14187
922.244	14062
922.353	14191
922.462	14012
922.571	13947
922.68	13883
922.789	13833
922.898	13738
923.007	13803
923.116	13788
923.224	13723
923.333	13753
923.442	13655
923.55	13643
923.659	13647
923.767	13712
923.876	13571
923.984	13636
924.092	13483
924.201	13597
924.309	13506
924.417	13502
924.525	13350
924.633	13464
924.741	14442
924.849	13270
924.956	13358
925.064	13190
925.172	13156
925.279	13175
925.387	13133
925.494	13160
925.602	13289
925.709	13164
925.816	13061
925.924	13095
926.031	13198
926.138	13206
926.245	13164
926.352	13057
926.459	13152
926.566	13122
926.673	13114
926.779	12970
926.886	12863
926.993	12760
927.099	12719
927.206	12726
927.312	12692
927.419	12768
927.525	12703
927.631	12783
927.737	12604
927.843	12578
927.95	12536
928.056	12551
928.162	12612
928.267	12642
928.373	13179
928.479	12662
928.585	12391
928.69	12441
928.796	12471
928.901	12460
929.007	12159
929.112	12441
929.218	12281
929.323	12239
929.428	12300
929.533	12460
929.638	12243
929.743	12285
929.848	12247
929.953	12163
930.058	12190
930.163	11904
930.267	11980
930.372	12091
930.477	11923
930.581	12163
930.685	12030
930.79	11824
930.894	11821
930.998	11756
931.103	11920
931.207	11558
931.311	11425
931.415	11501
931.519	11284
931.623	11315
