Data from test_V78500241_3666.txt Node
Date: Fri Mar 25 16:07:11 CST 2022
User: usil
Spectrometer: V785-0024
Trigger mode: 0
Integration Time (sec): 4.000000E-1
Scans to average: 1
Nonlinearity correction enabled: false
Boxcar width: 0
Storing dark spectrum: false
XAxis mode: Wavelengths
Number of Pixels in Spectrum: 1024
>>>>>Begin Spectral Data<<<<<
801.071	28459
801.214	28303
801.356	28063
801.499	28139
801.641	27835
801.783	27884
801.926	27960
802.068	27747
802.211	27884
802.353	27793
802.496	27614
802.638	27595
802.78	27561
802.923	27458
803.065	27424
803.208	27545
803.35	27572
803.492	27705
803.635	27732
803.777	27751
803.919	27751
804.061	28128
804.204	27857
804.346	27778
804.488	27679
804.63	27667
804.773	27759
804.915	27892
805.057	28048
805.199	27724
805.341	27930
805.483	27793
805.626	28040
805.768	27903
805.91	27842
806.052	27892
806.194	27911
806.336	28101
806.478	28067
806.62	27880
806.762	28090
806.904	28223
807.046	28615
807.188	28401
807.33	28360
807.472	28451
807.614	28261
807.756	28329
807.898	28280
808.04	28249
808.182	28101
808.324	28215
808.465	28280
808.607	28580
808.749	28713
808.891	28809
809.033	28752
809.174	28778
809.316	28649
809.458	28615
809.6	28538
809.741	28660
809.883	28752
810.025	28866
810.166	28835
810.308	28885
810.45	28892
810.591	28847
810.733	28618
810.875	28626
811.016	28577
811.158	28447
811.299	28759
811.441	28843
811.582	28858
811.724	28550
811.865	28660
812.007	28592
812.148	28786
812.29	28790
812.431	28869
812.573	29048
812.714	29064
812.855	29090
812.997	29181
813.138	29315
813.279	29212
813.421	29090
813.562	29155
813.703	28942
813.845	28847
813.986	28599
814.127	28382
814.268	28291
814.41	28375
814.551	28310
814.692	28493
814.833	28375
814.974	28325
815.115	28322
815.256	28082
815.397	28131
815.539	28135
815.68	28109
815.821	28029
815.962	28128
816.103	28124
816.244	28090
816.385	27835
816.526	28036
816.666	27736
816.807	27652
816.948	27641
817.089	27816
817.23	27682
817.371	27568
817.512	27599
817.653	27606
817.793	27583
817.934	27572
818.075	27629
818.216	27660
818.356	27595
818.497	27401
818.638	27412
818.778	27397
818.919	27401
819.06	27523
819.2	27610
819.341	27523
819.481	27610
819.622	27701
819.762	28006
819.903	27747
820.043	27797
820.184	27656
820.324	27770
820.465	27819
820.605	27816
820.746	27656
820.886	27564
821.026	27701
821.167	27766
821.307	27797
821.447	27671
821.588	27538
821.728	27389
821.868	27237
822.008	27173
822.149	27119
822.289	27161
822.429	26788
822.569	26853
822.709	26899
822.849	26629
822.99	26602
823.13	26762
823.27	26476
823.41	26476
823.55	26351
823.69	26480
823.83	26446
823.97	26476
824.11	26339
824.25	26252
824.389	26149
824.529	26324
824.669	26343
824.809	26366
824.949	26225
825.089	26309
825.228	26320
825.368	26069
825.508	26005
825.648	25997
825.787	26043
825.927	26149
826.067	26088
826.206	26122
826.346	26218
826.485	26153
826.625	26103
826.765	26324
826.904	26164
827.044	25936
827.183	25845
827.323	25925
827.462	25860
827.601	25864
827.741	25868
827.88	25837
828.02	25727
828.159	25769
828.298	25906
828.437	25837
828.577	25841
828.716	25917
828.855	25677
828.994	25571
829.134	25556
829.273	25556
829.412	25559
829.551	25556
829.69	25479
829.829	25582
829.968	25662
830.107	25677
830.246	25586
830.385	25426
830.524	25472
830.663	25327
830.802	25255
830.941	25141
831.08	25221
831.219	25381
831.357	25270
831.496	25464
831.635	25141
831.774	25034
831.913	24970
832.051	25031
832.19	24943
832.329	25046
832.467	24848
832.606	24863
832.744	24772
832.883	24848
833.022	24802
833.16	24764
833.299	24821
833.437	24783
833.576	24954
833.714	24901
833.852	24973
833.991	24890
834.129	24954
834.267	24981
834.406	24943
834.544	25012
834.682	24829
834.821	24935
834.959	24943
835.097	24840
835.235	24791
835.373	24890
835.511	24962
835.65	24726
835.788	24821
835.926	24616
836.064	24483
836.202	24589
836.34	24711
836.478	24661
836.615	24635
836.753	24760
836.891	24875
837.029	24677
837.167	24673
837.305	24631
837.443	24540
837.58	24509
837.718	24658
837.856	24509
837.993	24350
838.131	24536
838.269	24456
838.406	24498
838.544	24464
838.681	24235
838.819	24110
838.956	24060
839.094	24022
839.231	24068
839.369	24296
839.506	24388
839.643	24197
839.781	24022
839.918	24060
840.055	23893
840.193	24022
840.33	23912
840.467	23946
840.604	24011
840.742	24197
840.879	23710
841.016	23954
841.153	23802
841.29	23999
841.427	23878
841.564	23969
841.701	23851
841.838	23840
841.975	23836
842.112	23798
842.249	23855
842.385	23718
842.522	24026
842.659	23737
842.796	23741
842.933	23843
843.069	23642
843.206	23627
843.343	23676
843.479	23684
843.616	23608
843.752	23505
843.889	23436
844.025	23547
844.162	23417
844.298	23562
844.435	23551
844.571	23455
844.708	23421
844.844	23562
844.98	23478
845.117	23638
845.253	23379
845.389	23280
845.525	23296
845.661	23299
845.798	23121
845.934	23265
846.07	23102
846.206	23242
846.342	23204
846.478	23151
846.614	23064
846.75	22911
846.886	22866
847.022	23010
847.158	22934
847.294	22953
847.429	22980
847.565	22927
847.701	23090
847.837	22656
847.972	22668
848.108	22687
848.244	22668
848.379	22561
848.515	22531
848.65	22542
848.786	22459
848.921	22516
849.057	22538
849.192	22607
849.328	22569
849.463	22538
849.598	22379
849.734	22375
849.869	22390
850.004	22344
850.14	22352
850.275	22284
850.41	22147
850.545	22234
850.68	22257
850.815	22284
850.95	22242
851.085	22474
851.22	22405
851.355	22257
851.49	22276
851.625	22207
851.76	22185
851.895	22169
852.03	22253
852.165	22322
852.299	22287
852.434	22455
852.569	22223
852.703	22322
852.838	22371
852.973	22375
853.107	22322
853.242	22226
853.376	22082
853.511	22029
853.645	22078
853.78	22177
853.914	22150
854.048	22135
854.183	22036
854.317	22211
854.451	22382
854.585	22109
854.72	22124
854.854	22143
854.988	22135
855.122	22207
855.256	21945
855.39	22036
855.524	22257
855.658	22124
855.792	22128
855.926	22215
856.06	22230
856.194	22158
856.327	22120
856.461	22021
856.595	22090
856.729	22051
856.862	22128
856.996	22086
857.13	22105
857.263	22162
857.397	22147
857.53	22128
857.664	22207
857.797	22150
857.931	22310
858.064	22059
858.197	22234
858.331	22234
858.464	22070
858.597	21922
858.731	22109
858.864	22131
858.997	22090
859.13	22120
859.263	22162
859.396	22112
859.529	22124
859.662	22196
859.795	22006
859.928	22158
860.061	22287
860.194	22337
860.327	22082
860.46	21987
860.592	22295
860.725	22325
860.858	22204
860.99	22116
861.123	22021
861.256	21945
861.388	22131
861.521	22786
861.653	21968
861.786	21854
861.918	22029
862.05	22013
862.183	22010
862.315	22105
862.447	22112
862.58	22021
862.712	21755
862.844	21762
862.976	21922
863.108	21880
863.24	22192
863.372	21835
863.504	21812
863.636	21732
863.768	21842
863.9	21759
864.032	21816
864.164	21850
864.296	21789
864.428	21861
864.559	21835
864.691	21899
864.823	21762
864.954	21911
865.086	21736
865.217	21705
865.349	21603
865.48	21823
865.612	21641
865.743	21895
865.875	21625
866.006	21648
866.137	21694
866.269	21637
866.4	21549
866.531	21682
866.662	21557
866.793	21576
866.924	21576
867.055	21526
867.186	21751
867.317	21580
867.448	21462
867.579	21576
867.71	21618
867.841	21591
867.972	21679
868.103	21599
868.233	21671
868.364	21724
868.495	21705
868.625	21812
868.756	21987
868.886	21701
869.017	21823
869.147	21937
869.278	21884
869.408	21892
869.539	21884
869.669	21953
869.799	22029
869.929	22097
870.06	21956
870.19	21960
870.32	22139
870.45	22211
870.58	22219
870.71	22348
870.84	22356
870.97	22341
871.1	22322
871.23	22382
871.36	22542
871.489	22394
871.619	22493
871.749	22535
871.879	22481
872.008	22546
872.138	22455
872.267	22584
872.397	22394
872.526	22253
872.656	22230
872.785	22382
872.915	22481
873.044	22561
873.173	22451
873.303	22565
873.432	22565
873.561	22615
873.69	22592
873.819	22474
873.948	22717
874.077	22485
874.206	22466
874.335	22371
874.464	22599
874.593	22755
874.722	22683
874.851	22702
874.979	22740
875.108	22904
875.237	22660
875.365	22554
875.494	22698
875.623	22748
875.751	22630
875.88	22675
876.008	22866
876.136	22839
876.265	23124
876.393	23254
876.521	23220
876.65	23181
876.778	23056
876.906	23025
877.034	23041
877.162	23060
877.29	23041
877.418	23086
877.546	23128
877.674	23048
877.802	22980
877.93	23041
878.058	22987
878.185	22896
878.313	22927
878.441	23037
878.568	22881
878.696	22934
878.824	23056
878.951	23090
879.079	23220
879.206	23307
879.333	23189
879.461	23174
879.588	23178
879.715	23155
879.842	23265
879.97	23052
880.097	22869
880.224	22953
880.351	22919
880.478	22854
880.605	22835
880.732	22850
880.859	23044
880.986	22892
881.112	22904
881.239	22805
881.366	22512
881.493	22554
881.619	22481
881.746	22546
881.872	22382
881.999	22421
882.125	22470
882.252	22375
882.378	22405
882.505	22485
882.631	22234
882.757	22181
882.883	22177
883.01	22120
883.136	22097
883.262	21994
883.388	21983
883.514	22093
883.64	22249
883.766	22055
883.892	21892
884.018	21926
884.143	22010
884.269	22131
884.395	21869
884.52	21793
884.646	21819
884.772	21709
884.897	21633
885.023	21808
885.148	21838
885.274	21922
885.399	21857
885.524	21781
885.65	21770
885.775	21797
885.9	21751
886.025	21873
886.15	21804
886.275	21618
886.4	21625
886.525	21766
886.65	21660
886.775	21701
886.9	21804
887.025	21998
887.149	21774
887.274	21549
887.399	21553
887.523	21545
887.648	21553
887.773	21310
887.897	21580
888.021	21572
888.146	21504
888.27	21523
888.395	21641
888.519	21488
888.643	21530
888.767	21614
888.891	21431
889.015	21397
889.139	21313
889.263	21359
889.387	21416
889.511	21583
889.635	21485
889.759	21272
889.883	21245
890.006	21363
890.13	21306
890.254	21370
890.377	21230
890.501	21093
890.624	20960
890.748	21127
890.871	20868
890.995	20895
891.118	20845
891.241	20899
891.364	20823
891.488	20982
891.611	20845
891.734	20804
891.857	20956
891.98	20754
892.103	20819
892.226	20895
892.349	20800
892.471	20762
892.594	20830
892.717	20891
892.839	20667
892.962	20800
893.085	20826
893.207	20781
893.33	20579
893.452	20590
893.575	20800
893.697	20708
893.819	21005
893.941	20971
894.064	20902
894.186	20651
894.308	20712
894.43	20902
894.552	20956
894.674	20899
894.796	20663
894.918	20682
895.04	20727
895.161	20842
895.283	20735
895.405	20720
895.526	20739
895.648	20720
895.769	20891
895.891	20773
896.012	20861
896.134	20758
896.255	20735
896.376	20670
896.498	20712
896.619	20868
896.74	20785
896.861	20777
896.982	21077
897.103	21211
897.224	20963
897.345	20834
897.466	21036
897.587	21020
897.708	21116
897.828	21051
897.949	20868
898.07	20853
898.19	20765
898.311	21036
898.431	20929
898.552	20967
898.672	21100
898.792	21020
898.913	21009
899.033	20876
899.153	20769
899.273	20674
899.393	20663
899.513	20765
899.633	20701
899.753	20705
899.873	20689
899.993	20727
900.113	20727
900.232	20613
900.352	20617
900.472	20522
900.591	20423
900.711	20423
900.83	20454
900.95	20594
901.069	20454
901.189	20256
901.308	20122
901.427	19944
901.546	19925
901.665	19993
901.784	20001
901.904	19982
902.023	19674
902.141	19616
902.26	19704
902.379	19666
902.498	19491
902.617	19464
902.735	19533
902.854	19609
902.973	19403
903.091	19225
903.21	19171
903.328	19133
903.446	19171
903.565	18981
903.683	19012
903.801	18932
903.919	18947
904.038	18966
904.156	18764
904.274	18897
904.392	18734
904.51	18817
904.627	18783
904.745	18821
904.863	18848
904.981	18677
905.098	18479
905.216	18380
905.334	18410
905.451	18502
905.569	18380
905.686	18407
905.803	18532
905.921	18125
906.038	18353
906.155	18235
906.272	18068
906.389	18209
906.506	17988
906.623	17988
906.74	18041
906.857	17847
906.974	17882
907.091	18095
907.208	18049
907.324	18011
907.441	17847
907.557	17794
907.674	17691
907.79	17611
907.907	17611
908.023	17775
908.139	17627
908.256	17520
908.372	17535
908.488	17585
908.604	17505
908.72	17421
908.836	17398
908.952	17417
909.068	17383
909.184	17505
909.3	17440
909.415	17509
909.531	17463
909.647	17128
909.762	17067
909.878	17113
909.993	17102
910.108	17018
910.224	17098
910.339	17121
910.454	16961
910.57	16793
910.685	16843
910.8	17155
910.915	17105
911.03	16904
911.145	16763
911.259	16660
911.374	16721
911.489	16653
911.604	16660
911.718	16459
911.833	16554
911.947	16363
912.062	16276
912.176	16421
912.291	16367
912.405	16329
912.519	16607
912.633	16603
912.748	16527
912.862	16424
912.976	16226
913.09	16196
913.204	16200
913.318	16272
913.431	16409
913.545	16272
913.659	16379
913.772	16177
913.886	16101
914	16124
914.113	16093
914.226	16169
914.34	16150
914.453	15907
914.566	16010
914.68	15964
914.793	15804
914.906	15690
915.019	15660
915.132	15625
915.245	15606
915.358	15610
915.47	15701
915.583	15614
915.696	15671
915.809	15690
915.921	15781
916.034	15526
916.146	15526
916.259	15492
916.371	15561
916.483	15523
916.595	15496
916.708	15481
916.82	15405
916.932	15306
917.044	15412
917.156	15344
917.268	15336
917.38	15222
917.491	15233
917.603	15249
917.715	15291
917.826	15321
917.938	15180
918.049	15028
918.161	15112
918.272	15275
918.384	15283
918.495	15135
918.606	14975
918.717	14998
918.828	15058
918.939	15020
919.05	14960
919.161	14944
919.272	14765
919.383	14864
919.494	15024
919.604	15199
919.715	14880
919.826	14876
919.936	14941
920.047	14960
920.157	14952
920.267	15066
920.378	14906
920.488	14899
920.598	15142
920.708	15226
920.818	15066
920.928	15070
921.038	15237
921.148	15218
921.258	14899
921.368	14853
921.477	14655
921.587	14705
921.697	14488
921.806	14712
921.916	14621
922.025	14419
922.134	14286
922.244	14332
922.353	14313
922.462	14191
922.571	14115
922.68	14020
922.789	14046
922.898	13997
923.007	13940
923.116	13970
923.224	13928
923.333	14027
923.442	13780
923.55	13772
923.659	13712
923.767	13906
923.876	13715
923.984	13799
924.092	13662
924.201	13712
924.309	13715
924.417	13643
924.525	13514
924.633	13639
924.741	14526
924.849	13411
924.956	13502
925.064	13457
925.172	13274
925.279	13400
925.387	13434
925.494	13396
925.602	13521
925.709	13388
925.816	13259
925.924	13194
926.031	13377
926.138	13278
926.245	13327
926.352	13190
926.459	13316
926.566	13411
926.673	13225
926.779	13126
926.886	13175
926.993	12890
927.099	12924
927.206	12852
927.312	12856
927.419	12882
927.525	12958
927.631	12890
927.737	12837
927.843	12760
927.95	12677
928.056	12715
928.162	12757
928.267	12772
928.373	13335
928.479	12810
928.585	12525
928.69	12730
928.796	12654
928.901	12574
929.007	12475
929.112	12585
929.218	12547
929.323	12471
929.428	12452
929.533	12460
929.638	12369
929.743	12285
929.848	12407
929.953	12304
930.058	12232
930.163	12079
930.267	12038
930.372	12292
930.477	12049
930.581	12353
930.685	12239
930.79	11999
930.894	12019
930.998	11946
931.103	12121
931.207	11691
931.311	11649
931.415	11528
931.519	11288
931.623	11368
