Data from test_V78500241_606.txt Node
Date: Fri Mar 25 15:45:59 CST 2022
User: usil
Spectrometer: V785-0024
Trigger mode: 0
Integration Time (sec): 4.000000E-1
Scans to average: 1
Nonlinearity correction enabled: false
Boxcar width: 0
Storing dark spectrum: false
XAxis mode: Wavelengths
Number of Pixels in Spectrum: 1024
>>>>>Begin Spectral Data<<<<<
801.071	27553
801.214	27351
801.356	27325
801.499	27199
801.641	27081
801.783	27157
801.926	27081
802.068	27093
802.211	27089
802.353	26880
802.496	26830
802.638	26804
802.78	26651
802.923	26617
803.065	26705
803.208	26617
803.35	26705
803.492	26883
803.635	27020
803.777	26792
803.919	26819
804.061	27180
804.204	26853
804.346	26678
804.488	26857
804.63	26842
804.773	26705
804.915	26979
805.057	26937
805.199	26895
805.341	26952
805.483	26952
805.626	26845
805.768	27005
805.91	26796
806.052	27005
806.194	26826
806.336	27051
806.478	26990
806.62	26895
806.762	27096
806.904	27268
807.046	27526
807.188	27310
807.33	27355
807.472	27507
807.614	27466
807.756	27332
807.898	27325
808.04	27279
808.182	27298
808.324	27241
808.465	27363
808.607	27603
808.749	27572
808.891	27568
809.033	27808
809.174	27644
809.316	27766
809.458	27732
809.6	27667
809.741	27846
809.883	27701
810.025	27926
810.166	27903
810.308	27857
810.45	27819
810.591	27732
810.733	27648
810.875	27561
811.016	27530
811.158	27462
811.299	27648
811.441	27835
811.582	27762
811.724	27580
811.865	27458
812.007	27469
812.148	27618
812.29	27675
812.431	27679
812.573	28025
812.714	28097
812.855	28162
812.997	28246
813.138	28344
813.279	28265
813.421	27998
813.562	28109
813.703	27972
813.845	27911
813.986	27542
814.127	27367
814.268	27252
814.41	27313
814.551	27230
814.692	27355
814.833	27222
814.974	27161
815.115	27249
815.256	27146
815.397	27104
815.539	27093
815.68	27135
815.821	26975
815.962	27036
816.103	26960
816.244	26956
816.385	26979
816.526	26807
816.666	26712
816.807	26670
816.948	26575
817.089	26735
817.23	26705
817.371	26549
817.512	26571
817.653	26629
817.793	26427
817.934	26571
818.075	26518
818.216	26484
818.356	26579
818.497	26419
818.638	26305
818.778	26271
818.919	26377
819.06	26301
819.2	26248
819.341	26594
819.481	26575
819.622	26575
819.762	26765
819.903	26823
820.043	26739
820.184	26606
820.324	26602
820.465	26800
820.605	26651
820.746	26720
820.886	26613
821.026	26743
821.167	26701
821.307	26792
821.447	26568
821.588	26469
821.728	26396
821.868	26157
822.008	26005
822.149	26039
822.289	26065
822.429	25860
822.569	25662
822.709	25738
822.849	25422
822.99	25506
823.13	25434
823.27	25514
823.41	25403
823.55	25335
823.69	25506
823.83	25358
823.97	25247
824.11	25148
824.25	25168
824.389	25228
824.529	25225
824.669	25190
824.809	25274
824.949	25293
825.089	25266
825.228	25164
825.368	25126
825.508	25019
825.648	24973
825.787	25175
825.927	25008
826.067	24886
826.206	24992
826.346	25084
826.485	25031
826.625	25061
826.765	25046
826.904	25008
827.044	24734
827.183	24806
827.323	24715
827.462	24776
827.601	24783
827.741	24791
827.88	24757
828.02	24597
828.159	24684
828.298	24837
828.437	24768
828.577	24722
828.716	24795
828.855	24696
828.994	24429
829.134	24483
829.273	24604
829.412	24369
829.551	24372
829.69	24486
829.829	24475
829.968	24467
830.107	24544
830.246	24555
830.385	24388
830.524	24292
830.663	24300
830.802	24285
830.941	24129
831.08	24018
831.219	24064
831.357	24079
831.496	24296
831.635	24057
831.774	23988
831.913	23824
832.051	23866
832.19	23809
832.329	23939
832.467	23809
832.606	23668
832.744	23646
832.883	23672
833.022	23638
833.16	23623
833.299	23836
833.437	23813
833.576	23756
833.714	23764
833.852	23684
833.991	23836
834.129	23927
834.267	23866
834.406	23684
834.544	23729
834.682	23771
834.821	23836
834.959	24015
835.097	23729
835.235	23866
835.373	23695
835.511	23748
835.65	23627
835.788	23646
835.926	23547
836.064	23379
836.202	23326
836.34	23551
836.478	23627
836.615	23604
836.753	23630
836.891	23790
837.029	23684
837.167	23600
837.305	23558
837.443	23551
837.58	23497
837.718	23627
837.856	23501
837.993	23433
838.131	23440
838.269	23356
838.406	23376
838.544	23235
838.681	23170
838.819	23067
838.956	22976
839.094	22915
839.231	23010
839.369	23064
839.506	23334
839.643	23170
839.781	22991
839.918	22942
840.055	22938
840.193	22965
840.33	22904
840.467	22900
840.604	22809
840.742	23102
840.879	22778
841.016	22854
841.153	22881
841.29	22869
841.427	22862
841.564	22839
841.701	22847
841.838	22641
841.975	22721
842.112	22805
842.249	22664
842.385	22637
842.522	22790
842.659	22683
842.796	22459
842.933	22679
843.069	22683
843.206	22493
843.343	22691
843.479	22603
843.616	22596
843.752	22287
843.889	22432
844.025	22402
844.162	22219
844.298	22371
844.435	22344
844.571	22295
844.708	22402
844.844	22493
844.98	22455
845.117	22398
845.253	22421
845.389	22257
845.525	22192
845.661	22371
845.798	22139
845.934	22082
846.07	22204
846.206	22135
846.342	22223
846.478	22074
846.614	21816
846.75	21869
846.886	21831
847.022	21972
847.158	21861
847.294	21854
847.429	21876
847.565	21789
847.701	22040
847.837	21488
847.972	21671
848.108	21637
848.244	21660
848.379	21488
848.515	21389
848.65	21485
848.786	21511
848.921	21473
849.057	21564
849.192	21458
849.328	21431
849.463	21435
849.598	21420
849.734	21275
849.869	21367
850.004	21245
850.14	21112
850.275	21184
850.41	21199
850.545	21218
850.68	21222
850.815	21241
850.95	21085
851.085	21302
851.22	21306
851.355	21112
851.49	21188
851.625	21184
851.76	21089
851.895	21184
852.03	20948
852.165	21176
852.299	21249
852.434	21237
852.569	21268
852.703	21260
852.838	21226
852.973	21237
853.107	21279
853.242	21169
853.376	21028
853.511	20925
853.645	21089
853.78	21093
853.914	21051
854.048	21036
854.183	21047
854.317	21058
854.451	21245
854.585	20883
854.72	21013
854.854	21020
854.988	20952
855.122	20918
855.256	20914
855.39	20918
855.524	21001
855.658	21093
855.792	21036
855.926	21028
856.06	21062
856.194	21089
856.327	21001
856.461	20918
856.595	21074
856.729	21024
856.862	21203
856.996	20994
857.13	21020
857.263	21161
857.397	21135
857.53	21024
857.664	21135
857.797	21074
857.931	21108
858.064	21131
858.197	21131
858.331	21100
858.464	21024
858.597	20902
858.731	20842
858.864	20975
858.997	20998
859.13	21062
859.263	20990
859.396	21096
859.529	21066
859.662	20967
859.795	20948
859.928	20952
860.061	21108
860.194	21176
860.327	21123
860.46	21005
860.592	21161
860.725	21112
860.858	21169
860.99	20963
861.123	20925
861.256	20906
861.388	20986
861.521	21583
861.653	20891
861.786	20906
861.918	20781
862.05	20792
862.183	20925
862.315	20918
862.447	21093
862.58	20971
862.712	20720
862.844	20648
862.976	20792
863.108	20804
863.24	21233
863.372	20670
863.504	20663
863.636	20636
863.768	20724
863.9	20720
864.032	20708
864.164	20667
864.296	20705
864.428	20842
864.559	20746
864.691	20838
864.823	20651
864.954	20777
865.086	20625
865.217	20625
865.349	20549
865.48	20663
865.612	20659
865.743	20678
865.875	20598
866.006	20613
866.137	20819
866.269	20609
866.4	20606
866.531	20507
866.662	20560
866.793	20564
866.924	20575
867.055	20518
867.186	20568
867.317	20480
867.448	20473
867.579	20613
867.71	20492
867.841	20427
867.972	20549
868.103	20533
868.233	20606
868.364	20606
868.495	20632
868.625	20777
868.756	20925
868.886	20712
869.017	20948
869.147	20826
869.278	20883
869.408	20864
869.539	20796
869.669	20899
869.799	20781
869.929	20807
870.06	20967
870.19	21017
870.32	21074
870.45	21123
870.58	21260
870.71	21245
870.84	21313
870.97	21203
871.1	21165
871.23	21435
871.36	21428
871.489	21283
871.619	21351
871.749	21462
871.879	21500
872.008	21420
872.138	21504
872.267	21466
872.397	21447
872.526	21226
872.656	21199
872.785	21245
872.915	21500
873.044	21511
873.173	21435
873.303	21591
873.432	21370
873.561	21507
873.69	21469
873.819	21473
873.948	21370
874.077	21473
874.206	21310
874.335	21477
874.464	21507
874.593	21778
874.722	21564
874.851	21698
874.979	21679
875.108	21701
875.237	21656
875.365	21614
875.494	21629
875.623	21701
875.751	21663
875.88	21747
876.008	21766
876.136	21800
876.265	22021
876.393	22219
876.521	21907
876.65	22082
876.778	21895
876.906	21979
877.034	21892
877.162	21964
877.29	21922
877.418	22070
877.546	22185
877.674	21968
877.802	21968
877.93	21937
878.058	21934
878.185	21918
878.313	22044
878.441	21953
878.568	21869
878.696	21998
878.824	21922
878.951	22162
879.079	22120
879.206	22238
879.333	22287
879.461	22067
879.588	22162
879.715	22135
879.842	22322
879.97	22166
880.097	21880
880.224	21766
880.351	21869
880.478	21739
880.605	21838
880.732	21937
880.859	22010
880.986	21972
881.112	21808
881.239	21736
881.366	21603
881.493	21435
881.619	21329
881.746	21485
881.872	21507
881.999	21329
882.125	21329
882.252	21492
882.378	21355
882.505	21458
882.631	21249
882.757	21142
882.883	21157
883.01	21047
883.136	21085
883.262	20982
883.388	20864
883.514	21096
883.64	21116
883.766	20990
883.892	20872
884.018	20933
884.143	21119
884.269	21123
884.395	20819
884.52	20682
884.646	20777
884.772	20765
884.897	20781
885.023	20849
885.148	20830
885.274	20998
885.399	20811
885.524	20800
885.65	20952
885.775	20876
885.9	20663
886.025	20887
886.15	20769
886.275	20632
886.4	20640
886.525	20606
886.65	20644
886.775	20781
886.9	20895
887.025	20982
887.149	20689
887.274	20526
887.399	20484
887.523	20621
887.648	20621
887.773	20404
887.897	20640
888.021	20579
888.146	20518
888.27	20606
888.395	20602
888.519	20674
888.643	20549
888.767	20629
888.891	20473
889.015	20248
889.139	20465
889.263	20404
889.387	20511
889.511	20412
889.635	20480
889.759	20290
889.883	20237
890.006	20362
890.13	20339
890.254	20244
890.377	20214
890.501	20210
890.624	20077
890.748	20225
890.871	19921
890.995	19849
891.118	19894
891.241	19913
891.364	19852
891.488	20054
891.611	19917
891.734	19925
891.857	20035
891.98	19936
892.103	19963
892.226	19947
892.349	19871
892.471	19769
892.594	19818
892.717	19845
892.839	19936
892.962	19906
893.085	19898
893.207	19879
893.33	19788
893.452	19731
893.575	19860
893.697	19795
893.819	20043
893.941	20058
894.064	20001
894.186	19879
894.308	19803
894.43	19807
894.552	20008
894.674	19830
894.796	19597
894.918	19849
895.04	19803
895.161	19906
895.283	19959
895.405	19738
895.526	19856
895.648	19898
895.769	19811
895.891	19940
896.012	20050
896.134	19928
896.255	19906
896.376	19868
896.498	19852
896.619	19887
896.74	19944
896.861	19902
896.982	20088
897.103	20237
897.224	20088
897.345	20077
897.466	20008
897.587	20012
897.708	20187
897.828	20058
897.949	19978
898.07	20005
898.19	19944
898.311	20073
898.431	19940
898.552	19955
898.672	20180
898.792	20191
898.913	20142
899.033	20024
899.153	19883
899.273	19845
899.393	19822
899.513	19875
899.633	19795
899.753	19833
899.873	19784
899.993	19746
900.113	19772
900.232	19879
900.352	19860
900.472	19590
900.591	19601
900.711	19491
900.83	19502
900.95	19700
901.069	19605
901.189	19449
901.308	19316
901.427	19137
901.546	19221
901.665	19213
901.784	19198
901.904	19080
902.023	18837
902.141	18760
902.26	18726
902.379	18696
902.498	18658
902.617	18627
902.735	18852
902.854	18677
902.973	18726
903.091	18471
903.21	18266
903.328	18338
903.446	18251
903.565	18083
903.683	18232
903.801	18045
903.919	18041
904.038	18125
904.156	17969
904.274	18022
904.392	17893
904.51	17950
904.627	17809
904.745	17996
904.863	17866
904.981	17767
905.098	17608
905.216	17649
905.334	17680
905.451	17726
905.569	17520
905.686	17767
905.803	17726
905.921	17459
906.038	17429
906.155	17440
906.272	17337
906.389	17326
906.506	17208
906.623	17231
906.74	17105
906.857	17048
906.974	17113
907.091	17174
907.208	17379
907.324	17288
907.441	17117
907.557	16881
907.674	16828
907.79	16881
907.907	16896
908.023	16885
908.139	16904
908.256	16831
908.372	16812
908.488	16752
908.604	16618
908.72	16519
908.836	16630
908.952	16573
909.068	16634
909.184	16694
909.3	16626
909.415	16588
909.531	16508
909.647	16341
909.762	16352
909.878	16207
909.993	16226
910.108	16242
910.224	16314
910.339	16238
910.454	16131
910.57	16055
910.685	15994
910.8	16329
910.915	16265
911.03	16112
911.145	15865
911.259	15930
911.374	15972
911.489	15720
911.604	15755
911.718	15667
911.833	15561
911.947	15557
912.062	15511
912.176	15663
912.291	15728
912.405	15629
912.519	15876
912.633	15797
912.748	15770
912.862	15519
912.976	15469
913.09	15424
913.204	15416
913.318	15469
913.431	15584
913.545	15591
913.659	15561
913.772	15439
913.886	15348
914	15256
914.113	15363
914.226	15382
914.34	15348
914.453	15207
914.566	15264
914.68	15180
914.793	15150
914.906	14914
915.019	14861
915.132	14868
915.245	14933
915.358	14982
915.47	14921
915.583	14883
915.696	14826
915.809	15017
915.921	15043
916.034	14830
916.146	14823
916.259	14750
916.371	14842
916.483	14849
916.595	14765
916.708	14674
916.82	14655
916.932	14590
917.044	14697
917.156	14613
917.268	14518
917.38	14480
917.491	14518
917.603	14495
917.715	14545
917.826	14659
917.938	14400
918.049	14495
918.161	14533
918.272	14602
918.384	14533
918.495	14423
918.606	14358
918.717	14290
918.828	14309
918.939	14298
919.05	14286
919.161	14202
919.272	14123
919.383	14103
919.494	14358
919.604	14488
919.715	14290
919.826	14172
919.936	14320
920.047	14336
920.157	14282
920.267	14427
920.378	14347
920.488	14221
920.598	14347
920.708	14587
920.818	14389
920.928	14320
921.038	14537
921.148	14507
921.258	14240
921.368	14088
921.477	14103
921.587	14084
921.697	13875
921.806	14043
921.916	13818
922.025	13715
922.134	13651
922.244	13597
922.353	13753
922.462	13582
922.571	13537
922.68	13297
922.789	13400
922.898	13255
923.007	13247
923.116	13369
923.224	13324
923.333	13263
923.442	13152
923.55	13156
923.659	13152
923.767	13160
923.876	13183
923.984	13171
924.092	12996
924.201	13110
924.309	13027
924.417	13129
924.525	12932
924.633	13038
924.741	13970
924.849	12825
924.956	12951
925.064	12776
925.172	12642
925.279	12768
925.387	12779
925.494	12707
925.602	12916
925.709	12817
925.816	12703
925.924	12715
926.031	12806
926.138	12707
926.245	12745
926.352	12608
926.459	12817
926.566	12711
926.673	12490
926.779	12639
926.886	12490
926.993	12346
927.099	12273
927.206	12323
927.312	12216
927.419	12300
927.525	12327
927.631	12319
927.737	12167
927.843	12125
927.95	12072
928.056	12140
928.162	12159
928.267	12220
928.373	12833
928.479	12243
928.585	12007
928.69	12068
928.796	12163
928.901	12060
929.007	11908
929.112	12038
929.218	11912
929.323	11885
929.428	11836
929.533	12015
929.638	11794
929.743	11843
929.848	11908
929.953	11783
930.058	11805
930.163	11532
930.267	11608
930.372	11710
930.477	11566
930.581	11764
930.685	11581
930.79	11471
930.894	11463
930.998	11459
931.103	11630
931.207	11273
931.311	11132
931.415	10980
931.519	10942
931.623	10809
