Data from test_V78500241_1155.txt Node
Date: Fri Mar 25 15:49:48 CST 2022
User: usil
Spectrometer: V785-0024
Trigger mode: 0
Integration Time (sec): 4.000000E-1
Scans to average: 1
Nonlinearity correction enabled: false
Boxcar width: 0
Storing dark spectrum: false
XAxis mode: Wavelengths
Number of Pixels in Spectrum: 1024
>>>>>Begin Spectral Data<<<<<
801.071	28584
801.214	28653
801.356	28360
801.499	28367
801.641	28188
801.783	28135
801.926	28284
802.068	28188
802.211	28173
802.353	28017
802.496	27979
802.638	27797
802.78	27701
802.923	27812
803.065	27865
803.208	27728
803.35	27789
803.492	27956
803.635	28090
803.777	27903
803.919	28120
804.061	28428
804.204	28128
804.346	28086
804.488	27949
804.63	28093
804.773	28040
804.915	28048
805.057	28291
805.199	28029
805.341	27945
805.483	28360
805.626	28211
805.768	28314
805.91	28246
806.052	28215
806.194	28284
806.336	28398
806.478	28299
806.62	28413
806.762	28459
806.904	28424
807.046	28729
807.188	28679
807.33	28755
807.472	28748
807.614	28561
807.756	28702
807.898	28565
808.04	28485
808.182	28630
808.324	28592
808.465	28516
808.607	28801
808.749	28908
808.891	29064
809.033	29140
809.174	28911
809.316	28873
809.458	28904
809.6	28793
809.741	28946
809.883	29124
810.025	29368
810.166	29212
810.308	29197
810.45	29337
810.591	29181
810.733	29064
810.875	28991
811.016	28843
811.158	28797
811.299	29109
811.441	29159
811.582	29155
811.724	28900
811.865	28957
812.007	28968
812.148	28946
812.29	28790
812.431	29124
812.573	29254
812.714	29364
812.855	29497
812.997	29589
813.138	29684
813.279	29726
813.421	29391
813.562	29429
813.703	29189
813.845	29185
813.986	29052
814.127	28873
814.268	28668
814.41	28675
814.551	28561
814.692	28729
814.833	28603
814.974	28637
815.115	28573
815.256	28603
815.397	28527
815.539	28588
815.68	28428
815.821	28329
815.962	28455
816.103	28432
816.244	28352
816.385	28196
816.526	28162
816.666	28063
816.807	28048
816.948	27994
817.089	28078
817.23	28021
817.371	28040
817.512	27987
817.653	27945
817.793	27827
817.934	27937
818.075	28196
818.216	27953
818.356	27861
818.497	27789
818.638	27717
818.778	27625
818.919	27800
819.06	27823
819.2	27800
819.341	27941
819.481	28070
819.622	28124
819.762	28318
819.903	28253
820.043	28128
820.184	28101
820.324	28017
820.465	28067
820.605	28070
820.746	28162
820.886	27964
821.026	28040
821.167	28124
821.307	28101
821.447	28051
821.588	28029
821.728	27873
821.868	27732
822.008	27435
822.149	27515
822.289	27427
822.429	27184
822.569	27157
822.709	27142
822.849	27142
822.99	27001
823.13	26975
823.27	26967
823.41	26819
823.55	26762
823.69	26883
823.83	26834
823.97	26857
824.11	26674
824.25	26522
824.389	26674
824.529	26602
824.669	26769
824.809	26743
824.949	26796
825.089	26625
825.228	26701
825.368	26427
825.508	26541
825.648	26541
825.787	26708
825.927	26552
826.067	26495
826.206	26423
826.346	26636
826.485	26457
826.625	26522
826.765	26625
826.904	26503
827.044	26218
827.183	26400
827.323	26256
827.462	26374
827.601	26336
827.741	26221
827.88	26313
828.02	26240
828.159	26259
828.298	26237
828.437	26233
828.577	26176
828.716	26259
828.855	26035
828.994	25845
829.134	25921
829.273	25986
829.412	25928
829.551	25780
829.69	25913
829.829	25978
829.968	26016
830.107	26035
830.246	25814
830.385	25822
830.524	25784
830.663	25769
830.802	25635
830.941	25559
831.08	25537
831.219	25616
831.357	25632
831.496	25750
831.635	25502
831.774	25335
831.913	25510
832.051	25419
832.19	25407
832.329	25304
832.467	25301
832.606	25148
832.744	25133
832.883	25221
833.022	25107
833.16	25232
833.299	25346
833.437	25171
833.576	25304
833.714	25343
833.852	25301
833.991	25400
834.129	25369
834.267	25331
834.406	25274
834.544	25221
834.682	25225
834.821	25225
834.959	25411
835.097	25168
835.235	25236
835.373	25213
835.511	25095
835.65	25179
835.788	24981
835.926	25015
836.064	24837
836.202	24951
836.34	24924
836.478	25194
836.615	24989
836.753	25072
836.891	25080
837.029	25168
837.167	25084
837.305	24863
837.443	25027
837.58	25000
837.718	24970
837.856	25027
837.993	24829
838.131	24886
838.269	24791
838.406	24856
838.544	24821
838.681	24502
838.819	24525
838.956	24323
839.094	24365
839.231	24445
839.369	24547
839.506	24745
839.643	24631
839.781	24391
839.918	24270
840.055	24330
840.193	24281
840.33	24258
840.467	24319
840.604	24330
840.742	24627
840.879	24125
841.016	24384
841.153	24167
841.29	24266
841.427	24399
841.564	24285
841.701	24277
841.838	24121
841.975	24228
842.112	24228
842.249	24053
842.385	24053
842.522	24281
842.659	24121
842.796	24068
842.933	24045
843.069	24015
843.206	23931
843.343	24060
843.479	23980
843.616	23923
843.752	23828
843.889	23756
844.025	23931
844.162	23840
844.298	23859
844.435	23767
844.571	23805
844.708	23851
844.844	23916
844.98	23859
845.117	23847
845.253	23745
845.389	23737
845.525	23794
845.661	23528
845.798	23577
845.934	23509
846.07	23528
846.206	23653
846.342	23691
846.478	23463
846.614	23299
846.75	23159
846.886	23204
847.022	23311
847.158	23284
847.294	23448
847.429	23299
847.565	23288
847.701	23505
847.837	23041
847.972	22968
848.108	23018
848.244	23044
848.379	23018
848.515	22786
848.65	22881
848.786	22862
848.921	22812
849.057	23048
849.192	23006
849.328	22873
849.463	22968
849.598	22744
849.734	22729
849.869	22645
850.004	22500
850.14	22542
850.275	22683
850.41	22531
850.545	22424
850.68	22489
850.815	22569
850.95	22645
851.085	22755
851.22	22801
851.355	22706
851.49	22493
851.625	22516
851.76	22596
851.895	22626
852.03	22573
852.165	22535
852.299	22531
852.434	22710
852.569	22725
852.703	22599
852.838	22713
852.973	22729
853.107	22538
853.242	22512
853.376	22462
853.511	22352
853.645	22394
853.78	22466
853.914	22546
854.048	22485
854.183	22409
854.317	22402
854.451	22550
854.585	22485
854.72	22497
854.854	22630
854.988	22405
855.122	22447
855.256	22280
855.39	22356
855.524	22462
855.658	22535
855.792	22386
855.926	22428
856.06	22428
856.194	22421
856.327	22280
856.461	22375
856.595	22451
856.729	22314
856.862	22504
856.996	22436
857.13	22618
857.263	22516
857.397	22519
857.53	22417
857.664	22447
857.797	22470
857.931	22546
858.064	22447
858.197	22489
858.331	22402
858.464	22356
858.597	22295
858.731	22474
858.864	22322
858.997	22481
859.13	22390
859.263	22409
859.396	22527
859.529	22478
859.662	22455
859.795	22344
859.928	22508
860.061	22603
860.194	22573
860.327	22500
860.46	22424
860.592	22630
860.725	22531
860.858	22504
860.99	22550
861.123	22337
861.256	22261
861.388	22474
861.521	23121
861.653	22249
861.786	22211
861.918	22272
862.05	22211
862.183	22413
862.315	22390
862.447	22348
862.58	22185
862.712	22230
862.844	22013
862.976	22181
863.108	22200
863.24	22580
863.372	22036
863.504	22086
863.636	22074
863.768	22131
863.9	22166
864.032	22013
864.164	22150
864.296	22139
864.428	22192
864.559	22242
864.691	22154
864.823	22128
864.954	22101
865.086	22147
865.217	21918
865.349	21941
865.48	22002
865.612	21991
865.743	22207
865.875	22070
866.006	22013
866.137	21991
866.269	21953
866.4	22086
866.531	21956
866.662	21884
866.793	21975
866.924	21785
867.055	22021
867.186	21907
867.317	21899
867.448	21850
867.579	21994
867.71	21812
867.841	21823
867.972	21930
868.103	21873
868.233	22006
868.364	22013
868.495	22040
868.625	22188
868.756	22063
868.886	22063
869.017	22147
869.147	22257
869.278	22162
869.408	22192
869.539	22207
869.669	22169
869.799	22124
869.929	22276
870.06	22226
870.19	22432
870.32	22413
870.45	22599
870.58	22546
870.71	22634
870.84	22698
870.97	22485
871.1	22649
871.23	22748
871.36	22725
871.489	22736
871.619	22698
871.749	22755
871.879	22721
872.008	22820
872.138	22790
872.267	22767
872.397	22561
872.526	22649
872.656	22546
872.785	22417
872.915	22812
873.044	22923
873.173	22793
873.303	22828
873.432	22862
873.561	22862
873.69	22809
873.819	22691
873.948	22778
874.077	22866
874.206	22672
874.335	22816
874.464	22831
874.593	22968
874.722	23006
874.851	23136
874.979	22938
875.108	23109
875.237	22995
875.365	22930
875.494	22877
875.623	23162
875.751	22915
875.88	23064
876.008	23064
876.136	23166
876.265	23406
876.393	23474
876.521	23448
876.65	23345
876.778	23341
876.906	23345
877.034	23330
877.162	23261
877.29	23200
877.418	23376
877.546	23273
877.674	23315
877.802	23387
877.93	23292
878.058	23193
878.185	23193
878.313	23242
878.441	23284
878.568	23136
878.696	23197
878.824	23288
878.951	23493
879.079	23520
879.206	23558
879.333	23558
879.461	23360
879.588	23452
879.715	23421
879.842	23535
879.97	23353
880.097	23246
880.224	23288
880.351	23174
880.478	23090
880.605	23037
880.732	23132
880.859	23337
880.986	23136
881.112	23140
881.239	23041
881.366	22881
881.493	22706
881.619	22729
881.746	22725
881.872	22721
881.999	22824
882.125	22622
882.252	22561
882.378	22668
882.505	22729
882.631	22462
882.757	22538
882.883	22485
883.01	22417
883.136	22379
883.262	22303
883.388	22204
883.514	22462
883.64	22375
883.766	22280
883.892	22101
884.018	22112
884.143	22394
884.269	22348
884.395	22196
884.52	21994
884.646	22051
884.772	22086
884.897	21956
885.023	22017
885.148	22059
885.274	22120
885.399	22215
885.524	22086
885.65	22017
885.775	21907
885.9	22036
886.025	22131
886.15	22097
886.275	21918
886.4	21926
886.525	21994
886.65	21880
886.775	21873
886.9	22177
887.025	22177
887.149	21983
887.274	21880
887.399	21747
887.523	21675
887.648	21698
887.773	21701
887.897	21816
888.021	21850
888.146	21793
888.27	21854
888.395	21835
888.519	21876
888.643	21785
888.767	21861
888.891	21698
889.015	21526
889.139	21690
889.263	21595
889.387	21599
889.511	21667
889.635	21648
889.759	21500
889.883	21523
890.006	21667
890.13	21629
890.254	21576
890.377	21504
890.501	21283
890.624	21218
890.748	21241
890.871	21195
890.995	21055
891.118	21093
891.241	21127
891.364	21077
891.488	21184
891.611	21039
891.734	21074
891.857	21085
891.98	21237
892.103	21138
892.226	21150
892.349	21036
892.471	20979
892.594	20963
892.717	21131
892.839	21032
892.962	21020
893.085	21039
893.207	21100
893.33	20937
893.452	20918
893.575	21047
893.697	21039
893.819	21138
893.941	21226
894.064	21138
894.186	20872
894.308	20834
894.43	21058
894.552	21116
894.674	21112
894.796	20762
894.918	20994
895.04	20979
895.161	21081
895.283	20967
895.405	20963
895.526	20948
895.648	21020
895.769	20887
895.891	20967
896.012	21119
896.134	21062
896.255	20971
896.376	20948
896.498	20899
896.619	20929
896.74	20971
896.861	21005
896.982	21264
897.103	21408
897.224	21169
897.345	21283
897.466	21230
897.587	21237
897.708	21241
897.828	21264
897.949	21222
898.07	20956
898.19	21100
898.311	21348
898.431	21127
898.552	21218
898.672	21256
898.792	21325
898.913	21138
899.033	21062
899.153	21009
899.273	20929
899.393	20868
899.513	20979
899.633	20921
899.753	20933
899.873	20830
899.993	20838
900.113	20807
900.232	20944
900.352	20830
900.472	20807
900.591	20750
900.711	20655
900.83	20720
900.95	20739
901.069	20815
901.189	20625
901.308	20366
901.427	20320
901.546	20206
901.665	20320
901.784	20244
901.904	20054
902.023	20100
902.141	19845
902.26	19997
902.379	19849
902.498	19864
902.617	19704
902.735	19757
902.854	19746
902.973	19696
903.091	19472
903.21	19263
903.328	19499
903.446	19263
903.565	19274
903.683	19168
903.801	19190
903.919	19171
904.038	19225
904.156	19031
904.274	19156
904.392	19072
904.51	18981
904.627	18977
904.745	19072
904.863	19065
904.981	18753
905.098	18711
905.216	18688
905.334	18719
905.451	18681
905.569	18661
905.686	18707
905.803	18623
905.921	18384
906.038	18589
906.155	18452
906.272	18300
906.389	18330
906.506	18273
906.623	18159
906.74	18178
906.857	18079
906.974	18030
907.091	18235
907.208	18235
907.324	18152
907.441	18034
907.557	17961
907.674	17809
907.79	17805
907.907	17897
908.023	17904
908.139	17901
908.256	17870
908.372	17676
908.488	17798
908.604	17687
908.72	17600
908.836	17627
908.952	17600
909.068	17619
909.184	17756
909.3	17592
909.415	17634
909.531	17478
909.647	17433
909.762	17345
909.878	17383
909.993	17231
910.108	17235
910.224	17220
910.339	17299
910.454	17140
910.57	17162
910.685	17075
910.8	17311
910.915	17227
911.03	17147
911.145	16995
911.259	16812
911.374	16904
911.489	16904
911.604	16752
911.718	16611
911.833	16607
911.947	16611
912.062	16455
912.176	16637
912.291	16713
912.405	16649
912.519	16858
912.633	16767
912.748	16611
912.862	16508
912.976	16466
913.09	16287
913.204	16390
913.318	16500
913.431	16584
913.545	16474
913.659	16508
913.772	16436
913.886	16249
914	16223
914.113	16253
914.226	16295
914.34	16219
914.453	16059
914.566	16230
914.68	16105
914.793	16093
914.906	15907
915.019	15755
915.132	15751
915.245	15720
915.358	15835
915.47	15869
915.583	15835
915.696	15892
915.809	15994
915.921	15968
916.034	15736
916.146	15667
916.259	15663
916.371	15793
916.483	15686
916.595	15599
916.708	15648
916.82	15504
916.932	15564
917.044	15606
917.156	15591
917.268	15397
917.38	15492
917.491	15416
917.603	15405
917.715	15389
917.826	15519
917.938	15348
918.049	15241
918.161	15321
918.272	15420
918.384	15496
918.495	15321
918.606	15169
918.717	15142
918.828	15325
918.939	15310
919.05	15135
919.161	15157
919.272	14933
919.383	15127
919.494	15264
919.604	15431
919.715	15199
919.826	15081
919.936	15112
920.047	15180
920.157	15203
920.267	15222
920.378	15199
920.488	15039
920.598	15283
920.708	15431
920.818	15313
920.928	15287
921.038	15443
921.148	15428
921.258	15055
921.368	15020
921.477	14921
921.587	14880
921.697	14796
921.806	14963
921.916	14701
922.025	14606
922.134	14610
922.244	14476
922.353	14583
922.462	14454
922.571	14404
922.68	14187
922.789	14187
922.898	14123
923.007	14195
923.116	14130
923.224	14134
923.333	14153
923.442	14008
923.55	13997
923.659	13993
923.767	14043
923.876	13826
923.984	14077
924.092	13898
924.201	13963
924.309	13917
924.417	13970
924.525	13769
924.633	13818
924.741	14644
924.849	13609
924.956	13727
925.064	13636
925.172	13563
925.279	13529
925.387	13499
925.494	13529
925.602	13674
925.709	13582
925.816	13430
925.924	13464
926.031	13521
926.138	13483
926.245	13559
926.352	13426
926.459	13514
926.566	13480
926.673	13419
926.779	13175
926.886	13251
926.993	13137
927.099	13076
927.206	13190
927.312	13050
927.419	13080
927.525	13118
927.631	13027
927.737	12909
927.843	12890
927.95	12833
928.056	12833
928.162	12935
928.267	12913
928.373	13601
928.479	12939
928.585	12722
928.69	12810
928.796	12905
928.901	12681
929.007	12620
929.112	12749
929.218	12741
929.323	12654
929.428	12601
929.533	12722
929.638	12601
929.743	12692
929.848	12604
929.953	12555
930.058	12456
930.163	12270
930.267	12220
930.372	12433
930.477	12247
930.581	12464
930.685	12311
930.79	12194
930.894	12197
930.998	12178
931.103	12243
931.207	11916
931.311	11745
931.415	11745
931.519	11589
931.623	11459
