Data from test_V78500241_1755.txt Node
Date: Fri Mar 25 15:53:57 CST 2022
User: usil
Spectrometer: V785-0024
Trigger mode: 0
Integration Time (sec): 4.000000E-1
Scans to average: 1
Nonlinearity correction enabled: false
Boxcar width: 0
Storing dark spectrum: false
XAxis mode: Wavelengths
Number of Pixels in Spectrum: 1024
>>>>>Begin Spectral Data<<<<<
801.071	28634
801.214	28675
801.356	28462
801.499	28348
801.641	28272
801.783	28299
801.926	28230
802.068	28177
802.211	28188
802.353	28143
802.496	28078
802.638	27892
802.78	27876
802.923	27945
803.065	27892
803.208	27850
803.35	27884
803.492	28211
803.635	28105
803.777	28135
803.919	28261
804.061	28546
804.204	28226
804.346	28143
804.488	28025
804.63	28299
804.773	28116
804.915	28173
805.057	28333
805.199	28090
805.341	28344
805.483	28200
805.626	28356
805.768	28211
805.91	28329
806.052	28421
806.194	28265
806.336	28504
806.478	28360
806.62	28413
806.762	28447
806.904	28485
807.046	28812
807.188	28919
807.33	28904
807.472	28839
807.614	28729
807.756	28763
807.898	28786
808.04	28569
808.182	28493
808.324	28664
808.465	28653
808.607	29014
808.749	28976
808.891	29136
809.033	29006
809.174	29200
809.316	29037
809.458	29022
809.6	28892
809.741	29041
809.883	29128
810.025	29235
810.166	29360
810.308	29452
810.45	29326
810.591	29227
810.733	29094
810.875	29094
811.016	28843
811.158	28778
811.299	29124
811.441	29185
811.582	29273
811.724	29162
811.865	29006
812.007	29018
812.148	29075
812.29	29113
812.431	29246
812.573	29242
812.714	29372
812.855	29509
812.997	29649
813.138	29745
813.279	29661
813.421	29531
813.562	29463
813.703	29383
813.845	29231
813.986	28957
814.127	28900
814.268	28824
814.41	28824
814.551	28774
814.692	28972
814.833	28767
814.974	28645
815.115	28721
815.256	28717
815.397	28691
815.539	28641
815.68	28584
815.821	28466
815.962	28603
816.103	28569
816.244	28371
816.385	28219
816.526	28379
816.666	28169
816.807	27979
816.948	28226
817.089	28192
817.23	27994
817.371	27934
817.512	28101
817.653	28109
817.793	27861
817.934	27865
818.075	28070
818.216	28097
818.356	28074
818.497	28025
818.638	27835
818.778	27793
818.919	27793
819.06	27895
819.2	27869
819.341	28128
819.481	28158
819.622	28276
819.762	28417
819.903	28299
820.043	28192
820.184	28207
820.324	28162
820.465	28261
820.605	28272
820.746	28097
820.886	28158
821.026	28013
821.167	28082
821.307	28162
821.447	28010
821.588	27975
821.728	27907
821.868	27682
822.008	27488
822.149	27599
822.289	27492
822.429	27393
822.569	27119
822.709	27233
822.849	26998
822.99	26975
823.13	26982
823.27	26952
823.41	26929
823.55	26708
823.69	26918
823.83	26967
823.97	26826
824.11	26788
824.25	26648
824.389	26636
824.529	26765
824.669	26758
824.809	26731
824.949	26842
825.089	26853
825.228	26899
825.368	26575
825.508	26545
825.648	26556
825.787	26594
825.927	26655
826.067	26587
826.206	26621
826.346	26617
826.485	26571
826.625	26678
826.765	26727
826.904	26644
827.044	26317
827.183	26332
827.323	26278
827.462	26328
827.601	26157
827.741	26240
827.88	26282
828.02	26301
828.159	26278
828.298	26332
828.437	26301
828.577	26195
828.716	26332
828.855	26206
828.994	25932
829.134	25986
829.273	26024
829.412	25993
829.551	25925
829.69	25913
829.829	26031
829.968	26001
830.107	26077
830.246	25978
830.385	25913
830.524	25830
830.663	25746
830.802	25742
830.941	25704
831.08	25582
831.219	25624
831.357	25540
831.496	25719
831.635	25582
831.774	25495
831.913	25472
832.051	25438
832.19	25308
832.329	25483
832.467	25316
832.606	25308
832.744	25217
832.883	25175
833.022	25168
833.16	25270
833.299	25293
833.437	25297
833.576	25324
833.714	25198
833.852	25434
833.991	25407
834.129	25244
834.267	25369
834.406	25358
834.544	25343
834.682	25293
834.821	25175
834.959	25388
835.097	25244
835.235	25392
835.373	25339
835.511	25350
835.65	25179
835.788	25065
835.926	25107
836.064	25103
836.202	25000
836.34	25126
836.478	25232
836.615	25183
836.753	25091
836.891	25179
837.029	25171
837.167	25126
837.305	24947
837.443	24939
837.58	24924
837.718	25046
837.856	24943
837.993	24951
838.131	25000
838.269	24905
838.406	24817
838.544	24814
838.681	24452
838.819	24635
838.956	24365
839.094	24475
839.231	24372
839.369	24612
839.506	24726
839.643	24757
839.781	24429
839.918	24262
840.055	24346
840.193	24505
840.33	24365
840.467	24277
840.604	24369
840.742	24589
840.879	24213
841.016	24243
841.153	24121
841.29	24429
841.427	24201
841.564	24445
841.701	24209
841.838	24327
841.975	24342
842.112	24285
842.249	24072
842.385	23927
842.522	24300
842.659	24167
842.796	24163
842.933	24015
843.069	24053
843.206	23939
843.343	24022
843.479	24038
843.616	24129
843.752	23927
843.889	23832
844.025	23939
844.162	23760
844.298	23973
844.435	23866
844.571	23748
844.708	23851
844.844	24106
844.98	24068
845.117	23878
845.253	23737
845.389	23703
845.525	23707
845.661	23627
845.798	23623
845.934	23547
846.07	23543
846.206	23520
846.342	23646
846.478	23611
846.614	23185
846.75	23124
846.886	23284
847.022	23391
847.158	23360
847.294	23337
847.429	23299
847.565	23212
847.701	23524
847.837	23109
847.972	23086
848.108	23143
848.244	23083
848.379	22835
848.515	22934
848.65	22839
848.786	22824
848.921	22858
849.057	23003
849.192	22930
849.328	23010
849.463	22854
849.598	22839
849.734	22866
849.869	22675
850.004	22645
850.14	22717
850.275	22634
850.41	22557
850.545	22626
850.68	22607
850.815	22687
850.95	22634
851.085	22782
851.22	22782
851.355	22713
851.49	22584
851.625	22634
851.76	22596
851.895	22542
852.03	22546
852.165	22546
852.299	22748
852.434	22698
852.569	22740
852.703	22656
852.838	22679
852.973	22710
853.107	22736
853.242	22470
853.376	22500
853.511	22291
853.645	22428
853.78	22637
853.914	22550
854.048	22428
854.183	22459
854.317	22474
854.451	22637
854.585	22398
854.72	22390
854.854	22546
854.988	22375
855.122	22421
855.256	22329
855.39	22451
855.524	22432
855.658	22413
855.792	22554
855.926	22481
856.06	22554
856.194	22516
856.327	22459
856.461	22417
856.595	22409
856.729	22481
856.862	22645
856.996	22485
857.13	22653
857.263	22569
857.397	22675
857.53	22417
857.664	22474
857.797	22527
857.931	22523
858.064	22417
858.197	22516
858.331	22436
858.464	22474
858.597	22367
858.731	22474
858.864	22356
858.997	22398
859.13	22421
859.263	22508
859.396	22466
859.529	22356
859.662	22394
859.795	22413
859.928	22367
860.061	22603
860.194	22729
860.327	22443
860.46	22485
860.592	22569
860.725	22622
860.858	22538
860.99	22512
861.123	22382
861.256	22409
861.388	22455
861.521	23143
861.653	22337
861.786	22295
861.918	22295
862.05	22291
862.183	22497
862.315	22508
862.447	22462
862.58	22424
862.712	22192
862.844	22181
862.976	22299
863.108	22211
863.24	22413
863.372	22116
863.504	22036
863.636	22082
863.768	22150
863.9	22067
864.032	22200
864.164	22169
864.296	22185
864.428	22188
864.559	22230
864.691	22215
864.823	22093
864.954	22158
865.086	22173
865.217	22207
865.349	21972
865.48	22013
865.612	21907
865.743	22158
865.875	22124
866.006	21987
866.137	21991
866.269	21975
866.4	22040
866.531	21991
866.662	21907
866.793	21949
866.924	21987
867.055	22078
867.186	21945
867.317	21926
867.448	21903
867.579	21888
867.71	21770
867.841	21789
867.972	21945
868.103	22017
868.233	21956
868.364	22051
868.495	22188
868.625	22131
868.756	22287
868.886	22215
869.017	22173
869.147	22375
869.278	22303
869.408	22367
869.539	22162
869.669	22192
869.799	22348
869.929	22409
870.06	22352
870.19	22474
870.32	22428
870.45	22504
870.58	22634
870.71	22596
870.84	22683
870.97	22622
871.1	22615
871.23	22778
871.36	22740
871.489	22668
871.619	22828
871.749	22797
871.879	22801
872.008	22854
872.138	22778
872.267	22786
872.397	22721
872.526	22725
872.656	22694
872.785	22717
872.915	22854
873.044	22866
873.173	22873
873.303	22850
873.432	22797
873.561	22957
873.69	22934
873.819	22847
873.948	22843
874.077	22847
874.206	22702
874.335	22919
874.464	22911
874.593	22961
874.722	22946
874.851	23136
874.979	23044
875.108	23090
875.237	23037
875.365	22972
875.494	22908
875.623	23174
875.751	22965
875.88	23094
876.008	23189
876.136	23166
876.265	23493
876.393	23539
876.521	23429
876.65	23505
876.778	23395
876.906	23315
877.034	23315
877.162	23433
877.29	23246
877.418	23444
877.546	23455
877.674	23261
877.802	23303
877.93	23242
878.058	23429
878.185	23277
878.313	23284
878.441	23341
878.568	23242
878.696	23307
878.824	23436
878.951	23474
879.079	23581
879.206	23657
879.333	23589
879.461	23490
879.588	23509
879.715	23581
879.842	23676
879.97	23478
880.097	23303
880.224	23162
880.351	23170
880.478	23098
880.605	23212
880.732	23056
880.859	23444
880.986	23170
881.112	23296
881.239	22991
881.366	22919
881.493	22862
881.619	22835
881.746	22782
881.872	22691
881.999	22767
882.125	22656
882.252	22748
882.378	22694
882.505	22854
882.631	22565
882.757	22474
882.883	22531
883.01	22398
883.136	22333
883.262	22325
883.388	22219
883.514	22356
883.64	22508
883.766	22314
883.892	22139
884.018	22291
884.143	22295
884.269	22466
884.395	22143
884.52	22013
884.646	22067
884.772	21949
884.897	21983
885.023	22074
885.148	22150
885.274	22204
885.399	22204
885.524	21987
885.65	22006
885.775	22101
885.9	21930
886.025	22265
886.15	22215
886.275	22013
886.4	21979
886.525	22051
886.65	22063
886.775	21991
886.9	22147
887.025	22207
887.149	22112
887.274	21888
887.399	21812
887.523	21766
887.648	21774
887.773	21732
887.897	21930
888.021	21857
888.146	21762
888.27	21941
888.395	21895
888.519	21880
888.643	21861
888.767	21831
888.891	21709
889.015	21557
889.139	21671
889.263	21587
889.387	21747
889.511	21694
889.635	21804
889.759	21618
889.883	21553
890.006	21663
890.13	21743
890.254	21720
890.377	21625
890.501	21462
890.624	21351
890.748	21443
890.871	21294
890.995	21214
891.118	21176
891.241	21317
891.364	21287
891.488	21374
891.611	21081
891.734	21264
891.857	21199
891.98	21207
892.103	21116
892.226	21260
892.349	21157
892.471	20891
892.594	21207
892.717	21180
892.839	21005
892.962	21165
893.085	21230
893.207	21009
893.33	20960
893.452	20929
893.575	20944
893.697	21070
893.819	21268
893.941	21275
894.064	21264
894.186	20990
894.308	20990
894.43	21154
894.552	21146
894.674	21131
894.796	20910
894.918	21066
895.04	21005
895.161	21146
895.283	21184
895.405	21135
895.526	21112
895.648	21108
895.769	21032
895.891	21226
896.012	21195
896.134	21123
896.255	21203
896.376	20948
896.498	21043
896.619	21085
896.74	21096
896.861	21192
896.982	21412
897.103	21511
897.224	21313
897.345	21283
897.466	21298
897.587	21245
897.708	21363
897.828	21176
897.949	21104
898.07	21211
898.19	21119
898.311	21382
898.431	21089
898.552	21184
898.672	21382
898.792	21351
898.913	21207
899.033	21192
899.153	21028
899.273	20944
899.393	21074
899.513	21055
899.633	20956
899.753	20956
899.873	20998
899.993	21001
900.113	20895
900.232	20998
900.352	20872
900.472	20788
900.591	20853
900.711	20880
900.83	20796
900.95	20952
901.069	20895
901.189	20606
901.308	20370
901.427	20366
901.546	20256
901.665	20431
901.784	20385
901.904	20309
902.023	20058
902.141	20012
902.26	19791
902.379	19955
902.498	19887
902.617	19852
902.735	19868
902.854	19826
902.973	19803
903.091	19601
903.21	19601
903.328	19556
903.446	19441
903.565	19255
903.683	19304
903.801	19221
903.919	19179
904.038	19206
904.156	19046
904.274	19084
904.392	19042
904.51	19031
904.627	19194
904.745	19034
904.863	19072
904.981	18894
905.098	18833
905.216	18757
905.334	18760
905.451	18681
905.569	18757
905.686	18741
905.803	18616
905.921	18464
906.038	18578
906.155	18410
906.272	18506
906.389	18426
906.506	18251
906.623	18228
906.74	18285
906.857	18155
906.974	18159
907.091	18330
907.208	18353
907.324	18353
907.441	18076
907.557	17946
907.674	17920
907.79	17897
907.907	17904
908.023	18041
908.139	18011
908.256	17897
908.372	17889
908.488	17790
908.604	17672
908.72	17699
908.836	17684
908.952	17680
909.068	17684
909.184	17680
909.3	17638
909.415	17687
909.531	17649
909.647	17539
909.762	17364
909.878	17353
909.993	17433
910.108	17337
910.224	17345
910.339	17280
910.454	17204
910.57	17105
910.685	17060
910.8	17265
910.915	17387
911.03	17140
911.145	16961
911.259	16942
911.374	16942
911.489	16949
911.604	16767
911.718	16634
911.833	16820
911.947	16649
912.062	16550
912.176	16733
912.291	16706
912.405	16691
912.519	16980
912.633	16854
912.748	16649
912.862	16713
912.976	16558
913.09	16485
913.204	16489
913.318	16558
913.431	16497
913.545	16603
913.659	16535
913.772	16409
913.886	16402
914	16371
914.113	16310
914.226	16394
914.34	16360
914.453	16207
914.566	16325
914.68	16196
914.793	16116
914.906	15915
915.019	15865
915.132	15800
915.245	15793
915.358	15930
915.47	15934
915.583	15823
915.696	15895
915.809	16006
915.921	15975
916.034	15842
916.146	15720
916.259	15713
916.371	15899
916.483	15846
916.595	15671
916.708	15709
916.82	15660
916.932	15679
917.044	15591
917.156	15545
917.268	15530
917.38	15450
917.491	15507
917.603	15496
917.715	15515
917.826	15568
917.938	15408
918.049	15374
918.161	15351
918.272	15549
918.384	15549
918.495	15412
918.606	15249
918.717	15142
918.828	15283
918.939	15283
919.05	15173
919.161	15226
919.272	15005
919.383	15058
919.494	15241
919.604	15462
919.715	15291
919.826	15131
919.936	15256
920.047	15256
920.157	15195
920.267	15344
920.378	15283
920.488	15119
920.598	15313
920.708	15447
920.818	15325
920.928	15382
921.038	15549
921.148	15416
921.258	15150
921.368	15013
921.477	14921
921.587	14925
921.697	14880
921.806	14815
921.916	14769
922.025	14541
922.134	14511
922.244	14419
922.353	14514
922.462	14419
922.571	14434
922.68	14199
922.789	14183
922.898	14221
923.007	14027
923.116	14153
923.224	14123
923.333	14195
923.442	14008
923.55	13955
923.659	13959
923.767	14084
923.876	13879
923.984	14050
924.092	13845
924.201	13963
924.309	13898
924.417	13986
924.525	13864
924.633	13879
924.741	14575
924.849	13586
924.956	13674
925.064	13616
925.172	13499
925.279	13518
925.387	13616
925.494	13537
925.602	13742
925.709	13556
925.816	13430
925.924	13460
926.031	13578
926.138	13460
926.245	13480
926.352	13282
926.459	13525
926.566	13521
926.673	13449
926.779	13236
926.886	13285
926.993	13114
927.099	13069
927.206	13057
927.312	13015
927.419	13099
927.525	13042
927.631	13042
927.737	13027
927.843	13012
927.95	12863
928.056	12947
928.162	12894
928.267	12932
928.373	13548
928.479	12935
928.585	12719
928.69	12867
928.796	12787
928.901	12696
929.007	12616
929.112	12722
929.218	12779
929.323	12582
929.428	12608
929.533	12688
929.638	12589
929.743	12585
929.848	12612
929.953	12635
930.058	12456
930.163	12251
930.267	12361
930.372	12429
930.477	12197
930.581	12570
930.685	12323
930.79	12197
930.894	12251
930.998	12243
931.103	12247
931.207	11927
931.311	11866
931.415	11733
931.519	11638
931.623	11516
