Data from test_V78500241_349.txt Node
Date: Fri Mar 25 15:44:13 CST 2022
User: usil
Spectrometer: V785-0024
Trigger mode: 0
Integration Time (sec): 4.000000E-1
Scans to average: 1
Nonlinearity correction enabled: false
Boxcar width: 0
Storing dark spectrum: false
XAxis mode: Wavelengths
Number of Pixels in Spectrum: 1024
>>>>>Begin Spectral Data<<<<<
801.071	29798
801.214	29847
801.356	29501
801.499	29543
801.641	29250
801.783	29391
801.926	29444
802.068	29368
802.211	29330
802.353	29143
802.496	29014
802.638	28957
802.78	28892
802.923	28805
803.065	28847
803.208	29041
803.35	29109
803.492	29143
803.635	29212
803.777	29037
803.919	29269
804.061	29535
804.204	29280
804.346	29147
804.488	29090
804.63	29250
804.773	29170
804.915	29269
805.057	29326
805.199	29197
805.341	29296
805.483	29512
805.626	29280
805.768	29155
805.91	29261
806.052	29250
806.194	29322
806.336	29581
806.478	29505
806.62	29326
806.762	29421
806.904	29619
807.046	29882
807.188	29630
807.33	29859
807.472	29813
807.614	29726
807.756	29840
807.898	29562
808.04	29455
808.182	29703
808.324	29551
808.465	29649
808.607	29649
808.749	29912
808.891	30140
809.033	30220
809.174	29992
809.316	30060
809.458	30011
809.6	29992
809.741	29977
809.883	30095
810.025	30262
810.166	30311
810.308	30300
810.45	30292
810.591	30220
810.733	30114
810.875	29908
811.016	29756
811.158	29920
811.299	30209
811.441	30209
811.582	30159
811.724	30068
811.865	30011
812.007	30003
812.148	29927
812.29	29916
812.431	30140
812.573	30395
812.714	30448
812.855	30498
812.997	30604
813.138	30673
813.279	30696
813.421	30707
813.562	30532
813.703	30422
813.845	30174
813.986	29908
814.127	29809
814.268	29741
814.41	29710
814.551	29687
814.692	29798
814.833	29665
814.974	29459
815.115	29630
815.256	29551
815.397	29604
815.539	29539
815.68	29429
815.821	29284
815.962	29512
816.103	29383
816.244	29261
816.385	29235
816.526	29147
816.666	28930
816.807	28904
816.948	28919
817.089	28987
817.23	28877
817.371	28930
817.512	28965
817.653	28858
817.793	28755
817.934	28911
818.075	28881
818.216	28839
818.356	28854
818.497	28717
818.638	28577
818.778	28603
818.919	28580
819.06	28523
819.2	28782
819.341	28854
819.481	28759
819.622	29037
819.762	29193
819.903	29037
820.043	29003
820.184	29029
820.324	29071
820.465	29056
820.605	28995
820.746	28881
820.886	28850
821.026	28866
821.167	28976
821.307	28919
821.447	28980
821.588	28759
821.728	28786
821.868	28421
822.008	28287
822.149	28295
822.289	28280
822.429	28036
822.569	27987
822.709	27918
822.849	27743
822.99	27804
823.13	27766
823.27	27618
823.41	27625
823.55	27583
823.69	27732
823.83	27606
823.97	27523
824.11	27393
824.25	27245
824.389	27485
824.529	27549
824.669	27317
824.809	27656
824.949	27473
825.089	27519
825.228	27523
825.368	27123
825.508	27268
825.648	27146
825.787	27199
825.927	27302
826.067	27127
826.206	27287
826.346	27302
826.485	27264
826.625	27306
826.765	27443
826.904	27435
827.044	27112
827.183	27039
827.323	26967
827.462	26971
827.601	26910
827.741	26895
827.88	27024
828.02	26902
828.159	27138
828.298	27017
828.437	26925
828.577	27001
828.716	27089
828.855	26716
828.994	26663
829.134	26705
829.273	26750
829.412	26682
829.551	26537
829.69	26606
829.829	26667
829.968	26743
830.107	26727
830.246	26655
830.385	26571
830.524	26492
830.663	26362
830.802	26271
830.941	26278
831.08	26096
831.219	26206
831.357	26256
831.496	26374
831.635	26176
831.774	26126
831.913	26126
832.051	26039
832.19	25917
832.329	26077
832.467	25917
832.606	25719
832.744	25715
832.883	25993
833.022	25715
833.16	25811
833.299	25845
833.437	25894
833.576	25925
833.714	25860
833.852	25959
833.991	25871
834.129	25986
834.267	25986
834.406	25860
834.544	25852
834.682	25826
834.821	25909
834.959	26008
835.097	25715
835.235	25818
835.373	25700
835.511	25811
835.65	25776
835.788	25708
835.926	25479
836.064	25449
836.202	25495
836.34	25578
836.478	25601
836.615	25647
836.753	25613
836.891	25742
837.029	25499
837.167	25700
837.305	25495
837.443	25567
837.58	25381
837.718	25502
837.856	25529
837.993	25422
838.131	25613
838.269	25198
838.406	25354
838.544	25240
838.681	25156
838.819	25050
838.956	24920
839.094	24890
839.231	24913
839.369	25057
839.506	25171
839.643	25103
839.781	24894
839.918	24779
840.055	24875
840.193	24821
840.33	24768
840.467	24726
840.604	24833
840.742	25038
840.879	24795
841.016	24719
841.153	24684
841.29	24970
841.427	24844
841.564	24757
841.701	24825
841.838	24757
841.975	24563
842.112	24612
842.249	24604
842.385	24502
842.522	24867
842.659	24608
842.796	24494
842.933	24456
843.069	24456
843.206	24342
843.343	24559
843.479	24570
843.616	24372
843.752	24194
843.889	24262
844.025	24323
844.162	24178
844.298	24266
844.435	24216
844.571	24106
844.708	24353
844.844	24285
844.98	24445
845.117	24251
845.253	24205
845.389	24064
845.525	24144
845.661	24030
845.798	23920
845.934	23969
846.07	23939
846.206	23965
846.342	24022
846.478	23988
846.614	23817
846.75	23657
846.886	23562
847.022	23851
847.158	23809
847.294	23684
847.429	23794
847.565	23611
847.701	23771
847.837	23376
847.972	23341
848.108	23406
848.244	23383
848.379	23246
848.515	23231
848.65	23326
848.786	23277
848.921	23109
849.057	23444
849.192	23353
849.328	23235
849.463	23178
849.598	23147
849.734	23056
849.869	23025
850.004	22984
850.14	23086
850.275	22908
850.41	22889
850.545	22911
850.68	23014
850.815	22999
850.95	22938
851.085	23181
851.22	23044
851.355	22919
851.49	22801
851.625	22847
851.76	22858
851.895	22889
852.03	22854
852.165	22911
852.299	22968
852.434	22987
852.569	22987
852.703	23079
852.838	22984
852.973	22980
853.107	22957
853.242	22843
853.376	22816
853.511	22592
853.645	22675
853.78	22889
853.914	22672
854.048	22755
854.183	22744
854.317	22831
854.451	22923
854.585	22778
854.72	22778
854.854	22805
854.988	22713
855.122	22820
855.256	22630
855.39	22771
855.524	22816
855.658	22873
855.792	22683
855.926	22805
856.06	22786
856.194	22881
856.327	22664
856.461	22713
856.595	22694
856.729	22710
856.862	22911
856.996	22767
857.13	22771
857.263	22786
857.397	22873
857.53	22687
857.664	22771
857.797	22721
857.931	22911
858.064	22744
858.197	22869
858.331	22710
858.464	22550
858.597	22584
858.731	22698
858.864	22687
858.997	22611
859.13	22660
859.263	22809
859.396	22786
859.529	22694
859.662	22630
859.795	22767
859.928	22702
860.061	22839
860.194	22843
860.327	22782
860.46	22706
860.592	22847
860.725	22896
860.858	22896
860.99	22759
861.123	22599
861.256	22637
861.388	22615
861.521	23535
861.653	22592
861.786	22508
861.918	22557
862.05	22565
862.183	22599
862.315	22729
862.447	22721
862.58	22706
862.712	22474
862.844	22421
862.976	22485
863.108	22531
863.24	22759
863.372	22337
863.504	22329
863.636	22417
863.768	22455
863.9	22470
864.032	22306
864.164	22424
864.296	22432
864.428	22504
864.559	22462
864.691	22580
864.823	22344
864.954	22352
865.086	22386
865.217	22314
865.349	22234
865.48	22253
865.612	22215
865.743	22485
865.875	22265
866.006	22207
866.137	22158
866.269	22287
866.4	22188
866.531	22139
866.662	22257
866.793	22249
866.924	22177
867.055	22306
867.186	22135
867.317	22211
867.448	22101
867.579	22154
867.71	22150
867.841	22048
867.972	22200
868.103	22139
868.233	22158
868.364	22249
868.495	22314
868.625	22405
868.756	22371
868.886	22333
869.017	22405
869.147	22554
869.278	22413
869.408	22322
869.539	22455
869.669	22409
869.799	22531
869.929	22519
870.06	22523
870.19	22694
870.32	22763
870.45	22733
870.58	22904
870.71	22797
870.84	22919
870.97	22850
871.1	22771
871.23	22866
871.36	22938
871.489	22866
871.619	22930
871.749	23022
871.879	23083
872.008	23067
872.138	22965
872.267	23105
872.397	22797
872.526	22957
872.656	22831
872.785	22809
872.915	22942
873.044	23147
873.173	22999
873.303	23094
873.432	23079
873.561	23064
873.69	23025
873.819	22934
873.948	23143
874.077	23147
874.206	22961
874.335	23052
874.464	23193
874.593	23174
874.722	23079
874.851	23360
874.979	23208
875.108	23284
875.237	23193
875.365	23193
875.494	23109
875.623	23296
875.751	23041
875.88	23200
876.008	23372
876.136	23482
876.265	23600
876.393	23741
876.521	23790
876.65	23680
876.778	23611
876.906	23634
877.034	23531
877.162	23668
877.29	23467
877.418	23623
877.546	23493
877.674	23619
877.802	23520
877.93	23596
878.058	23585
878.185	23535
878.313	23467
878.441	23604
878.568	23417
878.696	23368
878.824	23642
878.951	23642
879.079	23836
879.206	23775
879.333	23737
879.461	23642
879.588	23657
879.715	23543
879.842	23961
879.97	23684
880.097	23364
880.224	23467
880.351	23459
880.478	23326
880.605	23277
880.732	23330
880.859	23592
880.986	23395
881.112	23471
881.239	23277
881.366	23098
881.493	23067
881.619	22923
881.746	22949
881.872	23003
881.999	22965
882.125	22892
882.252	22987
882.378	22927
882.505	22972
882.631	22793
882.757	22599
882.883	22752
883.01	22675
883.136	22626
883.262	22451
883.388	22531
883.514	22653
883.64	22637
883.766	22470
883.892	22424
884.018	22462
884.143	22603
884.269	22577
884.395	22318
884.52	22177
884.646	22333
884.772	22242
884.897	22166
885.023	22257
885.148	22238
885.274	22455
885.399	22360
885.524	22314
885.65	22363
885.775	22185
885.9	22223
886.025	22375
886.15	22325
886.275	22139
886.4	22177
886.525	22242
886.65	22257
886.775	22185
886.9	22360
887.025	22481
887.149	22192
887.274	22078
887.399	22147
887.523	21945
887.648	21983
887.773	21873
887.897	21968
888.021	22006
888.146	21918
888.27	22059
888.395	22101
888.519	21968
888.643	22101
888.767	21918
888.891	22029
889.015	21694
889.139	21846
889.263	21682
889.387	21884
889.511	21892
889.635	21983
889.759	21857
889.883	21770
890.006	21915
890.13	21869
890.254	21682
890.377	21534
890.501	21599
890.624	21435
890.748	21580
890.871	21469
890.995	21355
891.118	21351
891.241	21420
891.364	21321
891.488	21481
891.611	21355
891.734	21325
891.857	21408
891.98	21283
892.103	21348
892.226	21408
892.349	21275
892.471	21055
892.594	21233
892.717	21291
892.839	21180
892.962	21214
893.085	21313
893.207	21199
893.33	21192
893.452	21085
893.575	21131
893.697	21154
893.819	21249
893.941	21389
894.064	21214
894.186	21123
894.308	21081
894.43	21249
894.552	21523
894.674	21378
894.796	21055
894.918	21222
895.04	21135
895.161	21310
895.283	21325
895.405	21169
895.526	21157
895.648	21146
895.769	21195
895.891	21230
896.012	21359
896.134	21283
896.255	21119
896.376	21188
896.498	21268
896.619	21138
896.74	21249
896.861	21389
896.982	21610
897.103	21743
897.224	21511
897.345	21530
897.466	21405
897.587	21374
897.708	21519
897.828	21450
897.949	21275
898.07	21264
898.19	21279
898.311	21488
898.431	21249
898.552	21340
898.672	21466
898.792	21450
898.913	21515
899.033	21138
899.153	21096
899.273	21051
899.393	21173
899.513	21150
899.633	21096
899.753	21096
899.873	21001
899.993	21070
900.113	21043
900.232	21043
900.352	20971
900.472	20948
900.591	20845
900.711	20975
900.83	20872
900.95	20933
901.069	21009
901.189	20781
901.308	20526
901.427	20469
901.546	20507
901.665	20419
901.784	20412
901.904	20256
902.023	20244
902.141	20096
902.26	20084
902.379	19913
902.498	19947
902.617	19864
902.735	19978
902.854	19871
902.973	19925
903.091	19552
903.21	19533
903.328	19525
903.446	19529
903.565	19362
903.683	19350
903.801	19221
903.919	19460
904.038	19354
904.156	19129
904.274	19285
904.392	19084
904.51	19099
904.627	19088
904.745	19019
904.863	19148
904.981	18993
905.098	18821
905.216	18829
905.334	18722
905.451	18764
905.569	18806
905.686	18817
905.803	18814
905.921	18502
906.038	18650
906.155	18688
906.272	18422
906.389	18597
906.506	18277
906.623	18372
906.74	18308
906.857	18148
906.974	18353
907.091	18369
907.208	18403
907.324	18323
907.441	18266
907.557	17969
907.674	17939
907.79	18038
907.907	17916
908.023	17988
908.139	17908
908.256	17942
908.372	17927
908.488	17786
908.604	17627
908.72	17699
908.836	17729
908.952	17627
909.068	17657
909.184	17745
909.3	17699
909.415	17668
909.531	17619
909.647	17417
909.762	17425
909.878	17421
909.993	17433
910.108	17349
910.224	17303
910.339	17299
910.454	17246
910.57	17102
910.685	17117
910.8	17459
910.915	17356
911.03	17258
911.145	16987
911.259	17006
911.374	16927
911.489	16949
911.604	16729
911.718	16664
911.833	16679
911.947	16622
912.062	16615
912.176	16706
912.291	16645
912.405	16645
912.519	16816
912.633	16790
912.748	16698
912.862	16664
912.976	16428
913.09	16421
913.204	16314
913.318	16481
913.431	16535
913.545	16561
913.659	16512
913.772	16538
913.886	16344
914	16204
914.113	16265
914.226	16295
914.34	16341
914.453	16086
914.566	16287
914.68	16219
914.793	16128
914.906	15979
915.019	15873
915.132	15835
915.245	15800
915.358	15823
915.47	15880
915.583	15819
915.696	15911
915.809	15991
915.921	15983
916.034	15873
916.146	15759
916.259	15766
916.371	15915
916.483	15739
916.595	15797
916.708	15682
916.82	15690
916.932	15679
917.044	15599
917.156	15515
917.268	15504
917.38	15538
917.491	15389
917.603	15473
917.715	15526
917.826	15523
917.938	15447
918.049	15348
918.161	15291
918.272	15473
918.384	15568
918.495	15374
918.606	15363
918.717	15131
918.828	15176
918.939	15195
919.05	15116
919.161	15237
919.272	14952
919.383	15001
919.494	15230
919.604	15302
919.715	15169
919.826	14986
919.936	15173
920.047	15176
920.157	15097
920.267	15386
920.378	15135
920.488	15017
920.598	15233
920.708	15462
920.818	15325
920.928	15260
921.038	15420
921.148	15332
921.258	15039
921.368	14921
921.477	14895
921.587	14937
921.697	14788
921.806	14868
921.916	14746
922.025	14575
922.134	14537
922.244	14374
922.353	14514
922.462	14362
922.571	14298
922.68	14123
922.789	14149
922.898	14069
923.007	14046
923.116	14168
923.224	14096
923.333	14008
923.442	13898
923.55	13993
923.659	13898
923.767	13989
923.876	13852
923.984	13898
924.092	13852
924.201	13799
924.309	13704
924.417	13795
924.525	13662
924.633	13833
924.741	14545
924.849	13647
924.956	13727
925.064	13533
925.172	13468
925.279	13464
925.387	13487
925.494	13529
925.602	13681
925.709	13567
925.816	13441
925.924	13434
926.031	13495
926.138	13419
926.245	13430
926.352	13400
926.459	13506
926.566	13495
926.673	13388
926.779	13316
926.886	13213
926.993	13118
927.099	13031
927.206	12947
927.312	13069
927.419	13069
927.525	13019
927.631	13072
927.737	12973
927.843	12954
927.95	12734
928.056	12840
928.162	12863
928.267	12935
928.373	13441
928.479	12863
928.585	12741
928.69	12829
928.796	12859
928.901	12779
929.007	12513
929.112	12726
929.218	12669
929.323	12760
929.428	12570
929.533	12715
929.638	12544
929.743	12467
929.848	12574
929.953	12528
930.058	12467
930.163	12232
930.267	12289
930.372	12391
930.477	12140
930.581	12471
930.685	12285
930.79	12144
930.894	12079
930.998	12102
931.103	12235
931.207	11843
931.311	11843
931.415	11779
931.519	11478
931.623	11414
