Data from test_V78500241_2905.txt Node
Date: Fri Mar 25 16:01:55 CST 2022
User: usil
Spectrometer: V785-0024
Trigger mode: 0
Integration Time (sec): 4.000000E-1
Scans to average: 1
Nonlinearity correction enabled: false
Boxcar width: 0
Storing dark spectrum: false
XAxis mode: Wavelengths
Number of Pixels in Spectrum: 1024
>>>>>Begin Spectral Data<<<<<
801.071	28497
801.214	28371
801.356	28032
801.499	28158
801.641	28082
801.783	27865
801.926	28025
802.068	27934
802.211	28112
802.353	28006
802.496	27690
802.638	27755
802.78	27667
802.923	27606
803.065	27671
803.208	27652
803.35	27667
803.492	27941
803.635	27911
803.777	27797
803.919	27998
804.061	28219
804.204	27880
804.346	27880
804.488	27789
804.63	27831
804.773	27717
804.915	27983
805.057	28048
805.199	27937
805.341	28017
805.483	28048
805.626	28067
805.768	28055
805.91	28097
806.052	28029
806.194	27960
806.336	28128
806.478	28177
806.62	28150
806.762	28303
806.904	28329
807.046	28660
807.188	28500
807.33	28622
807.472	28653
807.614	28371
807.756	28440
807.898	28462
808.04	28211
808.182	28173
808.324	28561
808.465	28459
808.607	28679
808.749	28793
808.891	28675
809.033	28972
809.174	28877
809.316	28660
809.458	28759
809.6	28706
809.741	28881
809.883	28961
810.025	28987
810.166	28911
810.308	29003
810.45	28892
810.591	28991
810.733	28843
810.875	28740
811.016	28675
811.158	28519
811.299	28801
811.441	28919
811.582	28900
811.724	28752
811.865	28752
812.007	28774
812.148	28797
812.29	28774
812.431	28698
812.573	29010
812.714	29086
812.855	29261
812.997	29421
813.138	29509
813.279	29440
813.421	29303
813.562	29265
813.703	29060
813.845	28953
813.986	28698
814.127	28626
814.268	28451
814.41	28485
814.551	28375
814.692	28478
814.833	28447
814.974	28455
815.115	28379
815.256	28223
815.397	28188
815.539	28360
815.68	28367
815.821	28185
815.962	28337
816.103	28204
816.244	28147
816.385	27934
816.526	28109
816.666	27911
816.807	27743
816.948	27838
817.089	27956
817.23	27880
817.371	27850
817.512	27686
817.653	27652
817.793	27736
817.934	27774
818.075	27762
818.216	27713
818.356	27755
818.497	27648
818.638	27424
818.778	27675
818.919	27667
819.06	27545
819.2	27755
819.341	27816
819.481	27804
819.622	28013
819.762	28105
819.903	28093
820.043	27869
820.184	27880
820.324	27903
820.465	27945
820.605	27842
820.746	27838
820.886	27660
821.026	27914
821.167	27838
821.307	27835
821.447	27812
821.588	27770
821.728	27572
821.868	27443
822.008	27355
822.149	27249
822.289	27367
822.429	26937
822.569	26948
822.709	26819
822.849	26621
822.99	26807
823.13	26746
823.27	26663
823.41	26617
823.55	26609
823.69	26503
823.83	26507
823.97	26526
824.11	26286
824.25	26343
824.389	26415
824.529	26629
824.669	26313
824.809	26434
824.949	26530
825.089	26423
825.228	26613
825.368	26317
825.508	26355
825.648	26347
825.787	26374
825.927	26259
826.067	26176
826.206	26290
826.346	26473
826.485	26461
826.625	26305
826.765	26442
826.904	26324
827.044	26001
827.183	26107
827.323	26145
827.462	25974
827.601	25989
827.741	26039
827.88	26187
828.02	25830
828.159	25928
828.298	25925
828.437	26077
828.577	25909
828.716	26100
828.855	25921
828.994	25723
829.134	25674
829.273	25746
829.412	25639
829.551	25529
829.69	25734
829.829	25746
829.968	25864
830.107	25731
830.246	25791
830.385	25772
830.524	25601
830.663	25521
830.802	25445
830.941	25438
831.08	25388
831.219	25373
831.357	25396
831.496	25559
831.635	25384
831.774	25168
831.913	25126
832.051	25148
832.19	25168
832.329	25160
832.467	24985
832.606	24783
832.744	24909
832.883	24935
833.022	24966
833.16	24954
833.299	25072
833.437	24989
833.576	25076
833.714	25004
833.852	25133
833.991	25148
834.129	25027
834.267	25129
834.406	25038
834.544	25065
834.682	24992
834.821	25099
834.959	25137
835.097	24905
835.235	25194
835.373	25076
835.511	25072
835.65	24913
835.788	24905
835.926	24787
836.064	24700
836.202	24612
836.34	24951
836.478	25027
836.615	24913
836.753	24795
836.891	24981
837.029	24935
837.167	24878
837.305	24890
837.443	24802
837.58	24700
837.718	24897
837.856	24692
837.993	24776
838.131	24700
838.269	24536
838.406	24604
838.544	24467
838.681	24407
838.819	24270
838.956	24178
839.094	24273
839.231	24247
839.369	24277
839.506	24513
839.643	24403
839.781	24049
839.918	24174
840.055	24167
840.193	24083
840.33	24030
840.467	24167
840.604	24087
840.742	24365
840.879	24041
841.016	24015
841.153	24011
841.29	24205
841.427	24034
841.564	24129
841.701	24106
841.838	24022
841.975	24079
842.112	24068
842.249	23832
842.385	23817
842.522	24007
842.659	23859
842.796	23813
842.933	23912
843.069	23748
843.206	23794
843.343	23882
843.479	23882
843.616	23821
843.752	23573
843.889	23630
844.025	23779
844.162	23573
844.298	23767
844.435	23520
844.571	23573
844.708	23562
844.844	23790
844.98	23874
845.117	23634
845.253	23627
845.389	23577
845.525	23486
845.661	23547
845.798	23345
845.934	23299
846.07	23318
846.206	23376
846.342	23391
846.478	23235
846.614	23010
846.75	22961
846.886	23056
847.022	23083
847.158	23083
847.294	22976
847.429	23181
847.565	22942
847.701	23303
847.837	22733
847.972	22744
848.108	22850
848.244	22786
848.379	22694
848.515	22748
848.65	22565
848.786	22702
848.921	22725
849.057	22805
849.192	22805
849.328	22603
849.463	22508
849.598	22653
849.734	22504
849.869	22535
850.004	22466
850.14	22504
850.275	22550
850.41	22443
850.545	22295
850.68	22344
850.815	22466
850.95	22455
851.085	22466
851.22	22573
851.355	22390
851.49	22470
851.625	22303
851.76	22474
851.895	22299
852.03	22394
852.165	22367
852.299	22428
852.434	22557
852.569	22478
852.703	22504
852.838	22519
852.973	22554
853.107	22493
853.242	22341
853.376	22382
853.511	22181
853.645	22200
853.78	22432
853.914	22276
854.048	22295
854.183	22158
854.317	22344
854.451	22474
854.585	22280
854.72	22154
854.854	22333
854.988	22105
855.122	22230
855.256	22090
855.39	22268
855.524	22226
855.658	22147
855.792	22219
855.926	22223
856.06	22314
856.194	22207
856.327	22295
856.461	22234
856.595	22185
856.729	22299
856.862	22363
856.996	22272
857.13	22367
857.263	22322
857.397	22322
857.53	22230
857.664	22299
857.797	22242
857.931	22333
858.064	22402
858.197	22310
858.331	22306
858.464	22211
858.597	22139
858.731	22010
858.864	22253
858.997	22268
859.13	22200
859.263	22200
859.396	22306
859.529	22265
859.662	22215
859.795	22291
859.928	22299
860.061	22432
860.194	22493
860.327	22196
860.46	22306
860.592	22325
860.725	22390
860.858	22318
860.99	22268
861.123	22139
861.256	22116
861.388	22295
861.521	22961
861.653	22154
861.786	22112
861.918	22086
862.05	22154
862.183	22147
862.315	22314
862.447	22287
862.58	22147
862.712	21964
862.844	21911
862.976	22032
863.108	21903
863.24	22478
863.372	21930
863.504	21994
863.636	21922
863.768	21907
863.9	22013
864.032	21941
864.164	21797
864.296	22006
864.428	22109
864.559	21956
864.691	21903
864.823	21930
864.954	22112
865.086	21937
865.217	21857
865.349	21819
865.48	21903
865.612	21934
865.743	22029
865.875	21835
866.006	21751
866.137	21797
866.269	21842
866.4	21861
866.531	21743
866.662	21819
866.793	21804
866.924	21732
867.055	21789
867.186	21785
867.317	21759
867.448	21667
867.579	21759
867.71	21622
867.841	21622
867.972	21778
868.103	21732
868.233	21717
868.364	21759
868.495	21808
868.625	22021
868.756	22120
868.886	21827
869.017	21869
869.147	22226
869.278	22040
869.408	22207
869.539	21884
869.669	22097
869.799	22055
869.929	22196
870.06	22036
870.19	22303
870.32	22291
870.45	22344
870.58	22428
870.71	22481
870.84	22440
870.97	22379
871.1	22379
871.23	22519
871.36	22596
871.489	22485
871.619	22611
871.749	22611
871.879	22580
872.008	22702
872.138	22744
872.267	22531
872.397	22603
872.526	22489
872.656	22409
872.785	22489
872.915	22599
873.044	22736
873.173	22599
873.303	22793
873.432	22668
873.561	22835
873.69	22637
873.819	22577
873.948	22736
874.077	22565
874.206	22691
874.335	22626
874.464	22839
874.593	22812
874.722	22858
874.851	22771
874.979	22843
875.108	22828
875.237	22854
875.365	22786
875.494	22797
875.623	22824
875.751	22828
875.88	22934
876.008	23018
876.136	22995
876.265	23212
876.393	23212
876.521	23303
876.65	23410
876.778	23250
876.906	23250
877.034	23174
877.162	23231
877.29	23159
877.418	23208
877.546	23151
877.674	23292
877.802	23337
877.93	23181
878.058	23121
878.185	23048
878.313	23067
878.441	23170
878.568	23083
878.696	23060
878.824	23109
878.951	23273
879.079	23303
879.206	23455
879.333	23258
879.461	23162
879.588	23246
879.715	23200
879.842	23444
879.97	23299
880.097	23044
880.224	22965
880.351	23105
880.478	23086
880.605	22976
880.732	22930
880.859	23326
880.986	23086
881.112	22980
881.239	22889
881.366	22660
881.493	22664
881.619	22577
881.746	22664
881.872	22622
881.999	22546
882.125	22424
882.252	22630
882.378	22538
882.505	22797
882.631	22379
882.757	22265
882.883	22272
883.01	22257
883.136	22207
883.262	22086
883.388	22036
883.514	22257
883.64	22356
883.766	22109
883.892	22017
884.018	22109
884.143	22192
884.269	22276
884.395	21975
884.52	21778
884.646	21915
884.772	21823
884.897	21755
885.023	21949
885.148	22051
885.274	21960
885.399	21994
885.524	21831
885.65	21991
885.775	21991
885.9	21880
886.025	22120
886.15	21857
886.275	21717
886.4	21892
886.525	21812
886.65	21888
886.775	21759
886.9	21865
887.025	21983
887.149	21827
887.274	21694
887.399	21587
887.523	21679
887.648	21641
887.773	21492
887.897	21713
888.021	21698
888.146	21625
888.27	21641
888.395	21762
888.519	21698
888.643	21648
888.767	21633
888.891	21519
889.015	21443
889.139	21504
889.263	21431
889.387	21564
889.511	21603
889.635	21564
889.759	21428
889.883	21458
890.006	21374
890.13	21572
890.254	21310
890.377	21424
890.501	21169
890.624	21195
890.748	21195
890.871	21028
890.995	21024
891.118	20990
891.241	21043
891.364	21039
891.488	21184
891.611	21039
891.734	20975
891.857	21005
891.98	20994
892.103	20941
892.226	20979
892.349	20880
892.471	20807
892.594	20910
892.717	20887
892.839	20823
892.962	20895
893.085	20960
893.207	20914
893.33	20777
893.452	20750
893.575	21001
893.697	20804
893.819	21096
893.941	21020
894.064	20880
894.186	20750
894.308	20762
894.43	20914
894.552	20921
894.674	20899
894.796	20864
894.918	20807
895.04	20720
895.161	20952
895.283	20842
895.405	20975
895.526	20914
895.648	20826
895.769	20857
895.891	20952
896.012	20963
896.134	20910
896.255	20796
896.376	20891
896.498	20963
896.619	20754
896.74	20914
896.861	20960
896.982	21207
897.103	21351
897.224	21245
897.345	21070
897.466	20975
897.587	20998
897.708	21123
897.828	21032
897.949	21020
898.07	20960
898.19	21028
898.311	21096
898.431	21020
898.552	21146
898.672	21165
898.792	21093
898.913	20967
899.033	20872
899.153	20952
899.273	20785
899.393	20899
899.513	20849
899.633	20781
899.753	20800
899.873	20689
899.993	20781
900.113	20792
900.232	20796
900.352	20686
900.472	20724
900.591	20552
900.711	20705
900.83	20480
900.95	20746
901.069	20716
901.189	20423
901.308	20267
901.427	20103
901.546	20115
901.665	20077
901.784	20172
901.904	20092
902.023	19845
902.141	19822
902.26	19715
902.379	19662
902.498	19681
902.617	19586
902.735	19594
902.854	19525
902.973	19464
903.091	19316
903.21	19301
903.328	19263
903.446	19255
903.565	19183
903.683	19122
903.801	18996
903.919	18977
904.038	19129
904.156	18840
904.274	18890
904.392	18814
904.51	18856
904.627	18837
904.745	18844
904.863	18947
904.981	18696
905.098	18467
905.216	18547
905.334	18620
905.451	18616
905.569	18532
905.686	18525
905.803	18517
905.921	18273
906.038	18403
906.155	18323
906.272	18209
906.389	18277
906.506	18079
906.623	18117
906.74	18060
906.857	17912
906.974	17973
907.091	18228
907.208	18095
907.324	18011
907.441	17908
907.557	17771
907.674	17752
907.79	17630
907.907	17665
908.023	17718
908.139	17741
908.256	17687
908.372	17695
908.488	17707
908.604	17436
908.72	17459
908.836	17436
908.952	17463
909.068	17543
909.184	17543
909.3	17387
909.415	17463
909.531	17562
909.647	17258
909.762	17284
909.878	17102
909.993	17147
910.108	17162
910.224	17098
910.339	17056
910.454	17086
910.57	16980
910.685	16866
910.8	17159
910.915	17220
911.03	16987
911.145	16847
911.259	16740
911.374	16759
911.489	16615
911.604	16721
911.718	16580
911.833	16542
911.947	16367
912.062	16329
912.176	16516
912.291	16500
912.405	16462
912.519	16664
912.633	16683
912.748	16497
912.862	16451
912.976	16348
913.09	16131
913.204	16314
913.318	16322
913.431	16394
913.545	16314
913.659	16356
913.772	16352
913.886	16169
914	16177
914.113	16112
914.226	16341
914.34	16044
914.453	15972
914.566	16162
914.68	15911
914.793	15842
914.906	15755
915.019	15736
915.132	15614
915.245	15713
915.358	15622
915.47	15652
915.583	15713
915.696	15671
915.809	15785
915.921	15747
916.034	15629
916.146	15603
916.259	15408
916.371	15686
916.483	15599
916.595	15572
916.708	15492
916.82	15538
916.932	15485
917.044	15606
917.156	15462
917.268	15287
917.38	15363
917.491	15313
917.603	15447
917.715	15462
917.826	15447
917.938	15294
918.049	15116
918.161	15241
918.272	15496
918.384	15389
918.495	15283
918.606	15135
918.717	15001
918.828	15180
918.939	15127
919.05	14982
919.161	15058
919.272	14887
919.383	14956
919.494	15066
919.604	15237
919.715	15135
919.826	14963
919.936	15009
920.047	15077
920.157	14982
920.267	15241
920.378	15047
920.488	15024
920.598	15161
920.708	15355
920.818	15138
920.928	15146
921.038	15317
921.148	15203
921.258	14902
921.368	14857
921.477	14815
921.587	14838
921.697	14579
921.806	14735
921.916	14644
922.025	14492
922.134	14381
922.244	14271
922.353	14454
922.462	14263
922.571	14343
922.68	14103
922.789	14020
922.898	13986
923.007	13944
923.116	14092
923.224	13989
923.333	14088
923.442	13845
923.55	13868
923.659	13936
923.767	13887
923.876	13742
923.984	13860
924.092	13719
924.201	13856
924.309	13849
924.417	13784
924.525	13715
924.633	13670
924.741	14644
924.849	13510
924.956	13605
925.064	13460
925.172	13346
925.279	13392
925.387	13434
925.494	13381
925.602	13529
925.709	13525
925.816	13293
925.924	13354
926.031	13388
926.138	13316
926.245	13415
926.352	13247
926.459	13411
926.566	13358
926.673	13274
926.779	13133
926.886	13141
926.993	13012
927.099	12954
927.206	12947
927.312	12894
927.419	12928
927.525	12932
927.631	13099
927.737	12821
927.843	12837
927.95	12741
928.056	12734
928.162	12787
928.267	12840
928.373	13434
928.479	12863
928.585	12593
928.69	12654
928.796	12707
928.901	12589
929.007	12475
929.112	12620
929.218	12585
929.323	12456
929.428	12566
929.533	12642
929.638	12464
929.743	12376
929.848	12456
929.953	12369
930.058	12311
930.163	12136
930.267	12171
930.372	12338
930.477	12152
930.581	12384
930.685	12182
930.79	12114
930.894	12133
930.998	12019
931.103	12152
931.207	11813
931.311	11691
931.415	11608
931.519	11391
931.623	11406
