Data from test_V78500241_1644.txt Node
Date: Fri Mar 25 14:45:09 CST 2022
User: usil
Spectrometer: V785-0024
Trigger mode: 0
Integration Time (sec): 4.000000E-1
Scans to average: 1
Nonlinearity correction enabled: false
Boxcar width: 0
Storing dark spectrum: false
XAxis mode: Wavelengths
Number of Pixels in Spectrum: 1024
>>>>>Begin Spectral Data<<<<<
801.071	22360
801.214	22295
801.356	21941
801.499	21804
801.641	21603
801.783	21671
801.926	21648
802.068	21629
802.211	21542
802.353	21466
802.496	21317
802.638	21169
802.78	21203
802.923	21089
803.065	20948
803.208	21123
803.35	21043
803.492	21184
803.635	21112
803.777	21104
803.919	21066
804.061	21386
804.204	21195
804.346	20971
804.488	20925
804.63	21055
804.773	20921
804.915	20887
805.057	21085
805.199	20937
805.341	21058
805.483	21157
805.626	21055
805.768	20906
805.91	20937
806.052	21039
806.194	20804
806.336	20998
806.478	21051
806.62	20883
806.762	21043
806.904	21184
807.046	21351
807.188	21272
807.33	21340
807.472	21351
807.614	21294
807.756	21211
807.898	21131
808.04	21058
808.182	21047
808.324	21024
808.465	21081
808.607	21237
808.749	21386
808.891	21507
809.033	21485
809.174	21462
809.316	21443
809.458	21416
809.6	21302
809.741	21454
809.883	21389
810.025	21561
810.166	21431
810.308	21511
810.45	21519
810.591	21420
810.733	21252
810.875	21150
811.016	21222
811.158	21058
811.299	21195
811.441	21245
811.582	21264
811.724	21123
811.865	21135
812.007	20925
812.148	21093
812.29	21142
812.431	21310
812.573	21405
812.714	21637
812.855	21561
812.997	21717
813.138	21781
813.279	21671
813.421	21694
813.562	21542
813.703	21428
813.845	21226
813.986	20990
814.127	20834
814.268	20621
814.41	20785
814.551	20682
814.692	20678
814.833	20708
814.974	20621
815.115	20663
815.256	20522
815.397	20457
815.539	20484
815.68	20366
815.821	20385
815.962	20366
816.103	20343
816.244	20168
816.385	20088
816.526	20210
816.666	19963
816.807	19685
816.948	19890
817.089	19955
817.23	19727
817.371	19856
817.512	19700
817.653	19757
817.793	19788
817.934	19788
818.075	19803
818.216	19765
818.356	19696
818.497	19594
818.638	19441
818.778	19480
818.919	19540
819.06	19575
819.2	19689
819.341	19666
819.481	19616
819.622	19799
819.762	20027
819.903	19989
820.043	19837
820.184	19727
820.324	19693
820.465	19849
820.605	19856
820.746	19704
820.886	19559
821.026	19719
821.167	19750
821.307	19727
821.447	19689
821.588	19616
821.728	19525
821.868	19339
822.008	19213
822.149	19145
822.289	19137
822.429	18966
822.569	18924
822.709	18890
822.849	18760
822.99	18646
823.13	18707
823.27	18597
823.41	18441
823.55	18372
823.69	18479
823.83	18582
823.97	18311
824.11	18285
824.25	18239
824.389	18186
824.529	18388
824.669	18311
824.809	18350
824.949	18338
825.089	18270
825.228	18232
825.368	18072
825.508	18091
825.648	18026
825.787	18106
825.927	18034
826.067	17999
826.206	18022
826.346	18091
826.485	17923
826.625	18140
826.765	18076
826.904	18030
827.044	17851
827.183	17756
827.323	17741
827.462	17764
827.601	17695
827.741	17737
827.88	17764
828.02	17600
828.159	17748
828.298	17615
828.437	17790
828.577	17638
828.716	17786
828.855	17649
828.994	17421
829.134	17433
829.273	17505
829.412	17410
829.551	17360
829.69	17448
829.829	17414
829.968	17535
830.107	17402
830.246	17482
830.385	17414
830.524	17368
830.663	17387
830.802	17162
830.941	17029
831.08	17014
831.219	17155
831.357	17159
831.496	17307
831.635	17056
831.774	16968
831.913	17014
832.051	16881
832.19	16866
832.329	16831
832.467	16672
832.606	16668
832.744	16755
832.883	16809
833.022	16713
833.16	16831
833.299	16748
833.437	16675
833.576	16915
833.714	16831
833.852	16828
833.991	16824
834.129	16930
834.267	16843
834.406	16763
834.544	16850
834.682	16896
834.821	16839
834.959	16999
835.097	16759
835.235	16831
835.373	16847
835.511	16805
835.65	16725
835.788	16660
835.926	16588
836.064	16478
836.202	16565
836.34	16656
836.478	16752
836.615	16691
836.753	16687
836.891	16774
837.029	16668
837.167	16733
837.305	16596
837.443	16702
837.58	16523
837.718	16649
837.856	16615
837.993	16542
838.131	16607
838.269	16508
838.406	16432
838.544	16402
838.681	16318
838.819	16143
838.956	16082
839.094	16071
839.231	16128
839.369	16299
839.506	16519
839.643	16249
839.781	16158
839.918	16036
840.055	16135
840.193	16154
840.33	16074
840.467	16021
840.604	16093
840.742	16348
840.879	15998
841.016	16078
841.153	16002
841.29	16226
841.427	16029
841.564	16166
841.701	16196
841.838	15964
841.975	15941
842.112	15949
842.249	15926
842.385	15781
842.522	16116
842.659	15854
842.796	15759
842.933	15838
843.069	15797
843.206	15785
843.343	16010
843.479	15884
843.616	15964
843.752	15705
843.889	15682
844.025	15785
844.162	15557
844.298	15698
844.435	15614
844.571	15584
844.708	15705
844.844	15831
844.98	15865
845.117	15835
845.253	15625
845.389	15606
845.525	15637
845.661	15656
845.798	15534
845.934	15629
846.07	15576
846.206	15500
846.342	15690
846.478	15530
846.614	15298
846.75	15154
846.886	15264
847.022	15359
847.158	15222
847.294	15294
847.429	15348
847.565	15150
847.701	15447
847.837	14971
847.972	14933
848.108	15097
848.244	15017
848.379	14876
848.515	14849
848.65	14773
848.786	14788
848.921	14895
849.057	15001
849.192	14880
849.328	14868
849.463	14925
849.598	14773
849.734	14762
849.869	14720
850.004	14629
850.14	14701
850.275	14590
850.41	14503
850.545	14568
850.68	14613
850.815	14632
850.95	14571
851.085	14750
851.22	14785
851.355	14583
851.49	14541
851.625	14533
851.76	14568
851.895	14552
852.03	14473
852.165	14579
852.299	14583
852.434	14667
852.569	14617
852.703	14564
852.838	14708
852.973	14838
853.107	14678
853.242	14560
853.376	14571
853.511	14309
853.645	14427
853.78	14655
853.914	14431
854.048	14370
854.183	14385
854.317	14465
854.451	14575
854.585	14488
854.72	14457
854.854	14495
854.988	14389
855.122	14446
855.256	14332
855.39	14457
855.524	14476
855.658	14473
855.792	14503
855.926	14495
856.06	14549
856.194	14495
856.327	14442
856.461	14366
856.595	14473
856.729	14438
856.862	14560
856.996	14507
857.13	14564
857.263	14663
857.397	14556
857.53	14461
857.664	14533
857.797	14587
857.931	14579
858.064	14533
858.197	14590
858.331	14438
858.464	14393
858.597	14396
858.731	14450
858.864	14423
858.997	14454
859.13	14461
859.263	14438
859.396	14526
859.529	14415
859.662	14473
859.795	14377
859.928	14480
860.061	14693
860.194	14629
860.327	14492
860.46	14461
860.592	14663
860.725	14613
860.858	14606
860.99	14423
861.123	14423
861.256	14450
861.388	14454
861.521	15165
861.653	14339
861.786	14240
861.918	14267
862.05	14294
862.183	14389
862.315	14465
862.447	14598
862.58	14366
862.712	14202
862.844	14183
862.976	14324
863.108	14183
863.24	14663
863.372	14214
863.504	14221
863.636	14221
863.768	14252
863.9	14328
864.032	14115
864.164	14187
864.296	14309
864.428	14374
864.559	14351
864.691	14374
864.823	14320
864.954	14339
865.086	14233
865.217	14218
865.349	14153
865.48	14218
865.612	14202
865.743	14412
865.875	14298
866.006	14278
866.137	14240
866.269	14206
866.4	14187
866.531	14069
866.662	14161
866.793	14229
866.924	14187
867.055	14210
867.186	14233
867.317	14096
867.448	14001
867.579	14248
867.71	14130
867.841	14065
867.972	14210
868.103	14206
868.233	14267
868.364	14168
868.495	14362
868.625	14541
868.756	14598
868.886	14419
869.017	14454
869.147	14571
869.278	14465
869.408	14427
869.539	14526
869.669	14598
869.799	14427
869.929	14503
870.06	14621
870.19	14845
870.32	14838
870.45	14830
870.58	14906
870.71	15123
870.84	14998
870.97	14807
871.1	14853
871.23	15100
871.36	14994
871.489	15028
871.619	14960
871.749	14998
871.879	15036
872.008	15192
872.138	15085
872.267	15020
872.397	14986
872.526	14895
872.656	14883
872.785	14921
872.915	15058
873.044	15317
873.173	15020
873.303	15089
873.432	15085
873.561	15123
873.69	15161
873.819	15058
873.948	15268
874.077	15112
874.206	15043
874.335	15055
874.464	15199
874.593	15367
874.722	15355
874.851	15485
874.979	15500
875.108	15511
875.237	15393
875.365	15325
875.494	15389
875.623	15466
875.751	15405
875.88	15481
876.008	15580
876.136	15564
876.265	15785
876.393	15960
876.521	15972
876.65	15876
876.778	15937
876.906	15800
877.034	15728
877.162	15823
877.29	15766
877.418	15857
877.546	15865
877.674	15854
877.802	15823
877.93	15808
878.058	15724
878.185	15766
878.313	15755
878.441	15827
878.568	15701
878.696	15804
878.824	15865
878.951	15850
879.079	15994
879.206	16013
879.333	15983
879.461	15915
879.588	15918
879.715	16150
879.842	16226
879.97	15930
880.097	15739
880.224	15656
880.351	15679
880.478	15690
880.605	15603
880.732	15698
880.859	15869
880.986	15682
881.112	15759
881.239	15561
881.366	15386
881.493	15382
881.619	15245
881.746	15348
881.872	15401
881.999	15340
882.125	15306
882.252	15386
882.378	15363
882.505	15511
882.631	15279
882.757	15211
882.883	15275
883.01	15161
883.136	15138
883.262	15009
883.388	15013
883.514	15287
883.64	15218
883.766	15077
883.892	14960
884.018	14975
884.143	15180
884.269	15275
884.395	14899
884.52	14883
884.646	14823
884.772	14754
884.897	14785
885.023	14880
885.148	14979
885.274	15058
885.399	14925
885.524	14899
885.65	14785
885.775	14899
885.9	14906
886.025	14933
886.15	14933
886.275	14735
886.4	14735
886.525	14785
886.65	14758
886.775	14781
886.9	14929
887.025	15062
887.149	14750
887.274	14686
887.399	14758
887.523	14610
887.648	14686
887.773	14495
887.897	14804
888.021	14667
888.146	14697
888.27	14758
888.395	14811
888.519	14750
888.643	14807
888.767	14796
888.891	14613
889.015	14526
889.139	14526
889.263	14575
889.387	14568
889.511	14705
889.635	14720
889.759	14571
889.883	14598
890.006	14571
890.13	14674
890.254	14518
890.377	14446
890.501	14396
890.624	14275
890.748	14446
890.871	14225
890.995	14233
891.118	14248
891.241	14176
891.364	14290
891.488	14404
891.611	14282
891.734	14180
891.857	14267
891.98	14221
892.103	14324
892.226	14267
892.349	14157
892.471	14073
892.594	14233
892.717	14233
892.839	14172
892.962	14286
893.085	14328
893.207	14202
893.33	14153
893.452	14161
893.575	14237
893.697	14168
893.819	14442
893.941	14461
894.064	14339
894.186	14256
894.308	14252
894.43	14320
894.552	14427
894.674	14423
894.796	14142
894.918	14347
895.04	14366
895.161	14412
895.283	14377
895.405	14290
895.526	14298
895.648	14408
895.769	14438
895.891	14427
896.012	14476
896.134	14377
896.255	14370
896.376	14339
896.498	14461
896.619	14389
896.74	14419
896.861	14415
896.982	14705
897.103	14819
897.224	14743
897.345	14712
897.466	14560
897.587	14686
897.708	14853
897.828	14743
897.949	14507
898.07	14617
898.19	14552
898.311	14857
898.431	14678
898.552	14750
898.672	14769
898.792	14956
898.913	14849
899.033	14632
899.153	14575
899.273	14533
899.393	14549
899.513	14667
899.633	14667
899.753	14594
899.873	14644
899.993	14701
900.113	14556
900.232	14682
900.352	14556
900.472	14522
900.591	14412
900.711	14495
900.83	14431
900.95	14461
901.069	14522
901.189	14377
901.308	14278
901.427	14145
901.546	14100
901.665	14202
901.784	14271
901.904	14024
902.023	13925
902.141	13799
902.26	13761
902.379	13822
902.498	13700
902.617	13658
902.735	13753
902.854	13681
902.973	13693
903.091	13434
903.21	13388
903.328	13316
903.446	13324
903.565	13274
903.683	13316
903.801	13129
903.919	13312
904.038	13194
904.156	13118
904.274	13122
904.392	12996
904.51	13034
904.627	13069
904.745	13171
904.863	13213
904.981	12932
905.098	12810
905.216	12768
905.334	12840
905.451	12783
905.569	12791
905.686	12798
905.803	12726
905.921	12650
906.038	12711
906.155	12627
906.272	12555
906.389	12498
906.506	12395
906.623	12346
906.74	12372
906.857	12258
906.974	12228
907.091	12479
907.208	12418
907.324	12437
907.441	12304
907.557	12148
907.674	12144
907.79	12072
907.907	12178
908.023	12209
908.139	12117
908.256	12098
908.372	12034
908.488	11916
908.604	11973
908.72	11832
908.836	11798
908.952	11840
909.068	11988
909.184	12049
909.3	11916
909.415	11885
909.531	11912
909.647	11699
909.762	11688
909.878	11623
909.993	11680
910.108	11661
910.224	11638
910.339	11680
910.454	11562
910.57	11501
910.685	11444
910.8	11745
910.915	11714
911.03	11547
911.145	11322
911.259	11395
911.374	11429
911.489	11288
911.604	11227
911.718	11094
911.833	11079
911.947	11018
912.062	10911
912.176	11056
912.291	11140
912.405	11121
912.519	11368
912.633	11326
912.748	11212
912.862	11136
912.976	11014
913.09	10805
913.204	10850
913.318	11037
913.431	11083
913.545	11025
913.659	11041
913.772	10938
913.886	10866
914	10877
914.113	11071
914.226	10946
914.34	11022
914.453	10755
914.566	10961
914.68	10801
914.793	10771
914.906	10577
915.019	10554
915.132	10577
915.245	10596
915.358	10512
915.47	10664
915.583	10588
915.696	10660
915.809	10748
915.921	10763
916.034	10618
916.146	10500
916.259	10447
916.371	10641
916.483	10672
916.595	10588
916.708	10538
916.82	10519
916.932	10489
917.044	10504
917.156	10451
917.268	10375
917.38	10432
917.491	10398
917.603	10333
917.715	10573
917.826	10512
917.938	10413
918.049	10295
918.161	10398
918.272	10443
918.384	10531
918.495	10527
918.606	10249
918.717	10306
918.828	10287
918.939	10390
919.05	10238
919.161	10367
919.272	10128
919.383	10188
919.494	10394
919.604	10493
919.715	10337
919.826	10227
919.936	10318
920.047	10428
920.157	10337
920.267	10550
920.378	10390
920.488	10291
920.598	10455
920.708	10630
920.818	10519
920.928	10497
921.038	10706
921.148	10656
921.258	10344
921.368	10249
921.477	10173
921.587	10154
921.697	10040
921.806	10158
921.916	10093
922.025	9937
922.134	9835
922.244	9842
922.353	9884
922.462	9762
922.571	9728
922.68	9564
922.789	9507
922.898	9614
923.007	9500
923.116	9606
923.224	9538
923.333	9591
923.442	9473
923.55	9397
923.659	9511
923.767	9534
923.876	9435
923.984	9481
924.092	9363
924.201	9424
924.309	9393
924.417	9336
924.525	9367
924.633	9408
924.741	10112
924.849	9176
924.956	9329
925.064	9211
925.172	9169
925.279	9207
925.387	9195
925.494	9241
925.602	9336
925.709	9302
925.816	9192
925.924	9233
926.031	9325
926.138	9233
926.245	9321
926.352	9108
926.459	9283
926.566	9344
926.673	9218
926.779	9074
926.886	9062
926.993	8883
927.099	8868
927.206	8826
927.312	8876
927.419	8956
927.525	8937
927.631	8990
927.737	8834
927.843	8807
927.95	8746
928.056	8800
928.162	8853
928.267	8876
928.373	9367
928.479	9013
928.585	8750
928.69	8868
928.796	8819
928.901	8739
929.007	8571
929.112	8762
929.218	8689
929.323	8693
929.428	8705
929.533	8826
929.638	8606
929.743	8590
929.848	8705
929.953	8575
930.058	8583
930.163	8355
930.267	8431
930.372	8571
930.477	8336
930.581	8610
930.685	8518
930.79	8377
930.894	8332
930.998	8362
931.103	8469
931.207	8195
931.311	8103
931.415	8024
931.519	7875
931.623	7811
