Data from test_V78500241_714.txt Node
Date: Fri Mar 25 14:38:41 CST 2022
User: usil
Spectrometer: V785-0024
Trigger mode: 0
Integration Time (sec): 4.000000E-1
Scans to average: 1
Nonlinearity correction enabled: false
Boxcar width: 0
Storing dark spectrum: false
XAxis mode: Wavelengths
Number of Pixels in Spectrum: 1024
>>>>>Begin Spectral Data<<<<<
801.071	27606
801.214	27477
801.356	27207
801.499	27135
801.641	27173
801.783	27081
801.926	26914
802.068	26906
802.211	26731
802.353	26667
802.496	26686
802.638	26560
802.78	26617
802.923	26438
803.065	26415
803.208	26575
803.35	26461
803.492	26598
803.635	26670
803.777	26587
803.919	26530
804.061	26937
804.204	26811
804.346	26689
804.488	26560
804.63	26750
804.773	26727
804.915	26944
805.057	27032
805.199	27009
805.341	27062
805.483	27199
805.626	27211
805.768	27245
805.91	27302
806.052	27663
806.194	27542
806.336	28070
806.478	28002
806.62	28070
806.762	28485
806.904	28896
807.046	29414
807.188	29600
807.33	30079
807.472	30890
807.614	31384
807.756	32191
807.898	33325
808.04	35006
808.182	37000
808.324	39797
808.465	42810
808.607	46078
808.749	49050
808.891	50800
809.033	51051
809.174	49297
809.316	46440
809.458	43038
809.6	39595
809.741	36616
809.883	34424
810.025	32925
810.166	31837
810.308	30905
810.45	30243
810.591	29851
810.733	29208
810.875	28805
811.016	28527
811.158	28280
811.299	28276
811.441	28154
811.582	27975
811.724	27873
811.865	27583
812.007	27477
812.148	27386
812.29	27454
812.431	27564
812.573	27637
812.714	27568
812.855	27572
812.997	27713
813.138	27865
813.279	27622
813.421	27462
813.562	27363
813.703	27214
813.845	27062
813.986	26765
814.127	26408
814.268	26309
814.41	26267
814.551	26309
814.692	26389
814.833	26081
814.974	26100
815.115	26001
815.256	25925
815.397	26126
815.539	25715
815.68	25772
815.821	25830
815.962	25742
816.103	25708
816.244	25449
816.385	25343
816.526	25396
816.666	25259
816.807	25069
816.948	25122
817.089	25072
817.23	25053
817.371	25080
817.512	25046
817.653	24848
817.793	25015
817.934	24878
818.075	25031
818.216	24905
818.356	24863
818.497	24764
818.638	24669
818.778	24730
818.919	24650
819.06	24623
819.2	24810
819.341	24806
819.481	24825
819.622	24954
819.762	25187
819.903	25103
820.043	25015
820.184	24814
820.324	24966
820.465	24943
820.605	24795
820.746	24711
820.886	24623
821.026	24673
821.167	24760
821.307	24741
821.447	24658
821.588	24452
821.728	24376
821.868	24232
822.008	24216
822.149	24049
822.289	24083
822.429	23767
822.569	23695
822.709	23710
822.849	23490
822.99	23452
823.13	23429
823.27	23478
823.41	23296
823.55	23140
823.69	23307
823.83	23121
823.97	23364
824.11	23109
824.25	22995
824.389	22999
824.529	23083
824.669	23075
824.809	23159
824.949	23193
825.089	23113
825.228	23083
825.368	22946
825.508	22752
825.648	22934
825.787	22786
825.927	22862
826.067	22748
826.206	22675
826.346	22793
826.485	22755
826.625	22752
826.765	22896
826.904	22866
827.044	22561
827.183	22611
827.323	22470
827.462	22493
827.601	22436
827.741	22436
827.88	22550
828.02	22413
828.159	22329
828.298	22508
828.437	22405
828.577	22394
828.716	22478
828.855	22352
828.994	22219
829.134	22158
829.273	22154
829.412	22093
829.551	22093
829.69	22234
829.829	22310
829.968	22173
830.107	22158
830.246	22169
830.385	22086
830.524	22090
830.663	21926
830.802	21876
830.941	21701
831.08	21736
831.219	21941
831.357	22017
831.496	21892
831.635	21724
831.774	21755
831.913	21690
832.051	21610
832.19	21739
832.329	21633
832.467	21496
832.606	21500
832.744	21496
832.883	21709
833.022	21736
833.16	21854
833.299	21998
833.437	22074
833.576	22276
833.714	22363
833.852	22504
833.991	22668
834.129	22858
834.267	22710
834.406	22607
834.544	22691
834.682	22645
834.821	22341
834.959	22386
835.097	22105
835.235	22147
835.373	21987
835.511	21911
835.65	21682
835.788	21572
835.926	21321
836.064	21351
836.202	21264
836.34	21287
836.478	21412
836.615	21291
836.753	21325
836.891	21359
837.029	21397
837.167	21291
837.305	21192
837.443	21020
837.58	21123
837.718	21119
837.856	21096
837.993	21081
838.131	21066
838.269	20952
838.406	20842
838.544	20921
838.681	20739
838.819	20727
838.956	20484
839.094	20503
839.231	20609
839.369	20659
839.506	20880
839.643	20769
839.781	20457
839.918	20480
840.055	20522
840.193	20514
840.33	20385
840.467	20465
840.604	20495
840.742	20769
840.879	20267
841.016	20446
841.153	20362
841.29	20602
841.427	20522
841.564	20484
841.701	20480
841.838	20385
841.975	20381
842.112	20370
842.249	20343
842.385	20252
842.522	20454
842.659	20423
842.796	20305
842.933	20355
843.069	20252
843.206	20488
843.343	20564
843.479	20396
843.616	20442
843.752	20172
843.889	20309
844.025	20530
844.162	20374
844.298	20594
844.435	20796
844.571	21013
844.708	21283
844.844	21572
844.98	22234
845.117	22706
845.253	23634
845.389	25620
845.525	29254
845.661	35570
845.798	42349
845.934	47638
846.07	49544
846.206	48018
846.342	43160
846.478	35980
846.614	30068
846.75	26290
846.886	23802
847.022	22550
847.158	21564
847.294	20967
847.429	20640
847.565	20358
847.701	20358
847.837	19845
847.972	19643
848.108	19727
848.244	19590
848.379	19487
848.515	19331
848.65	19316
848.786	19293
848.921	19232
849.057	19392
849.192	19266
849.328	19259
849.463	19282
849.598	19145
849.734	19015
849.869	19000
850.004	19103
850.14	18856
850.275	18981
850.41	18821
850.545	18913
850.68	18814
850.815	18882
850.95	18821
851.085	19088
851.22	19000
851.355	18924
851.49	18840
851.625	18825
851.76	18779
851.895	18817
852.03	18696
852.165	18966
852.299	18958
852.434	19122
852.569	18985
852.703	18932
852.838	19069
852.973	19141
853.107	19107
853.242	19061
853.376	18897
853.511	18848
853.645	18939
853.78	19289
853.914	19050
854.048	19038
854.183	19088
854.317	19206
854.451	19346
854.585	19095
854.72	19133
854.854	19168
854.988	19050
855.122	19000
855.256	18772
855.39	18844
855.524	18973
855.658	18882
855.792	18852
855.926	18802
856.06	18875
856.194	18913
856.327	18730
856.461	18563
856.595	18730
856.729	18635
856.862	18856
856.996	18726
857.13	18715
857.263	18802
857.397	18779
857.53	18700
857.664	18722
857.797	18593
857.931	18798
858.064	18738
858.197	18669
858.331	18661
858.464	18589
858.597	18437
858.731	18536
858.864	18544
858.997	18540
859.13	18669
859.263	18578
859.396	18688
859.529	18528
859.662	18490
859.795	18536
859.928	18547
860.061	18673
860.194	18719
860.327	18616
860.46	18437
860.592	18555
860.725	18612
860.858	18563
860.99	18528
861.123	18422
861.256	18407
861.388	18528
861.521	19137
861.653	18456
861.786	18330
861.918	18334
862.05	18509
862.183	18498
862.315	18445
862.447	18506
862.58	18532
862.712	18270
862.844	18194
862.976	18296
863.108	18224
863.24	18688
863.372	18106
863.504	18140
863.636	18235
863.768	18277
863.9	18270
864.032	18045
864.164	18144
864.296	18148
864.428	18209
864.559	18216
864.691	18114
864.823	18266
864.954	18159
865.086	18098
865.217	18148
865.349	18057
865.48	18159
865.612	18136
865.743	18277
865.875	18079
866.006	18098
866.137	18110
866.269	18125
866.4	18041
866.531	17969
866.662	17973
866.793	18068
866.924	18110
867.055	18072
867.186	17996
867.317	18083
867.448	18026
867.579	18083
867.71	17908
867.841	18003
867.972	17973
868.103	18007
868.233	18106
868.364	18148
868.495	18194
868.625	18281
868.756	18486
868.886	18190
869.017	18327
869.147	18418
869.278	18502
869.408	18372
869.539	18323
869.669	18410
869.799	18441
869.929	18369
870.06	18456
870.19	18703
870.32	18730
870.45	18551
870.58	18859
870.71	18882
870.84	18810
870.97	18783
871.1	18806
871.23	19004
871.36	18901
871.489	18890
871.619	18875
871.749	19088
871.879	19069
872.008	19080
872.138	19057
872.267	19137
872.397	18939
872.526	18943
872.656	18871
872.785	19000
872.915	19187
873.044	19240
873.173	19266
873.303	19225
873.432	19343
873.561	19369
873.69	19259
873.819	19339
873.948	19453
874.077	19373
874.206	19354
874.335	19445
874.464	19613
874.593	19712
874.722	19746
874.851	19799
874.979	19902
875.108	19928
875.237	19746
875.365	19894
875.494	19989
875.623	20180
875.751	20016
875.88	20233
876.008	20240
876.136	20339
876.265	20659
876.393	20823
876.521	20693
876.65	20849
876.778	20861
876.906	20872
877.034	20902
877.162	21081
877.29	21017
877.418	21230
877.546	21226
877.674	21363
877.802	21519
877.93	21572
878.058	21774
878.185	21994
878.313	22265
878.441	22656
878.568	22869
878.696	23608
878.824	24422
878.951	25411
879.079	27161
879.206	29216
879.333	31388
879.461	33100
879.588	34325
879.715	34268
879.842	33378
879.97	31403
880.097	29250
880.224	27519
880.351	26355
880.478	25346
880.605	24795
880.732	24525
880.859	24475
880.986	24041
881.112	23904
881.239	23771
881.366	23623
881.493	23531
881.619	23562
881.746	23524
881.872	23528
881.999	23387
882.125	23623
882.252	23657
882.378	23748
882.505	23771
882.631	23756
882.757	23543
882.883	23680
883.01	23573
883.136	23539
883.262	23471
883.388	23406
883.514	23531
883.64	23490
883.766	23376
883.892	23322
884.018	23296
884.143	23383
884.269	23501
884.395	23307
884.52	23140
884.646	23368
884.772	23258
884.897	23200
885.023	23227
885.148	23425
885.274	23246
885.399	23250
885.524	23006
885.65	22919
885.775	22805
885.9	22634
886.025	22489
886.15	22367
886.275	22120
886.4	21922
886.525	21846
886.65	21713
886.775	21557
886.9	21564
887.025	21686
887.149	21329
887.274	21100
887.399	21024
887.523	20864
887.648	20743
887.773	20640
887.897	20609
888.021	20602
888.146	20473
888.27	20541
888.395	20408
888.519	20438
888.643	20412
888.767	20362
888.891	20214
889.015	19890
889.139	19917
889.263	19986
889.387	19864
889.511	20164
889.635	19887
889.759	19780
889.883	19643
890.006	19666
890.13	19734
890.254	19495
890.377	19483
890.501	19358
890.624	19289
890.748	19282
890.871	19076
890.995	19148
891.118	19038
891.241	18985
891.364	18947
891.488	19099
891.611	18875
891.734	18954
891.857	18973
891.98	18817
892.103	18757
892.226	18833
892.349	18757
892.471	18601
892.594	18673
892.717	18673
892.839	18502
892.962	18547
893.085	18585
893.207	18528
893.33	18365
893.452	18441
893.575	18441
893.697	18376
893.819	18509
893.941	18525
894.064	18467
894.186	18319
894.308	18273
894.43	18292
894.552	18445
894.674	18258
894.796	18171
894.918	18228
895.04	18117
895.161	18174
895.283	18167
895.405	18022
895.526	18144
895.648	18155
895.769	18091
895.891	18163
896.012	18136
896.134	18205
896.255	18121
896.376	18011
896.498	18068
896.619	18060
896.74	17988
896.861	18079
896.982	18384
897.103	18452
897.224	18342
897.345	18277
897.466	18140
897.587	18285
897.708	18376
897.828	18281
897.949	18136
898.07	18182
898.19	18110
898.311	18194
898.431	18159
898.552	18190
898.672	18266
898.792	18205
898.913	18232
899.033	18095
899.153	18049
899.273	17805
899.393	18045
899.513	17999
899.633	18030
899.753	18057
899.873	17958
899.993	18026
900.113	17863
900.232	18022
900.352	17832
900.472	17878
900.591	17737
900.711	17870
900.83	17653
900.95	17931
901.069	17874
901.189	17680
901.308	17554
901.427	17383
901.546	17356
901.665	17376
901.784	17417
901.904	17181
902.023	17159
902.141	16961
902.26	16843
902.379	16957
902.498	16881
902.617	16736
902.735	16790
902.854	16839
902.973	16664
903.091	16451
903.21	16428
903.328	16504
903.446	16386
903.565	16204
903.683	16230
903.801	16139
903.919	16105
904.038	16135
904.156	15983
904.274	16090
904.392	16048
904.51	15953
904.627	15979
904.745	15838
904.863	16002
904.981	15751
905.098	15671
905.216	15648
905.334	15667
905.451	15656
905.569	15610
905.686	15553
905.803	15561
905.921	15412
906.038	15504
906.155	15405
906.272	15161
906.389	15424
906.506	15233
906.623	15066
906.74	15119
906.857	15100
906.974	14994
907.091	15195
907.208	15146
907.324	15028
907.441	14956
907.557	14864
907.674	14845
907.79	14792
907.907	14785
908.023	14746
908.139	14842
908.256	14773
908.372	14743
908.488	14743
908.604	14632
908.72	14469
908.836	14598
908.952	14549
909.068	14568
909.184	14613
909.3	14469
909.415	14575
909.531	14541
909.647	14282
909.762	14248
909.878	14206
909.993	14305
910.108	14263
910.224	14313
910.339	14298
910.454	14161
910.57	14126
910.685	14069
910.8	14343
910.915	14278
911.03	14119
911.145	13925
911.259	13868
911.374	13864
911.489	13860
911.604	13772
911.718	13609
911.833	13704
911.947	13521
912.062	13556
912.176	13689
912.291	13605
912.405	13734
912.519	13837
912.633	13986
912.748	13807
912.862	13719
912.976	13476
913.09	13331
913.204	13563
913.318	13548
913.431	13563
913.545	13647
913.659	13605
913.772	13502
913.886	13331
914	13316
914.113	13476
914.226	13460
914.34	13407
914.453	13297
914.566	13373
914.68	13228
914.793	13285
914.906	13027
915.019	13160
915.132	13015
915.245	12985
915.358	13149
915.47	13099
915.583	13141
915.696	13236
915.809	13289
915.921	13289
916.034	13038
916.146	12981
916.259	13031
916.371	13046
916.483	13084
916.595	12882
916.708	12993
916.82	12916
916.932	12962
917.044	12939
917.156	12913
917.268	12848
917.38	12909
917.491	12776
917.603	12833
917.715	12924
917.826	12958
917.938	12753
918.049	12646
918.161	12722
918.272	12882
918.384	12920
918.495	12715
918.606	12620
918.717	12467
918.828	12555
918.939	12540
919.05	12528
919.161	12563
919.272	12224
919.383	12418
919.494	12601
919.604	12787
919.715	12574
919.826	12452
919.936	12502
920.047	12627
920.157	12517
920.267	12722
920.378	12525
920.488	12414
920.598	12669
920.708	12867
920.818	12692
920.928	12688
921.038	12806
921.148	12745
921.258	12437
921.368	12384
921.477	12308
921.587	12273
921.697	12129
921.806	12281
921.916	12167
922.025	11992
922.134	11984
922.244	11950
922.353	11973
922.462	11855
922.571	11710
922.68	11684
922.789	11672
922.898	11573
923.007	11547
923.116	11615
923.224	11592
923.333	11535
923.442	11524
923.55	11414
923.659	11486
923.767	11551
923.876	11334
923.984	11581
924.092	11353
924.201	11402
924.309	11444
924.417	11478
924.525	11368
924.633	11299
924.741	12228
924.849	11124
924.956	11311
925.064	11220
925.172	11060
925.279	11189
925.387	11181
925.494	11174
925.602	11296
925.709	11170
925.816	11113
925.924	11128
926.031	11254
926.138	11143
926.245	11178
926.352	11056
926.459	11121
926.566	11246
926.673	11003
926.779	10942
926.886	10923
926.993	10828
927.099	10759
927.206	10714
927.312	10812
927.419	10908
927.525	10767
927.631	10831
927.737	10596
927.843	10584
927.95	10554
928.056	10592
928.162	10656
928.267	10725
928.373	11204
928.479	10706
928.585	10531
928.69	10596
928.796	10645
928.901	10409
929.007	10436
929.112	10478
929.218	10550
929.323	10421
929.428	10474
929.533	10561
929.638	10409
929.743	10261
929.848	10405
929.953	10421
930.058	10242
930.163	10131
930.267	10143
930.372	10284
930.477	10135
930.581	10352
930.685	10253
930.79	10063
930.894	10059
930.998	10044
931.103	10150
931.207	9903
931.311	9720
931.415	9686
931.519	9469
931.623	9454
