Data from test_V78500241_2880.txt Node
Date: Fri Mar 25 14:53:46 CST 2022
User: usil
Spectrometer: V785-0024
Trigger mode: 0
Integration Time (sec): 4.000000E-1
Scans to average: 1
Nonlinearity correction enabled: false
Boxcar width: 0
Storing dark spectrum: false
XAxis mode: Wavelengths
Number of Pixels in Spectrum: 1024
>>>>>Begin Spectral Data<<<<<
801.071	22158
801.214	21930
801.356	21656
801.499	21701
801.641	21428
801.783	21443
801.926	21462
802.068	21454
802.211	21348
802.353	21199
802.496	21043
802.638	20921
802.78	21005
802.923	20769
803.065	20724
803.208	20636
803.35	20838
803.492	20902
803.635	20937
803.777	20720
803.919	20842
804.061	21180
804.204	20906
804.346	20735
804.488	20636
804.63	20689
804.773	20590
804.915	20636
805.057	20876
805.199	20667
805.341	20598
805.483	20788
805.626	20724
805.768	20632
805.91	20667
806.052	20659
806.194	20606
806.336	20765
806.478	20686
806.62	20617
806.762	20750
806.904	20830
807.046	21142
807.188	20990
807.33	21055
807.472	21051
807.614	20960
807.756	20910
807.898	20735
808.04	20594
808.182	20678
808.324	20670
808.465	20914
808.607	21036
808.749	20975
808.891	21203
809.033	21317
809.174	21074
809.316	21005
809.458	21024
809.6	21017
809.741	21169
809.883	21176
810.025	21180
810.166	21195
810.308	21169
810.45	21161
810.591	21055
810.733	20925
810.875	20823
811.016	20777
811.158	20625
811.299	20880
811.441	20857
811.582	20895
811.724	20788
811.865	20838
812.007	20788
812.148	20712
812.29	20872
812.431	20971
812.573	21089
812.714	21226
812.855	21374
812.997	21370
813.138	21405
813.279	21447
813.421	21317
813.562	21272
813.703	21001
813.845	20990
813.986	20629
814.127	20511
814.268	20446
814.41	20362
814.551	20328
814.692	20526
814.833	20286
814.974	20404
815.115	20427
815.256	20240
815.397	20161
815.539	20233
815.68	20069
815.821	20119
815.962	20134
816.103	20077
816.244	19868
816.385	19875
816.526	19704
816.666	19639
816.807	19506
816.948	19594
817.089	19590
817.23	19643
817.371	19468
817.512	19521
817.653	19483
817.793	19487
817.934	19438
818.075	19491
818.216	19430
818.356	19460
818.497	19403
818.638	19091
818.778	19343
818.919	19228
819.06	19206
819.2	19247
819.341	19331
819.481	19331
819.622	19449
819.762	19689
819.903	19624
820.043	19518
820.184	19506
820.324	19460
820.465	19540
820.605	19312
820.746	19434
820.886	19240
821.026	19358
821.167	19457
821.307	19438
821.447	19209
821.588	19274
821.728	19209
821.868	18901
822.008	18970
822.149	18768
822.289	18924
822.429	18673
822.569	18608
822.709	18639
822.849	18369
822.99	18376
823.13	18338
823.27	18346
823.41	18178
823.55	18083
823.69	18072
823.83	18216
823.97	18068
824.11	17931
824.25	17882
824.389	18045
824.529	17946
824.669	17912
824.809	18026
824.949	17958
825.089	18057
825.228	17866
825.368	17775
825.508	17767
825.648	17672
825.787	17779
825.927	17809
826.067	17767
826.206	17680
826.346	17813
826.485	17714
826.625	17714
826.765	17813
826.904	17775
827.044	17497
827.183	17444
827.323	17410
827.462	17452
827.601	17463
827.741	17315
827.88	17414
828.02	17235
828.159	17330
828.298	17398
828.437	17474
828.577	17261
828.716	17455
828.855	17364
828.994	17109
829.134	17227
829.273	17178
829.412	17102
829.551	17079
829.69	17018
829.829	17128
829.968	17223
830.107	17155
830.246	17151
830.385	17006
830.524	17014
830.663	17014
830.802	16805
830.941	16759
831.08	16771
831.219	16934
831.357	16812
831.496	16915
831.635	16801
831.774	16752
831.913	16660
832.051	16580
832.19	16577
832.329	16698
832.467	16470
832.606	16363
832.744	16481
832.883	16344
833.022	16489
833.16	16375
833.299	16565
833.437	16466
833.576	16508
833.714	16550
833.852	16478
833.991	16538
834.129	16580
834.267	16592
834.406	16459
834.544	16455
834.682	16542
834.821	16421
834.959	16596
835.097	16424
835.235	16634
835.373	16550
835.511	16356
835.65	16375
835.788	16432
835.926	16253
836.064	16253
836.202	16261
836.34	16474
836.478	16481
836.615	16428
836.753	16352
836.891	16485
837.029	16455
837.167	16409
837.305	16299
837.443	16318
837.58	16318
837.718	16242
837.856	16177
837.993	16219
838.131	16325
838.269	16200
838.406	16379
838.544	16162
838.681	15991
838.819	15918
838.956	15842
839.094	15785
839.231	15865
839.369	15994
839.506	16211
839.643	16097
839.781	15854
839.918	15869
840.055	15804
840.193	15789
840.33	15823
840.467	15808
840.604	15838
840.742	16128
840.879	15694
841.016	15747
841.153	15732
841.29	15949
841.427	15838
841.564	15781
841.701	15873
841.838	15797
841.975	15686
842.112	15701
842.249	15618
842.385	15587
842.522	15766
842.659	15701
842.796	15542
842.933	15587
843.069	15667
843.206	15466
843.343	15701
843.479	15584
843.616	15625
843.752	15389
843.889	15351
844.025	15485
844.162	15405
844.298	15485
844.435	15291
844.571	15283
844.708	15378
844.844	15485
844.98	15580
845.117	15485
845.253	15256
845.389	15283
845.525	15401
845.661	15367
845.798	15157
845.934	15306
846.07	15089
846.206	15222
846.342	15283
846.478	15169
846.614	14998
846.75	14925
846.886	14967
847.022	14925
847.158	14975
847.294	14994
847.429	14921
847.565	14910
847.701	15214
847.837	14746
847.972	14655
848.108	14731
848.244	14708
848.379	14537
848.515	14648
848.65	14533
848.786	14545
848.921	14556
849.057	14648
849.192	14659
849.328	14610
849.463	14537
849.598	14484
849.734	14457
849.869	14381
850.004	14389
850.14	14385
850.275	14278
850.41	14248
850.545	14221
850.68	14199
850.815	14366
850.95	14332
851.085	14579
851.22	14438
851.355	14271
851.49	14339
851.625	14351
851.76	14256
851.895	14187
852.03	14168
852.165	14320
852.299	14313
852.434	14393
852.569	14332
852.703	14324
852.838	14454
852.973	14461
853.107	14423
853.242	14244
853.376	14161
853.511	14119
853.645	14126
853.78	14408
853.914	14225
854.048	14176
854.183	14180
854.317	14157
854.451	14347
854.585	14138
854.72	14062
854.854	14248
854.988	14100
855.122	14172
855.256	14088
855.39	14161
855.524	14309
855.658	14221
855.792	14263
855.926	14221
856.06	14195
856.194	14320
856.327	14214
856.461	14123
856.595	14199
856.729	14218
856.862	14275
856.996	14298
857.13	14339
857.263	14294
857.397	14317
857.53	14237
857.664	14317
857.797	14252
857.931	14355
858.064	14275
858.197	14282
858.331	14248
858.464	14191
858.597	14092
858.731	14328
858.864	14199
858.997	14142
859.13	14183
859.263	14256
859.396	14278
859.529	14240
859.662	14096
859.795	14096
859.928	14180
860.061	14370
860.194	14465
860.327	14294
860.46	14278
860.592	14282
860.725	14309
860.858	14286
860.99	14229
861.123	14084
861.256	14183
861.388	14240
861.521	14815
861.653	14092
861.786	14035
861.918	14008
862.05	14191
862.183	14145
862.315	14282
862.447	14301
862.58	14240
862.712	13955
862.844	13917
862.976	14088
863.108	14058
863.24	14518
863.372	13951
863.504	14077
863.636	14008
863.768	14008
863.9	14054
864.032	13982
864.164	13986
864.296	14046
864.428	14100
864.559	14157
864.691	14039
864.823	14138
864.954	14092
865.086	13963
865.217	14008
865.349	13993
865.48	14001
865.612	13947
865.743	14130
865.875	14016
866.006	13909
866.137	13986
866.269	13947
866.4	13986
866.531	14005
866.662	13909
866.793	13944
866.924	13959
867.055	13993
867.186	13982
867.317	13959
867.448	13868
867.579	13963
867.71	13871
867.841	13932
867.972	13909
868.103	14035
868.233	13970
868.364	14027
868.495	14031
868.625	14195
868.756	14286
868.886	14256
869.017	14176
869.147	14320
869.278	14370
869.408	14301
869.539	14240
869.669	14248
869.799	14290
869.929	14355
870.06	14294
870.19	14530
870.32	14442
870.45	14526
870.58	14621
870.71	14720
870.84	14750
870.97	14644
871.1	14651
871.23	14800
871.36	14815
871.489	14807
871.619	14823
871.749	14853
871.879	14910
872.008	14971
872.138	14868
872.267	14891
872.397	14693
872.526	14640
872.656	14708
872.785	14659
872.915	14830
873.044	14952
873.173	14918
873.303	14906
873.432	14872
873.561	15017
873.69	14956
873.819	14842
873.948	14902
874.077	14891
874.206	14834
874.335	14861
874.464	14979
874.593	15138
874.722	15150
874.851	15169
874.979	15226
875.108	15283
875.237	15165
875.365	15104
875.494	15176
875.623	15237
875.751	15237
875.88	15214
876.008	15393
876.136	15488
876.265	15534
876.393	15728
876.521	15690
876.65	15705
876.778	15656
876.906	15500
877.034	15488
877.162	15576
877.29	15580
877.418	15652
877.546	15663
877.674	15603
877.802	15587
877.93	15557
878.058	15507
878.185	15431
878.313	15580
878.441	15564
878.568	15408
878.696	15580
878.824	15629
878.951	15724
879.079	15793
879.206	15873
879.333	15671
879.461	15728
879.588	15766
879.715	15835
879.842	15949
879.97	15622
880.097	15485
880.224	15443
880.351	15435
880.478	15542
880.605	15523
880.732	15378
880.859	15698
880.986	15530
881.112	15496
881.239	15351
881.366	15298
881.493	15062
881.619	15081
881.746	15116
881.872	15100
881.999	15093
882.125	15097
882.252	15055
882.378	15116
882.505	15321
882.631	15047
882.757	14921
882.883	15104
883.01	15024
883.136	14918
883.262	14826
883.388	14868
883.514	14956
883.64	14956
883.766	14975
883.892	14807
884.018	14864
884.143	14883
884.269	15039
884.395	14773
884.52	14602
884.646	14583
884.772	14629
884.897	14480
885.023	14663
885.148	14804
885.274	14796
885.399	14785
885.524	14678
885.65	14617
885.775	14735
885.9	14678
886.025	14773
886.15	14701
886.275	14598
886.4	14488
886.525	14648
886.65	14602
886.775	14655
886.9	14750
887.025	14876
887.149	14663
887.274	14492
887.399	14522
887.523	14415
887.648	14343
887.773	14366
887.897	14579
888.021	14533
888.146	14537
888.27	14663
888.395	14552
888.519	14621
888.643	14431
888.767	14522
888.891	14427
889.015	14366
889.139	14286
889.263	14393
889.387	14514
889.511	14659
889.635	14419
889.759	14366
889.883	14278
890.006	14377
890.13	14537
890.254	14252
890.377	14263
890.501	14164
890.624	14123
890.748	14263
890.871	14134
890.995	14005
891.118	13997
891.241	14092
891.364	14039
891.488	14081
891.611	14081
891.734	14005
891.857	14157
891.98	14065
892.103	14130
892.226	14027
892.349	14016
892.471	13963
892.594	14005
892.717	14073
892.839	13951
892.962	13978
893.085	14187
893.207	14046
893.33	13883
893.452	13978
893.575	14050
893.697	14039
893.819	14145
893.941	14275
894.064	14206
894.186	13989
894.308	14012
894.43	14229
894.552	14225
894.674	14210
894.796	14054
894.918	14005
895.04	14187
895.161	14103
895.283	14126
895.405	14153
895.526	14164
895.648	14115
895.769	14119
895.891	14248
896.012	14221
896.134	14214
896.255	14225
896.376	14103
896.498	14149
896.619	14389
896.74	14286
896.861	14214
896.982	14511
897.103	14712
897.224	14579
897.345	14431
897.466	14480
897.587	14514
897.708	14590
897.828	14579
897.949	14492
898.07	14370
898.19	14530
898.311	14636
898.431	14404
898.552	14530
898.672	14629
898.792	14697
898.913	14571
899.033	14564
899.153	14393
899.273	14351
899.393	14495
899.513	14511
899.633	14358
899.753	14476
899.873	14408
899.993	14575
900.113	14396
900.232	14469
900.352	14301
900.472	14362
900.591	14389
900.711	14355
900.83	14252
900.95	14294
901.069	14400
901.189	14240
901.308	13986
901.427	13970
901.546	13913
901.665	14039
901.784	14046
901.904	13826
902.023	13795
902.141	13613
902.26	13605
902.379	13624
902.498	13518
902.617	13491
902.735	13540
902.854	13674
902.973	13495
903.091	13301
903.21	13255
903.328	13285
903.446	13194
903.565	13183
903.683	13137
903.801	13057
903.919	13126
904.038	13019
904.156	12951
904.274	13061
904.392	12924
904.51	12856
904.627	12943
904.745	13069
904.863	13027
904.981	12768
905.098	12654
905.216	12639
905.334	12627
905.451	12547
905.569	12525
905.686	12711
905.803	12616
905.921	12338
906.038	12551
906.155	12384
906.272	12300
906.389	12330
906.506	12194
906.623	12186
906.74	12201
906.857	12034
906.974	12110
907.091	12220
907.208	12346
907.324	12289
907.441	12243
907.557	12022
907.674	11901
907.79	11874
907.907	11927
908.023	11901
908.139	11973
908.256	11908
908.372	11859
908.488	11809
908.604	11733
908.72	11665
908.836	11745
908.952	11748
909.068	11733
909.184	11794
909.3	11733
909.415	11729
909.531	11767
909.647	11520
909.762	11532
909.878	11478
909.993	11421
910.108	11414
910.224	11436
910.339	11490
910.454	11360
910.57	11337
910.685	11239
910.8	11543
910.915	11372
911.03	11265
911.145	11220
911.259	11235
911.374	11136
911.489	11151
911.604	11079
911.718	10942
911.833	10923
911.947	10889
912.062	10771
912.176	10923
912.291	10965
912.405	10934
912.519	11109
912.633	11140
912.748	11067
912.862	10949
912.976	10839
913.09	10691
913.204	10809
913.318	10820
913.431	10972
913.545	10946
913.659	10995
913.772	10805
913.886	10717
914	10698
914.113	10790
914.226	10854
914.34	10820
914.453	10626
914.566	10752
914.68	10653
914.793	10611
914.906	10519
915.019	10421
915.132	10356
915.245	10432
915.358	10481
915.47	10512
915.583	10421
915.696	10485
915.809	10611
915.921	10550
916.034	10436
916.146	10325
916.259	10386
916.371	10466
916.483	10474
916.595	10265
916.708	10382
916.82	10462
916.932	10443
917.044	10390
917.156	10360
917.268	10242
917.38	10325
917.491	10227
917.603	10261
917.715	10348
917.826	10417
917.938	10337
918.049	10200
918.161	10318
918.272	10417
918.384	10470
918.495	10268
918.606	10158
918.717	10074
918.828	10109
918.939	10181
919.05	10116
919.161	10101
919.272	9930
919.383	10086
919.494	10223
919.604	10291
919.715	10150
919.826	10109
919.936	10116
920.047	10257
920.157	10105
920.267	10367
920.378	10337
920.488	10211
920.598	10409
920.708	10497
920.818	10443
920.928	10284
921.038	10626
921.148	10481
921.258	10276
921.368	10128
921.477	10086
921.587	9960
921.697	9922
921.806	10044
921.916	10032
922.025	9823
922.134	9747
922.244	9686
922.353	9785
922.462	9633
922.571	9545
922.68	9462
922.789	9564
922.898	9397
923.007	9431
923.116	9523
923.224	9412
923.333	9389
923.442	9351
923.55	9272
923.659	9233
923.767	9447
923.876	9283
923.984	9378
924.092	9207
924.201	9344
924.309	9313
924.417	9370
924.525	9214
924.633	9283
924.741	10154
924.849	9123
924.956	9241
925.064	9085
925.172	9085
925.279	9017
925.387	9127
925.494	9081
925.602	9230
925.709	9119
925.816	9077
925.924	9085
926.031	9199
926.138	9093
926.245	9154
926.352	8998
926.459	9138
926.566	9260
926.673	9043
926.779	8956
926.886	9013
926.993	8872
927.099	8902
927.206	8838
927.312	8792
927.419	8982
927.525	8899
927.631	8902
927.737	8708
927.843	8686
927.95	8606
928.056	8701
928.162	8766
928.267	8712
928.373	9439
928.479	8830
928.585	8640
928.69	8735
928.796	8743
928.901	8579
929.007	8446
929.112	8636
929.218	8651
929.323	8556
929.428	8541
929.533	8689
929.638	8518
929.743	8545
929.848	8636
929.953	8545
930.058	8503
930.163	8336
930.267	8374
930.372	8446
930.477	8324
930.581	8469
930.685	8400
930.79	8240
930.894	8275
930.998	8187
931.103	8393
931.207	8130
931.311	7986
931.415	8001
931.519	7795
931.623	7772
