Data from test_V78500241_2869.txt Node
Date: Fri Mar 25 14:53:41 CST 2022
User: usil
Spectrometer: V785-0024
Trigger mode: 0
Integration Time (sec): 4.000000E-1
Scans to average: 1
Nonlinearity correction enabled: false
Boxcar width: 0
Storing dark spectrum: false
XAxis mode: Wavelengths
Number of Pixels in Spectrum: 1024
>>>>>Begin Spectral Data<<<<<
801.071	22082
801.214	21915
801.356	21762
801.499	21652
801.641	21637
801.783	21401
801.926	21572
802.068	21454
802.211	21355
802.353	21222
802.496	21058
802.638	20868
802.78	20910
802.923	20883
803.065	20762
803.208	20785
803.35	20804
803.492	20857
803.635	20941
803.777	20914
803.919	20845
804.061	21127
804.204	20781
804.346	20689
804.488	20777
804.63	20842
804.773	20594
804.915	20705
805.057	20731
805.199	20598
805.341	20651
805.483	20845
805.626	20606
805.768	20613
805.91	20655
806.052	20712
806.194	20537
806.336	20655
806.478	20697
806.62	20629
806.762	20727
806.904	20792
807.046	21146
807.188	21020
807.33	21123
807.472	21062
807.614	20906
807.756	20906
807.898	20845
808.04	20815
808.182	20689
808.324	20937
808.465	20838
808.607	20933
808.749	21062
808.891	21096
809.033	21325
809.174	21165
809.316	20982
809.458	21131
809.6	21032
809.741	21089
809.883	21131
810.025	21249
810.166	21199
810.308	21230
810.45	21055
810.591	21146
810.733	21017
810.875	20937
811.016	20678
811.158	20712
811.299	20937
811.441	20956
811.582	20975
811.724	20861
811.865	20750
812.007	20754
812.148	20872
812.29	20857
812.431	20948
812.573	21085
812.714	21241
812.855	21321
812.997	21515
813.138	21538
813.279	21298
813.421	21355
813.562	21329
813.703	21074
813.845	20990
813.986	20667
814.127	20552
814.268	20450
814.41	20503
814.551	20355
814.692	20419
814.833	20309
814.974	20370
815.115	20469
815.256	20202
815.397	20202
815.539	20233
815.68	20126
815.821	20005
815.962	20134
816.103	20119
816.244	19902
816.385	19845
816.526	19868
816.666	19677
816.807	19476
816.948	19620
817.089	19601
817.23	19533
817.371	19502
817.512	19537
817.653	19594
817.793	19369
817.934	19396
818.075	19582
818.216	19582
818.356	19350
818.497	19327
818.638	19308
818.778	19175
818.919	19209
819.06	19244
819.2	19316
819.341	19308
819.481	19381
819.622	19502
819.762	19715
819.903	19601
820.043	19620
820.184	19575
820.324	19457
820.465	19559
820.605	19419
820.746	19460
820.886	19285
821.026	19499
821.167	19346
821.307	19480
821.447	19339
821.588	19266
821.728	19244
821.868	19137
822.008	18905
822.149	18856
822.289	18837
822.429	18597
822.569	18521
822.709	18532
822.849	18361
822.99	18327
823.13	18395
823.27	18311
823.41	18235
823.55	18053
823.69	18167
823.83	18209
823.97	18064
824.11	17942
824.25	17904
824.389	17931
824.529	17965
824.669	18041
824.809	18064
824.949	18060
825.089	17958
825.228	17942
825.368	17748
825.508	17714
825.648	17760
825.787	17771
825.927	17790
826.067	17687
826.206	17745
826.346	17737
826.485	17756
826.625	17752
826.765	17836
826.904	17726
827.044	17539
827.183	17486
827.323	17455
827.462	17493
827.601	17467
827.741	17356
827.88	17474
828.02	17239
828.159	17406
828.298	17417
828.437	17501
828.577	17360
828.716	17444
828.855	17341
828.994	17170
829.134	17174
829.273	17181
829.412	17235
829.551	17071
829.69	17018
829.829	17075
829.968	17349
830.107	17239
830.246	17117
830.385	17071
830.524	17121
830.663	17014
830.802	16809
830.941	16744
831.08	16748
831.219	16824
831.357	16843
831.496	17025
831.635	16809
831.774	16786
831.913	16637
832.051	16455
832.19	16626
832.329	16603
832.467	16542
832.606	16466
832.744	16447
832.883	16356
833.022	16546
833.16	16417
833.299	16478
833.437	16584
833.576	16489
833.714	16371
833.852	16550
833.991	16542
834.129	16573
834.267	16588
834.406	16531
834.544	16588
834.682	16451
834.821	16474
834.959	16698
835.097	16493
835.235	16641
835.373	16599
835.511	16691
835.65	16512
835.788	16386
835.926	16280
836.064	16265
836.202	16158
836.34	16504
836.478	16580
836.615	16382
836.753	16474
836.891	16436
837.029	16424
837.167	16440
837.305	16318
837.443	16341
837.58	16261
837.718	16363
837.856	16322
837.993	16272
838.131	16291
838.269	16192
838.406	16287
838.544	16192
838.681	16101
838.819	15937
838.956	15857
839.094	15869
839.231	15774
839.369	16002
839.506	16226
839.643	16078
839.781	15884
839.918	15800
840.055	15892
840.193	15797
840.33	15842
840.467	15842
840.604	15911
840.742	16143
840.879	15679
841.016	15808
841.153	15694
841.29	15964
841.427	15888
841.564	15846
841.701	15823
841.838	15827
841.975	15819
842.112	15823
842.249	15633
842.385	15519
842.522	15804
842.659	15713
842.796	15603
842.933	15690
843.069	15553
843.206	15591
843.343	15652
843.479	15599
843.616	15663
843.752	15526
843.889	15393
844.025	15610
844.162	15405
844.298	15488
844.435	15332
844.571	15351
844.708	15526
844.844	15500
844.98	15519
845.117	15450
845.253	15348
845.389	15222
845.525	15329
845.661	15275
845.798	15252
845.934	15230
846.07	15119
846.206	15180
846.342	15393
846.478	15218
846.614	15058
846.75	15047
846.886	14899
847.022	15074
847.158	14986
847.294	14982
847.429	15085
847.565	14941
847.701	15260
847.837	14644
847.972	14663
848.108	14785
848.244	14765
848.379	14602
848.515	14575
848.65	14533
848.786	14552
848.921	14568
849.057	14648
849.192	14705
849.328	14594
849.463	14667
849.598	14674
849.734	14552
849.869	14450
850.004	14351
850.14	14393
850.275	14267
850.41	14252
850.545	14221
850.68	14275
850.815	14389
850.95	14301
851.085	14465
851.22	14374
851.355	14385
851.49	14275
851.625	14320
851.76	14438
851.895	14164
852.03	14195
852.165	14237
852.299	14358
852.434	14484
852.569	14362
852.703	14294
852.838	14381
852.973	14476
853.107	14454
853.242	14263
853.376	14191
853.511	14111
853.645	14221
853.78	14286
853.914	14233
854.048	14183
854.183	14252
854.317	14214
854.451	14408
854.585	14218
854.72	14237
854.854	14229
854.988	14157
855.122	14225
855.256	14103
855.39	14233
855.524	14313
855.658	14313
855.792	14130
855.926	14229
856.06	14256
856.194	14332
856.327	14206
856.461	14119
856.595	14142
856.729	14145
856.862	14286
856.996	14229
857.13	14218
857.263	14358
857.397	14389
857.53	14347
857.664	14294
857.797	14309
857.931	14320
858.064	14172
858.197	14298
858.331	14263
858.464	14130
858.597	14062
858.731	14195
858.864	14195
858.997	14221
859.13	14206
859.263	14180
859.396	14309
859.529	14214
859.662	14183
859.795	14210
859.928	14202
860.061	14396
860.194	14332
860.327	14252
860.46	14263
860.592	14370
860.725	14324
860.858	14362
860.99	14149
861.123	14164
861.256	14138
861.388	14214
861.521	14762
861.653	14073
861.786	14035
861.918	14214
862.05	14046
862.183	14149
862.315	14172
862.447	14229
862.58	14126
862.712	13936
862.844	14008
862.976	14126
863.108	14039
863.24	14537
863.372	13947
863.504	14024
863.636	13917
863.768	14031
863.9	13944
864.032	13890
864.164	14020
864.296	14050
864.428	14069
864.559	14031
864.691	14142
864.823	14012
864.954	13967
865.086	14039
865.217	13913
865.349	13913
865.48	13879
865.612	14016
865.743	14092
865.875	14005
866.006	13955
866.137	14012
866.269	13963
866.4	13989
866.531	13925
866.662	13932
866.793	13913
866.924	13879
867.055	13963
867.186	13868
867.317	13887
867.448	13879
867.579	13917
867.71	13906
867.841	13887
867.972	13940
868.103	13932
868.233	13974
868.364	14039
868.495	14062
868.625	14168
868.756	14271
868.886	14149
869.017	14134
869.147	14328
869.278	14358
869.408	14180
869.539	14180
869.669	14298
869.799	14301
869.929	14366
870.06	14256
870.19	14473
870.32	14522
870.45	14610
870.58	14655
870.71	14735
870.84	14758
870.97	14571
871.1	14705
871.23	14792
871.36	14777
871.489	14667
871.619	14765
871.749	14834
871.879	14880
872.008	14956
872.138	14887
872.267	14819
872.397	14556
872.526	14708
872.656	14590
872.785	14746
872.915	14838
873.044	14971
873.173	14781
873.303	14849
873.432	14982
873.561	14880
873.69	14963
873.819	14849
873.948	14952
874.077	14864
874.206	14960
874.335	14838
874.464	14990
874.593	15230
874.722	15066
874.851	15245
874.979	15173
875.108	15249
875.237	15138
875.365	15097
875.494	15218
875.623	15268
875.751	15108
875.88	15207
876.008	15386
876.136	15374
876.265	15622
876.393	15781
876.521	15675
876.65	15660
876.778	15606
876.906	15542
877.034	15530
877.162	15690
877.29	15496
877.418	15561
877.546	15542
877.674	15618
877.802	15599
877.93	15549
878.058	15625
878.185	15443
878.313	15572
878.441	15591
878.568	15431
878.696	15504
878.824	15618
878.951	15755
879.079	15633
879.206	15842
879.333	15713
879.461	15625
879.588	15644
879.715	15861
879.842	15873
879.97	15538
880.097	15408
880.224	15424
880.351	15466
880.478	15447
880.605	15420
880.732	15454
880.859	15663
880.986	15450
881.112	15500
881.239	15310
881.366	15184
881.493	15123
881.619	15100
881.746	15066
881.872	15005
881.999	14994
882.125	15089
882.252	15180
882.378	15116
882.505	15188
882.631	15013
882.757	15017
882.883	15005
883.01	15005
883.136	14849
883.262	14792
883.388	14773
883.514	14906
883.64	15074
883.766	14929
883.892	14632
884.018	14788
884.143	14918
884.269	14933
884.395	14678
884.52	14613
884.646	14625
884.772	14571
884.897	14587
885.023	14644
885.148	14689
885.274	14842
885.399	14735
885.524	14644
885.65	14651
885.775	14663
885.9	14606
886.025	14731
886.15	14625
886.275	14564
886.4	14503
886.525	14541
886.65	14617
886.775	14518
886.9	14765
887.025	14883
887.149	14655
887.274	14423
887.399	14419
887.523	14419
887.648	14431
887.773	14324
887.897	14473
888.021	14522
888.146	14381
888.27	14537
888.395	14689
888.519	14423
888.643	14560
888.767	14545
888.891	14400
889.015	14267
889.139	14282
889.263	14237
889.387	14480
889.511	14457
889.635	14431
889.759	14320
889.883	14336
890.006	14370
890.13	14427
890.254	14218
890.377	14275
890.501	14168
890.624	14031
890.748	14142
890.871	14005
890.995	13944
891.118	13986
891.241	14046
891.364	14005
891.488	14183
891.611	14024
891.734	14088
891.857	14054
891.98	14035
892.103	14077
892.226	14107
892.349	13978
892.471	13818
892.594	14039
892.717	14035
892.839	13967
892.962	14054
893.085	14107
893.207	14005
893.33	13936
893.452	14020
893.575	14092
893.697	14035
893.819	14176
893.941	14218
894.064	14149
894.186	13967
894.308	13982
894.43	14187
894.552	14233
894.674	14103
894.796	14012
894.918	14058
895.04	14111
895.161	14214
895.283	14020
895.405	14115
895.526	14126
895.648	14134
895.769	14191
895.891	14107
896.012	14248
896.134	14161
896.255	14244
896.376	14153
896.498	14225
896.619	14214
896.74	14199
896.861	14229
896.982	14632
897.103	14697
897.224	14564
897.345	14415
897.466	14480
897.587	14503
897.708	14518
897.828	14473
897.949	14427
898.07	14309
898.19	14404
898.311	14758
898.431	14465
898.552	14564
898.672	14560
898.792	14617
898.913	14693
899.033	14427
899.153	14446
899.273	14324
899.393	14404
899.513	14560
899.633	14370
899.753	14446
899.873	14434
899.993	14480
900.113	14355
900.232	14358
900.352	14415
900.472	14370
900.591	14256
900.711	14336
900.83	14298
900.95	14465
901.069	14355
901.189	14176
901.308	13986
901.427	13868
901.546	14001
901.665	13944
901.784	14027
901.904	13849
902.023	13818
902.141	13696
902.26	13540
902.379	13552
902.498	13483
902.617	13472
902.735	13556
902.854	13445
902.973	13491
903.091	13297
903.21	13213
903.328	13118
903.446	13213
903.565	13072
903.683	13228
903.801	12993
903.919	13027
904.038	13194
904.156	12863
904.274	12962
904.392	12882
904.51	13012
904.627	12795
904.745	12913
904.863	12951
904.981	12677
905.098	12635
905.216	12604
905.334	12585
905.451	12631
905.569	12582
905.686	12642
905.803	12631
905.921	12445
906.038	12513
906.155	12399
906.272	12361
906.389	12330
906.506	12258
906.623	12270
906.74	12232
906.857	12030
906.974	12117
907.091	12266
907.208	12327
907.324	12315
907.441	12106
907.557	11973
907.674	11912
907.79	11901
907.907	11931
908.023	11927
908.139	12038
908.256	11897
908.372	11878
908.488	11874
908.604	11771
908.72	11703
908.836	11691
908.952	11707
909.068	11672
909.184	11805
909.3	11771
909.415	11729
909.531	11676
909.647	11520
909.762	11505
909.878	11379
909.993	11528
910.108	11391
910.224	11505
910.339	11539
910.454	11349
910.57	11353
910.685	11288
910.8	11528
910.915	11421
911.03	11330
911.145	11250
911.259	11174
911.374	11140
911.489	11071
911.604	10984
911.718	10885
911.833	10984
911.947	10889
912.062	10744
912.176	10896
912.291	10976
912.405	10980
912.519	11132
912.633	11155
912.748	11064
912.862	10942
912.976	10733
913.09	10729
913.204	10744
913.318	10873
913.431	10930
913.545	10869
913.659	10873
913.772	10866
913.886	10679
914	10672
914.113	10759
914.226	10930
914.34	10809
914.453	10626
914.566	10854
914.68	10656
914.793	10630
914.906	10531
915.019	10379
915.132	10367
915.245	10375
915.358	10413
915.47	10451
915.583	10493
915.696	10474
915.809	10626
915.921	10588
916.034	10538
916.146	10390
916.259	10337
916.371	10500
916.483	10474
916.595	10352
916.708	10363
916.82	10402
916.932	10417
917.044	10344
917.156	10344
917.268	10219
917.38	10249
917.491	10268
917.603	10322
917.715	10322
917.826	10436
917.938	10227
918.049	10200
918.161	10230
918.272	10371
918.384	10424
918.495	10253
918.606	10204
918.717	10017
918.828	10169
918.939	10200
919.05	10067
919.161	10162
919.272	10063
919.383	10067
919.494	10192
919.604	10363
919.715	10143
919.826	10116
919.936	10128
920.047	10246
920.157	10215
920.267	10371
920.378	10265
920.488	10109
920.598	10363
920.708	10489
920.818	10379
920.928	10352
921.038	10580
921.148	10451
921.258	10219
921.368	10162
921.477	10036
921.587	10036
921.697	9846
921.806	10010
921.916	9903
922.025	9819
922.134	9701
922.244	9698
922.353	9766
922.462	9572
922.571	9557
922.68	9420
922.789	9462
922.898	9439
923.007	9355
923.116	9428
923.224	9431
923.333	9450
923.442	9336
923.55	9344
923.659	9348
923.767	9363
923.876	9310
923.984	9370
924.092	9245
924.201	9310
924.309	9313
924.417	9283
924.525	9233
924.633	9260
924.741	10219
924.849	9074
924.956	9256
925.064	9112
925.172	9024
925.279	8990
925.387	9077
925.494	9154
925.602	9188
925.709	9127
925.816	9066
925.924	9062
926.031	9150
926.138	9051
926.245	9108
926.352	8967
926.459	9195
926.566	9211
926.673	9036
926.779	8971
926.886	8914
926.993	8788
927.099	8853
927.206	8781
927.312	8743
927.419	8845
927.525	8796
927.631	8845
927.737	8777
927.843	8663
927.95	8560
928.056	8606
928.162	8701
928.267	8788
928.373	9256
928.479	8750
928.585	8537
928.69	8720
928.796	8697
928.901	8606
929.007	8469
929.112	8648
929.218	8583
929.323	8594
929.428	8469
929.533	8629
929.638	8442
929.743	8526
929.848	8587
929.953	8446
930.058	8358
930.163	8301
930.267	8286
930.372	8419
930.477	8248
930.581	8431
930.685	8385
930.79	8259
930.894	8282
930.998	8214
931.103	8339
931.207	8020
931.311	7989
931.415	7871
931.519	7719
931.623	7765
