Data from test_V78500241_2689.txt Node
Date: Fri Mar 25 14:52:26 CST 2022
User: usil
Spectrometer: V785-0024
Trigger mode: 0
Integration Time (sec): 4.000000E-1
Scans to average: 1
Nonlinearity correction enabled: false
Boxcar width: 0
Storing dark spectrum: false
XAxis mode: Wavelengths
Number of Pixels in Spectrum: 1024
>>>>>Begin Spectral Data<<<<<
801.071	21956
801.214	21846
801.356	21694
801.499	21568
801.641	21431
801.783	21363
801.926	21351
802.068	21249
802.211	21340
802.353	21233
802.496	21062
802.638	20895
802.78	20819
802.923	20727
803.065	20708
803.208	20762
803.35	20777
803.492	20689
803.635	20823
803.777	20598
803.919	20849
804.061	20979
804.204	20811
804.346	20693
804.488	20670
804.63	20594
804.773	20648
804.915	20705
805.057	20765
805.199	20552
805.341	20762
805.483	20754
805.626	20804
805.768	20575
805.91	20720
806.052	20720
806.194	20518
806.336	20636
806.478	20549
806.62	20583
806.762	20587
806.904	20773
807.046	21070
807.188	20929
807.33	21058
807.472	21100
807.614	20891
807.756	20800
807.898	20705
808.04	20621
808.182	20735
808.324	20667
808.465	20697
808.607	20857
808.749	20910
808.891	21135
809.033	21169
809.174	21013
809.316	20883
809.458	20948
809.6	20979
809.741	20994
809.883	21074
810.025	21104
810.166	21173
810.308	21070
810.45	21039
810.591	21028
810.733	20769
810.875	20788
811.016	20625
811.158	20651
811.299	20792
811.441	20834
811.582	20891
811.724	20720
811.865	20667
812.007	20583
812.148	20758
812.29	20781
812.431	21001
812.573	20967
812.714	21108
812.855	21306
812.997	21256
813.138	21504
813.279	21332
813.421	21214
813.562	21028
813.703	21089
813.845	20872
813.986	20609
814.127	20511
814.268	20393
814.41	20370
814.551	20271
814.692	20358
814.833	20221
814.974	20138
815.115	20271
815.256	20126
815.397	20183
815.539	20092
815.68	20027
815.821	20062
815.962	20073
816.103	20031
816.244	19951
816.385	19734
816.526	19822
816.666	19632
816.807	19438
816.948	19597
817.089	19495
817.23	19438
817.371	19388
817.512	19537
817.653	19301
817.793	19350
817.934	19495
818.075	19373
818.216	19358
818.356	19358
818.497	19255
818.638	19160
818.778	19198
818.919	19175
819.06	19145
819.2	19274
819.341	19285
819.481	19255
819.622	19445
819.762	19586
819.903	19552
820.043	19434
820.184	19381
820.324	19506
820.465	19468
820.605	19441
820.746	19483
820.886	19274
821.026	19350
821.167	19369
821.307	19388
821.447	19213
821.588	19285
821.728	19095
821.868	18935
822.008	18848
822.149	18882
822.289	18810
822.429	18490
822.569	18528
822.709	18608
822.849	18315
822.99	18323
823.13	18258
823.27	18174
823.41	18121
823.55	18064
823.69	18049
823.83	18174
823.97	18079
824.11	17897
824.25	17828
824.389	17851
824.529	17939
824.669	17923
824.809	17977
824.949	17885
825.089	17996
825.228	17847
825.368	17627
825.508	17665
825.648	17714
825.787	17733
825.927	17668
826.067	17615
826.206	17680
826.346	17672
826.485	17699
826.625	17577
826.765	17798
826.904	17665
827.044	17459
827.183	17372
827.323	17330
827.462	17356
827.601	17372
827.741	17368
827.88	17414
828.02	17151
828.159	17425
828.298	17395
828.437	17337
828.577	17376
828.716	17566
828.855	17292
828.994	17124
829.134	17128
829.273	17086
829.412	17223
829.551	17045
829.69	16999
829.829	17174
829.968	17250
830.107	17178
830.246	17231
830.385	17064
830.524	17006
830.663	16949
830.802	16824
830.941	16763
831.08	16748
831.219	16744
831.357	16835
831.496	16877
831.635	16675
831.774	16603
831.913	16603
832.051	16470
832.19	16554
832.329	16531
832.467	16474
832.606	16424
832.744	16485
832.883	16500
833.022	16360
833.16	16382
833.299	16558
833.437	16481
833.576	16466
833.714	16493
833.852	16493
833.991	16478
834.129	16561
834.267	16489
834.406	16565
834.544	16580
834.682	16489
834.821	16443
834.959	16565
835.097	16459
835.235	16603
835.373	16462
835.511	16500
835.65	16470
835.788	16333
835.926	16147
836.064	16215
836.202	16246
836.34	16405
836.478	16500
836.615	16375
836.753	16443
836.891	16459
837.029	16443
837.167	16405
837.305	16348
837.443	16344
837.58	16185
837.718	16276
837.856	16230
837.993	16234
838.131	16261
838.269	16223
838.406	16287
838.544	16131
838.681	16078
838.819	15934
838.956	15781
839.094	15785
839.231	15873
839.369	16002
839.506	16150
839.643	16032
839.781	15857
839.918	15789
840.055	15873
840.193	15827
840.33	15755
840.467	15857
840.604	15838
840.742	15994
840.879	15766
841.016	15842
841.153	15736
841.29	15968
841.427	15831
841.564	15892
841.701	15884
841.838	15884
841.975	15663
842.112	15770
842.249	15610
842.385	15644
842.522	15797
842.659	15614
842.796	15629
842.933	15538
843.069	15629
843.206	15629
843.343	15785
843.479	15633
843.616	15679
843.752	15416
843.889	15492
844.025	15580
844.162	15359
844.298	15526
844.435	15313
844.571	15336
844.708	15485
844.844	15534
844.98	15580
845.117	15561
845.253	15348
845.389	15317
845.525	15378
845.661	15230
845.798	15150
845.934	15275
846.07	15165
846.206	15237
846.342	15294
846.478	15192
846.614	15077
846.75	14918
846.886	15009
847.022	15074
847.158	14990
847.294	15074
847.429	15051
847.565	14975
847.701	15226
847.837	14678
847.972	14670
848.108	14876
848.244	14686
848.379	14583
848.515	14556
848.65	14549
848.786	14526
848.921	14514
849.057	14632
849.192	14636
849.328	14655
849.463	14590
849.598	14579
849.734	14530
849.869	14419
850.004	14374
850.14	14381
850.275	14324
850.41	14263
850.545	14385
850.68	14256
850.815	14347
850.95	14309
851.085	14492
851.22	14473
851.355	14309
851.49	14355
851.625	14381
851.76	14393
851.895	14199
852.03	14305
852.165	14328
852.299	14336
852.434	14408
852.569	14377
852.703	14370
852.838	14343
852.973	14575
853.107	14503
853.242	14347
853.376	14221
853.511	14130
853.645	14195
853.78	14282
853.914	14271
854.048	14195
854.183	14187
854.317	14202
854.451	14358
854.585	14240
854.72	14218
854.854	14229
854.988	14126
855.122	14248
855.256	14062
855.39	14161
855.524	14282
855.658	14275
855.792	14301
855.926	14214
856.06	14282
856.194	14355
856.327	14195
856.461	14256
856.595	14244
856.729	14248
856.862	14389
856.996	14168
857.13	14370
857.263	14351
857.397	14454
857.53	14206
857.664	14408
857.797	14263
857.931	14313
858.064	14305
858.197	14298
858.331	14195
858.464	14252
858.597	14168
858.731	14237
858.864	14233
858.997	14199
859.13	14259
859.263	14259
859.396	14351
859.529	14164
859.662	14225
859.795	14240
859.928	14278
860.061	14389
860.194	14400
860.327	14298
860.46	14054
860.592	14358
860.725	14309
860.858	14290
860.99	14248
861.123	14119
861.256	14191
861.388	14077
861.521	14800
861.653	14172
861.786	14043
861.918	14187
862.05	14142
862.183	14168
862.315	14248
862.447	14320
862.58	14119
862.712	13947
862.844	13997
862.976	14058
863.108	14092
863.24	14568
863.372	13913
863.504	13982
863.636	14008
863.768	14054
863.9	14069
864.032	13959
864.164	13986
864.296	14043
864.428	14081
864.559	14119
864.691	14123
864.823	14107
864.954	14058
865.086	14050
865.217	13974
865.349	13944
865.48	13997
865.612	13970
865.743	14149
865.875	13997
866.006	13963
866.137	14126
866.269	13993
866.4	13883
866.531	13978
866.662	14035
866.793	13989
866.924	13852
867.055	13959
867.186	13944
867.317	13997
867.448	13856
867.579	13967
867.71	13890
867.841	13993
867.972	13978
868.103	13928
868.233	13970
868.364	14069
868.495	13947
868.625	14248
868.756	14355
868.886	14088
869.017	14138
869.147	14309
869.278	14263
869.408	14298
869.539	14210
869.669	14294
869.799	14351
869.929	14400
870.06	14381
870.19	14556
870.32	14499
870.45	14598
870.58	14545
870.71	14724
870.84	14727
870.97	14606
871.1	14545
871.23	14811
871.36	14823
871.489	14777
871.619	14788
871.749	14777
871.879	14994
872.008	14998
872.138	14796
872.267	14792
872.397	14758
872.526	14705
872.656	14648
872.785	14674
872.915	14864
873.044	14990
873.173	14914
873.303	14796
873.432	14925
873.561	14910
873.69	14944
873.819	14899
873.948	14975
874.077	14868
874.206	14929
874.335	14872
874.464	15074
874.593	15176
874.722	15024
874.851	15195
874.979	15256
875.108	15165
875.237	15135
875.365	15070
875.494	15142
875.623	15279
875.751	15138
875.88	15264
876.008	15447
876.136	15393
876.265	15580
876.393	15781
876.521	15675
876.65	15762
876.778	15603
876.906	15587
877.034	15549
877.162	15595
877.29	15431
877.418	15663
877.546	15622
877.674	15686
877.802	15545
877.93	15599
878.058	15481
878.185	15538
878.313	15713
878.441	15652
878.568	15534
878.696	15618
878.824	15538
878.951	15724
879.079	15895
879.206	15888
879.333	15793
879.461	15770
879.588	15709
879.715	15781
879.842	15888
879.97	15717
880.097	15466
880.224	15397
880.351	15519
880.478	15496
880.605	15378
880.732	15378
880.859	15663
880.986	15450
881.112	15447
881.239	15287
881.366	15203
881.493	15157
881.619	15001
881.746	15062
881.872	15127
881.999	15062
882.125	15058
882.252	15157
882.378	15199
882.505	15283
882.631	15085
882.757	14979
882.883	15074
883.01	15024
883.136	14910
883.262	14762
883.388	14720
883.514	14914
883.64	14933
883.766	15005
883.892	14777
884.018	14731
884.143	14952
884.269	14971
884.395	14758
884.52	14583
884.646	14613
884.772	14613
884.897	14473
885.023	14648
885.148	14651
885.274	14788
885.399	14716
885.524	14697
885.65	14606
885.775	14667
885.9	14670
886.025	14811
886.15	14758
886.275	14590
886.4	14549
886.525	14598
886.65	14590
886.775	14606
886.9	14777
887.025	14925
887.149	14693
887.274	14404
887.399	14442
887.523	14476
887.648	14442
887.773	14385
887.897	14492
888.021	14530
888.146	14442
888.27	14598
888.395	14670
888.519	14476
888.643	14549
888.767	14522
888.891	14434
889.015	14442
889.139	14381
889.263	14343
889.387	14469
889.511	14526
889.635	14400
889.759	14351
889.883	14301
890.006	14400
890.13	14495
890.254	14240
890.377	14324
890.501	14134
890.624	14126
890.748	14168
890.871	13978
890.995	13978
891.118	13986
891.241	14119
891.364	14119
891.488	14187
891.611	13963
891.734	14039
891.857	14206
891.98	14115
892.103	14161
892.226	14103
892.349	13940
892.471	13913
892.594	14043
892.717	13970
892.839	14016
892.962	14054
893.085	14138
893.207	14035
893.33	14043
893.452	13864
893.575	14073
893.697	13959
893.819	14240
893.941	14282
894.064	14161
894.186	14035
894.308	14035
894.43	14214
894.552	14161
894.674	14134
894.796	13944
894.918	14077
895.04	14172
895.161	14244
895.283	14103
895.405	14050
895.526	14058
895.648	14191
895.769	14233
895.891	14202
896.012	14278
896.134	14218
896.255	14278
896.376	14126
896.498	14157
896.619	14256
896.74	14233
896.861	14336
896.982	14541
897.103	14693
897.224	14518
897.345	14495
897.466	14415
897.587	14454
897.708	14621
897.828	14541
897.949	14514
898.07	14393
898.19	14469
898.311	14636
898.431	14419
898.552	14454
898.672	14648
898.792	14552
898.913	14610
899.033	14495
899.153	14412
899.273	14381
899.393	14389
899.513	14454
899.633	14412
899.753	14427
899.873	14469
899.993	14530
900.113	14377
900.232	14499
900.352	14408
900.472	14339
900.591	14180
900.711	14336
900.83	14233
900.95	14320
901.069	14381
901.189	14134
901.308	14081
901.427	13978
901.546	14020
901.665	14027
901.784	13970
901.904	13791
902.023	13723
902.141	13613
902.26	13460
902.379	13632
902.498	13525
902.617	13483
902.735	13567
902.854	13506
902.973	13491
903.091	13297
903.21	13312
903.328	13320
903.446	13164
903.565	13145
903.683	13065
903.801	13031
903.919	13091
904.038	13103
904.156	12916
904.274	13031
904.392	12954
904.51	12951
904.627	12878
904.745	12897
904.863	12901
904.981	12665
905.098	12623
905.216	12540
905.334	12669
905.451	12612
905.569	12506
905.686	12696
905.803	12589
905.921	12452
906.038	12525
906.155	12391
906.272	12342
906.389	12277
906.506	12232
906.623	12258
906.74	12270
906.857	12087
906.974	12125
907.091	12311
907.208	12289
907.324	12175
907.441	12155
907.557	11973
907.674	11870
907.79	11878
907.907	11996
908.023	11950
908.139	11904
908.256	11950
908.372	11855
908.488	11828
908.604	11760
908.72	11714
908.836	11676
908.952	11661
909.068	11695
909.184	11790
909.3	11672
909.415	11741
909.531	11733
909.647	11474
909.762	11429
909.878	11440
909.993	11532
910.108	11497
910.224	11459
910.339	11490
910.454	11444
910.57	11395
910.685	11242
910.8	11665
910.915	11558
911.03	11258
911.145	11170
911.259	11265
911.374	11284
911.489	11128
911.604	11067
911.718	10938
911.833	10957
911.947	10904
912.062	10759
912.176	10946
912.291	10999
912.405	10946
912.519	11079
912.633	11147
912.748	10987
912.862	11025
912.976	10862
913.09	10782
913.204	10752
913.318	10793
913.431	10953
913.545	11018
913.659	10927
913.772	10854
913.886	10763
914	10615
914.113	10866
914.226	10835
914.34	10767
914.453	10653
914.566	10812
914.68	10645
914.793	10599
914.906	10489
915.019	10443
915.132	10394
915.245	10440
915.358	10550
915.47	10390
915.583	10481
915.696	10455
915.809	10618
915.921	10569
916.034	10436
916.146	10352
916.259	10409
916.371	10451
916.483	10497
916.595	10303
916.708	10371
916.82	10352
916.932	10421
917.044	10428
917.156	10375
917.268	10276
917.38	10367
917.491	10219
917.603	10390
917.715	10428
917.826	10405
917.938	10238
918.049	10109
918.161	10238
918.272	10451
918.384	10466
918.495	10314
918.606	10143
918.717	10147
918.828	10230
918.939	10177
919.05	10109
919.161	10139
919.272	9987
919.383	9998
919.494	10188
919.604	10409
919.715	10246
919.826	10109
919.936	10166
920.047	10253
920.157	10238
920.267	10379
920.378	10272
920.488	10147
920.598	10352
920.708	10535
920.818	10291
920.928	10303
921.038	10554
921.148	10462
921.258	10219
921.368	10135
921.477	10074
921.587	10013
921.697	9888
921.806	10044
921.916	9972
922.025	9705
922.134	9743
922.244	9675
922.353	9766
922.462	9622
922.571	9599
922.68	9477
922.789	9469
922.898	9443
923.007	9374
923.116	9530
923.224	9401
923.333	9443
923.442	9325
923.55	9287
923.659	9340
923.767	9408
923.876	9260
923.984	9439
924.092	9298
924.201	9253
924.309	9317
924.417	9325
924.525	9180
924.633	9321
924.741	10059
924.849	9013
924.956	9241
925.064	9001
925.172	9047
925.279	9131
925.387	9108
925.494	9051
925.602	9226
925.709	9165
925.816	8982
925.924	9142
926.031	9180
926.138	9142
926.245	9123
926.352	8925
926.459	9176
926.566	9104
926.673	9043
926.779	9005
926.886	8921
926.993	8883
927.099	8807
927.206	8773
927.312	8708
927.419	8895
927.525	8815
927.631	8845
927.737	8788
927.843	8708
927.95	8522
928.056	8640
928.162	8712
928.267	8743
928.373	9378
928.479	8872
928.585	8587
928.69	8686
928.796	8766
928.901	8674
929.007	8556
929.112	8610
929.218	8583
929.323	8571
929.428	8514
929.533	8663
929.638	8492
929.743	8511
929.848	8526
929.953	8545
930.058	8374
930.163	8225
930.267	8282
930.372	8415
930.477	8263
930.581	8507
930.685	8355
930.79	8229
930.894	8206
930.998	8221
931.103	8343
931.207	7993
931.311	7959
931.415	7951
931.519	7803
931.623	7727
