Data from test_V78500241_254.txt Node
Date: Fri Mar 25 14:35:29 CST 2022
User: usil
Spectrometer: V785-0024
Trigger mode: 0
Integration Time (sec): 4.000000E-1
Scans to average: 1
Nonlinearity correction enabled: false
Boxcar width: 0
Storing dark spectrum: false
XAxis mode: Wavelengths
Number of Pixels in Spectrum: 1024
>>>>>Begin Spectral Data<<<<<
801.071	27443
801.214	27302
801.356	27173
801.499	26963
801.641	27032
801.783	26986
801.926	26944
802.068	26819
802.211	26735
802.353	26689
802.496	26575
802.638	26522
802.78	26385
802.923	26377
803.065	26423
803.208	26328
803.35	26309
803.492	26537
803.635	26465
803.777	26537
803.919	26492
804.061	26842
804.204	26492
804.346	26450
804.488	26317
804.63	26294
804.773	26374
804.915	26495
805.057	26629
805.199	26431
805.341	26663
805.483	26492
805.626	26476
805.768	26343
805.91	26484
806.052	26587
806.194	26400
806.336	26724
806.478	26522
806.62	26381
806.762	26453
806.904	26693
807.046	26876
807.188	26868
807.33	26765
807.472	26883
807.614	26861
807.756	26815
807.898	26686
808.04	26739
808.182	26568
808.324	26758
808.465	26819
808.607	26956
808.749	27161
808.891	27085
809.033	27245
809.174	27249
809.316	27161
809.458	27195
809.6	26906
809.741	27100
809.883	27020
810.025	27127
810.166	27233
810.308	27218
810.45	27226
810.591	27165
810.733	26906
810.875	26880
811.016	26940
811.158	26705
811.299	26788
811.441	26940
811.582	26979
811.724	26864
811.865	26800
812.007	26899
812.148	26849
812.29	26842
812.431	27028
812.573	27173
812.714	27291
812.855	27310
812.997	27420
813.138	27485
813.279	27439
813.421	27363
813.562	27279
813.703	27119
813.845	27009
813.986	26636
814.127	26568
814.268	26488
814.41	26571
814.551	26351
814.692	26461
814.833	26446
814.974	26328
815.115	26332
815.256	26225
815.397	26248
815.539	26210
815.68	26142
815.821	26142
815.962	26149
816.103	26130
816.244	26058
816.385	25753
816.526	25628
816.666	25639
816.807	25609
816.948	25594
817.089	25575
817.23	25518
817.371	25537
817.512	25438
817.653	25438
817.793	25491
817.934	25525
818.075	25506
818.216	25426
818.356	25483
818.497	25335
818.638	25164
818.778	25285
818.919	25339
819.06	25179
819.2	25285
819.341	25422
819.481	25316
819.622	25518
819.762	25624
819.903	25609
820.043	25559
820.184	25502
820.324	25407
820.465	25453
820.605	25616
820.746	25434
820.886	25343
821.026	25316
821.167	25411
821.307	25563
821.447	25251
821.588	25228
821.728	25209
821.868	25053
822.008	24894
822.149	24738
822.289	24787
822.429	24525
822.569	24498
822.709	24384
822.849	24285
822.99	24361
823.13	24159
823.27	24205
823.41	24011
823.55	24079
823.69	24129
823.83	24201
823.97	24098
824.11	23920
824.25	23824
824.389	23859
824.529	23813
824.669	23912
824.809	24011
824.949	23931
825.089	23843
825.228	24022
825.368	23642
825.508	23695
825.648	23657
825.787	23756
825.927	23703
826.067	23718
826.206	23676
826.346	23695
826.485	23611
826.625	23699
826.765	23771
826.904	23562
827.044	23448
827.183	23417
827.323	23303
827.462	23410
827.601	23280
827.741	23185
827.88	23364
828.02	23090
828.159	23189
828.298	23326
828.437	23360
828.577	23261
828.716	23383
828.855	23162
828.994	22995
829.134	23056
829.273	22984
829.412	23033
829.551	22896
829.69	22984
829.829	23044
829.968	23048
830.107	23041
830.246	23037
830.385	22809
830.524	22927
830.663	22687
830.802	22679
830.941	22481
831.08	22523
831.219	22626
831.357	22611
831.496	22740
831.635	22474
831.774	22409
831.913	22436
832.051	22291
832.19	22356
832.329	22561
832.467	22204
832.606	22192
832.744	22173
832.883	22234
833.022	22166
833.16	22226
833.299	22246
833.437	22211
833.576	22211
833.714	22139
833.852	22215
833.991	22265
834.129	22299
834.267	22223
834.406	22287
834.544	22242
834.682	22181
834.821	22215
834.959	22398
835.097	22185
835.235	22261
835.373	22158
835.511	22139
835.65	21994
835.788	22021
835.926	21945
836.064	21857
836.202	21793
836.34	21991
836.478	22139
836.615	21915
836.753	21998
836.891	22078
837.029	22086
837.167	21972
837.305	22036
837.443	21934
837.58	21869
837.718	21911
837.856	21800
837.993	21835
838.131	21899
838.269	21827
838.406	21793
838.544	21713
838.681	21454
838.819	21538
838.956	21306
839.094	21268
839.231	21420
839.369	21431
839.506	21614
839.643	21462
839.781	21359
839.918	21127
840.055	21287
840.193	21298
840.33	21233
840.467	21294
840.604	21313
840.742	21458
840.879	21123
841.016	21226
841.153	21089
841.29	21165
841.427	21089
841.564	21218
841.701	21100
841.838	21077
841.975	21055
842.112	21096
842.249	20998
842.385	20823
842.522	21119
842.659	20929
842.796	20933
842.933	20834
843.069	20743
843.206	20941
843.343	20842
843.479	20956
843.616	20941
843.752	20655
843.889	20655
844.025	20826
844.162	20617
844.298	20838
844.435	20724
844.571	20636
844.708	20670
844.844	20826
844.98	20826
845.117	20838
845.253	20651
845.389	20549
845.525	20598
845.661	20644
845.798	20598
845.934	20701
846.07	20674
846.206	20590
846.342	20743
846.478	20514
846.614	20347
846.75	20153
846.886	20145
847.022	20233
847.158	20111
847.294	20161
847.429	20176
847.565	20153
847.701	20355
847.837	19951
847.972	19864
848.108	19871
848.244	19963
848.379	19776
848.515	19685
848.65	19605
848.786	19655
848.921	19753
849.057	19814
849.192	19731
849.328	19624
849.463	19753
849.598	19803
849.734	19594
849.869	19521
850.004	19419
850.14	19540
850.275	19506
850.41	19263
850.545	19449
850.68	19308
850.815	19381
850.95	19335
851.085	19525
851.22	19392
851.355	19426
851.49	19506
851.625	19464
851.76	19354
851.895	19285
852.03	19164
852.165	19354
852.299	19377
852.434	19472
852.569	19502
852.703	19362
852.838	19464
852.973	19521
853.107	19521
853.242	19285
853.376	19289
853.511	19118
853.645	19255
853.78	19430
853.914	19335
854.048	19194
854.183	19152
854.317	19240
854.451	19263
854.585	19129
854.72	19152
854.854	19297
854.988	19110
855.122	19129
855.256	19122
855.39	19168
855.524	19346
855.658	19206
855.792	19190
855.926	19263
856.06	19369
856.194	19312
856.327	19251
856.461	19171
856.595	19103
856.729	19217
856.862	19289
856.996	19289
857.13	19346
857.263	19365
857.397	19293
857.53	19221
857.664	19232
857.797	19274
857.931	19308
858.064	19179
858.197	19350
858.331	19122
858.464	19114
858.597	19228
858.731	19175
858.864	19091
858.997	19069
859.13	19232
859.263	19148
859.396	19133
859.529	19072
859.662	19091
859.795	19042
859.928	19141
860.061	19346
860.194	19236
860.327	19228
860.46	19129
860.592	19179
860.725	19221
860.858	19213
860.99	19126
861.123	19072
861.256	18993
861.388	19274
861.521	19807
861.653	19050
861.786	19008
861.918	18973
862.05	19141
862.183	19099
862.315	19301
862.447	19228
862.58	19263
862.712	18939
862.844	18787
862.976	19004
863.108	18966
863.24	19236
863.372	18825
863.504	18875
863.636	18863
863.768	18875
863.9	18894
864.032	18856
864.164	18817
864.296	18867
864.428	19004
864.559	18958
864.691	18916
864.823	18894
864.954	18745
865.086	18802
865.217	18829
865.349	18696
865.48	18719
865.612	18650
865.743	18825
865.875	18677
866.006	18814
866.137	18711
866.269	18798
866.4	18642
866.531	18806
866.662	18661
866.793	18719
866.924	18658
867.055	18787
867.186	18776
867.317	18696
867.448	18696
867.579	18669
867.71	18582
867.841	18532
867.972	18703
868.103	18715
868.233	18768
868.364	18642
868.495	18711
868.625	18890
868.756	19126
868.886	18833
869.017	18856
869.147	19088
869.278	19027
869.408	18943
869.539	19004
869.669	19034
869.799	19012
869.929	19080
870.06	18966
870.19	19179
870.32	19183
870.45	19244
870.58	19415
870.71	19419
870.84	19373
870.97	19274
871.1	19270
871.23	19487
871.36	19384
871.489	19415
871.619	19510
871.749	19533
871.879	19502
872.008	19674
872.138	19449
872.267	19567
872.397	19449
872.526	19415
872.656	19297
872.785	19365
872.915	19502
873.044	19643
873.173	19552
873.303	19483
873.432	19590
873.561	19632
873.69	19594
873.819	19510
873.948	19605
874.077	19499
874.206	19594
874.335	19514
874.464	19719
874.593	19791
874.722	19719
874.851	19890
874.979	19814
875.108	19906
875.237	19830
875.365	19693
875.494	19788
875.623	19959
875.751	19868
875.88	19822
876.008	20035
876.136	20046
876.265	20240
876.393	20298
876.521	20271
876.65	20290
876.778	20355
876.906	20206
877.034	20145
877.162	20206
877.29	20218
877.418	20294
877.546	20286
877.674	20305
877.802	20157
877.93	20130
878.058	20107
878.185	19993
878.313	20088
878.441	20221
878.568	20073
878.696	20115
878.824	20237
878.951	20366
879.079	20457
879.206	20640
879.333	20419
879.461	20423
879.588	20377
879.715	20503
879.842	20636
879.97	20431
880.097	20111
880.224	20088
880.351	20138
880.478	20187
880.605	20077
880.732	19944
880.859	20328
880.986	20153
881.112	20126
881.239	19951
881.366	19879
881.493	19776
881.619	19826
881.746	19647
881.872	19715
881.999	19628
882.125	19590
882.252	19769
882.378	19658
882.505	19860
882.631	19544
882.757	19514
882.883	19495
883.01	19457
883.136	19449
883.262	19308
883.388	19304
883.514	19415
883.64	19563
883.766	19381
883.892	19270
884.018	19335
884.143	19537
884.269	19377
884.395	19285
884.52	19103
884.646	19152
884.772	19012
884.897	19042
885.023	19133
885.148	19194
885.274	19312
885.399	19152
885.524	19148
885.65	19122
885.775	19050
885.9	19038
886.025	19107
886.15	19072
886.275	18977
886.4	19000
886.525	18973
886.65	19057
886.775	19053
886.9	19209
887.025	19285
887.149	19008
887.274	18875
887.399	18817
887.523	18859
887.648	18688
887.773	18745
887.897	18856
888.021	18909
888.146	18791
888.27	19004
888.395	18840
888.519	18882
888.643	18798
888.767	18806
888.891	18677
889.015	18722
889.139	18722
889.263	18669
889.387	18719
889.511	18871
889.635	18753
889.759	18593
889.883	18494
890.006	18612
890.13	18749
890.254	18620
890.377	18589
890.501	18361
890.624	18407
890.748	18384
890.871	18346
890.995	18152
891.118	18133
891.241	18292
891.364	18270
891.488	18308
891.611	18258
891.734	18232
891.857	18330
891.98	18289
892.103	18380
892.226	18350
892.349	18197
892.471	18034
892.594	18072
892.717	18194
892.839	18133
892.962	18186
893.085	18201
893.207	18190
893.33	18133
893.452	18068
893.575	18220
893.697	18098
893.819	18235
893.941	18327
894.064	18281
894.186	18171
894.308	18049
894.43	18292
894.552	18292
894.674	18304
894.796	18091
894.918	18129
895.04	18178
895.161	18308
895.283	18213
895.405	18197
895.526	18186
895.648	18258
895.769	18239
895.891	18194
896.012	18266
896.134	18285
896.255	18300
896.376	18232
896.498	18285
896.619	18251
896.74	18372
896.861	18277
896.982	18551
897.103	18677
897.224	18479
897.345	18418
897.466	18502
897.587	18471
897.708	18623
897.828	18448
897.949	18407
898.07	18308
898.19	18376
898.311	18566
898.431	18384
898.552	18525
898.672	18494
898.792	18528
898.913	18361
899.033	18384
899.153	18300
899.273	18148
899.393	18197
899.513	18334
899.633	18205
899.753	18353
899.873	18163
899.993	18243
900.113	18148
900.232	18251
900.352	18216
900.472	18072
900.591	17965
900.711	18091
900.83	18015
900.95	18220
901.069	18155
901.189	17923
901.308	17767
901.427	17745
901.546	17680
901.665	17786
901.784	17615
901.904	17535
902.023	17543
902.141	17273
902.26	17341
902.379	17318
902.498	17303
902.617	17155
902.735	17220
902.854	17242
902.973	17102
903.091	16900
903.21	16850
903.328	16957
903.446	16744
903.565	16687
903.683	16611
903.801	16561
903.919	16641
904.038	16634
904.156	16493
904.274	16573
904.392	16531
904.51	16424
904.627	16478
904.745	16546
904.863	16474
904.981	16196
905.098	16135
905.216	16185
905.334	16139
905.451	16131
905.569	16074
905.686	16101
905.803	16086
905.921	15930
906.038	16116
906.155	15884
906.272	15759
906.389	15835
906.506	15682
906.623	15785
906.74	15686
906.857	15587
906.974	15625
907.091	15690
907.208	15720
907.324	15545
907.441	15469
907.557	15317
907.674	15412
907.79	15275
907.907	15374
908.023	15367
908.139	15435
908.256	15264
908.372	15249
908.488	15184
908.604	15127
908.72	15047
908.836	14990
908.952	15017
909.068	15135
909.184	15199
909.3	15077
909.415	15039
909.531	15066
909.647	14762
909.762	14857
909.878	14758
909.993	14746
910.108	14777
910.224	14659
910.339	14727
910.454	14670
910.57	14594
910.685	14526
910.8	14815
910.915	14705
911.03	14533
911.145	14457
911.259	14404
911.374	14336
911.489	14317
911.604	14214
911.718	14115
911.833	14168
911.947	13959
912.062	13940
912.176	14088
912.291	14107
912.405	14115
912.519	14267
912.633	14172
912.748	14229
912.862	14115
912.976	13921
913.09	13818
913.204	13906
913.318	14016
913.431	14058
913.545	14077
913.659	14035
913.772	13932
913.886	13788
914	13837
914.113	13757
914.226	13849
914.34	13852
914.453	13575
914.566	13784
914.68	13696
914.793	13636
914.906	13514
915.019	13476
915.132	13403
915.245	13438
915.358	13578
915.47	13426
915.583	13548
915.696	13480
915.809	13514
915.921	13548
916.034	13430
916.146	13400
916.259	13320
916.371	13480
916.483	13400
916.595	13312
916.708	13320
916.82	13266
916.932	13343
917.044	13259
917.156	13107
917.268	13149
917.38	13202
917.491	13088
917.603	13221
917.715	13213
917.826	13270
917.938	13118
918.049	13034
918.161	13069
918.272	13156
918.384	13225
918.495	13099
918.606	12993
918.717	12901
918.828	12973
918.939	13004
919.05	12806
919.161	12897
919.272	12776
919.383	12741
919.494	12939
919.604	13107
919.715	12894
919.826	12757
919.936	12875
920.047	12962
920.157	12886
920.267	12996
920.378	12973
920.488	12856
920.598	13000
920.708	13202
920.818	12977
920.928	13004
921.038	13164
921.148	13149
921.258	12802
921.368	12783
921.477	12673
921.587	12616
921.697	12509
921.806	12654
921.916	12563
922.025	12311
922.134	12445
922.244	12243
922.353	12319
922.462	12197
922.571	12213
922.68	11958
922.789	12068
922.898	11980
923.007	11897
923.116	11999
923.224	11950
923.333	11923
923.442	11798
923.55	11809
923.659	11813
923.767	11809
923.876	11737
923.984	11802
924.092	11726
924.201	11809
924.309	11745
924.417	11695
924.525	11646
924.633	11718
924.741	12563
924.849	11471
924.956	11699
925.064	11493
925.172	11433
925.279	11463
925.387	11463
925.494	11448
925.602	11562
925.709	11604
925.816	11383
925.924	11436
926.031	11566
926.138	11547
926.245	11474
926.352	11330
926.459	11474
926.566	11543
926.673	11383
926.779	11208
926.886	11254
926.993	11113
927.099	11052
927.206	11048
927.312	11090
927.419	11083
927.525	11090
927.631	11098
927.737	10991
927.843	10915
927.95	10847
928.056	10972
928.162	10984
928.267	10961
928.373	11520
928.479	11025
928.585	10889
928.69	11018
928.796	10953
928.901	10896
929.007	10774
929.112	10782
929.218	10797
929.323	10683
929.428	10672
929.533	10915
929.638	10702
929.743	10767
929.848	10649
929.953	10702
930.058	10622
930.163	10421
930.267	10538
930.372	10542
930.477	10428
930.581	10561
930.685	10508
930.79	10341
930.894	10363
930.998	10367
931.103	10455
931.207	10128
931.311	10086
931.415	9930
931.519	9789
931.623	9751
