Data from test_V78500241_1429.txt Node
Date: Fri Mar 25 14:43:39 CST 2022
User: usil
Spectrometer: V785-0024
Trigger mode: 0
Integration Time (sec): 4.000000E-1
Scans to average: 1
Nonlinearity correction enabled: false
Boxcar width: 0
Storing dark spectrum: false
XAxis mode: Wavelengths
Number of Pixels in Spectrum: 1024
>>>>>Begin Spectral Data<<<<<
801.071	22436
801.214	22215
801.356	22013
801.499	21918
801.641	21846
801.783	21808
801.926	21774
802.068	21644
802.211	21534
802.353	21580
802.496	21310
802.638	21298
802.78	21203
802.923	21226
803.065	21074
803.208	21081
803.35	21211
803.492	21256
803.635	21199
803.777	21123
803.919	21146
804.061	21431
804.204	21211
804.346	21108
804.488	20918
804.63	21131
804.773	20990
804.915	21024
805.057	21131
805.199	21032
805.341	21093
805.483	21218
805.626	21142
805.768	21005
805.91	21024
806.052	21081
806.194	20872
806.336	21199
806.478	21142
806.62	20994
806.762	21119
806.904	21279
807.046	21450
807.188	21519
807.33	21515
807.472	21382
807.614	21412
807.756	21378
807.898	21218
808.04	21203
808.182	21218
808.324	21321
808.465	21306
808.607	21549
808.749	21667
808.891	21876
809.033	21888
809.174	21762
809.316	21610
809.458	21606
809.6	21587
809.741	21622
809.883	21595
810.025	21701
810.166	21713
810.308	21606
810.45	21652
810.591	21412
810.733	21351
810.875	21382
811.016	21146
811.158	21165
811.299	21176
811.441	21416
811.582	21321
811.724	21389
811.865	21233
812.007	21199
812.148	21230
812.29	21264
812.431	21469
812.573	21458
812.714	21629
812.855	21755
812.997	21835
813.138	21907
813.279	21846
813.421	21728
813.562	21633
813.703	21545
813.845	21275
813.986	21032
814.127	20929
814.268	20895
814.41	20670
814.551	20868
814.692	20826
814.833	20750
814.974	20617
815.115	20804
815.256	20712
815.397	20606
815.539	20549
815.68	20511
815.821	20469
815.962	20492
816.103	20480
816.244	20347
816.385	20370
816.526	20202
816.666	20058
816.807	19940
816.948	20012
817.089	20020
817.23	19925
817.371	19947
817.512	19963
817.653	19921
817.793	19803
817.934	19921
818.075	19955
818.216	19944
818.356	19780
818.497	19723
818.638	19647
818.778	19559
818.919	19666
819.06	19719
819.2	19822
819.341	19822
819.481	19731
819.622	19986
819.762	20081
819.903	20024
820.043	20046
820.184	19894
820.324	20008
820.465	19868
820.605	19921
820.746	19932
820.886	19746
821.026	19986
821.167	19814
821.307	19997
821.447	19913
821.588	19658
821.728	19655
821.868	19506
822.008	19384
822.149	19335
822.289	19308
822.429	19061
822.569	18913
822.709	19080
822.849	18829
822.99	18734
823.13	18703
823.27	18696
823.41	18757
823.55	18502
823.69	18593
823.83	18673
823.97	18589
824.11	18426
824.25	18395
824.389	18441
824.529	18479
824.669	18327
824.809	18536
824.949	18593
825.089	18471
825.228	18506
825.368	18228
825.508	18247
825.648	18292
825.787	18239
825.927	18239
826.067	18224
826.206	18148
826.346	18270
826.485	18174
826.625	18117
826.765	18182
826.904	18194
827.044	17866
827.183	17878
827.323	17927
827.462	18022
827.601	17855
827.741	17889
827.88	17889
828.02	17783
828.159	17851
828.298	17904
828.437	17893
828.577	17756
828.716	18007
828.855	17760
828.994	17661
829.134	17558
829.273	17718
829.412	17619
829.551	17547
829.69	17642
829.829	17532
829.968	17665
830.107	17722
830.246	17714
830.385	17486
830.524	17554
830.663	17486
830.802	17326
830.941	17174
831.08	17204
831.219	17284
831.357	17235
831.496	17379
831.635	17265
831.774	17033
831.913	17189
832.051	16980
832.19	17003
832.329	17052
832.467	16965
832.606	16892
832.744	16828
832.883	16915
833.022	17025
833.16	17029
833.299	17052
833.437	17006
833.576	16923
833.714	16911
833.852	17048
833.991	16980
834.129	17003
834.267	16987
834.406	16915
834.544	17060
834.682	16984
834.821	17006
834.959	17132
835.097	16877
835.235	17018
835.373	17025
835.511	17090
835.65	17014
835.788	16869
835.926	16835
836.064	16694
836.202	16721
836.34	16972
836.478	16911
836.615	16972
836.753	16854
836.891	16927
837.029	16828
837.167	16854
837.305	16885
837.443	16763
837.58	16786
837.718	16854
837.856	16820
837.993	16622
838.131	16694
838.269	16611
838.406	16683
838.544	16664
838.681	16519
838.819	16417
838.956	16329
839.094	16280
839.231	16341
839.369	16394
839.506	16618
839.643	16592
839.781	16310
839.918	16223
840.055	16299
840.193	16276
840.33	16246
840.467	16291
840.604	16276
840.742	16603
840.879	16185
841.016	16143
841.153	16055
841.29	16398
841.427	16230
841.564	16314
841.701	16398
841.838	16154
841.975	16154
842.112	16173
842.249	16135
842.385	16166
842.522	16162
842.659	16109
842.796	16032
842.933	16025
843.069	16135
843.206	16109
843.343	16147
843.479	16135
843.616	16128
843.752	15774
843.889	15861
844.025	16051
844.162	15785
844.298	15968
844.435	15831
844.571	15869
844.708	16032
844.844	15975
844.98	16071
845.117	15907
845.253	15869
845.389	15804
845.525	15827
845.661	15846
845.798	15838
845.934	16017
846.07	15869
846.206	16013
846.342	16006
846.478	15835
846.614	15568
846.75	15363
846.886	15443
847.022	15469
847.158	15428
847.294	15378
847.429	15450
847.565	15363
847.701	15625
847.837	15184
847.972	15192
848.108	15317
848.244	15233
848.379	15017
848.515	14975
848.65	14982
848.786	15047
848.921	14986
849.057	15100
849.192	15100
849.328	15070
849.463	15097
849.598	14933
849.734	14944
849.869	14933
850.004	14834
850.14	14788
850.275	14864
850.41	14731
850.545	14693
850.68	14689
850.815	14708
850.95	14788
851.085	14872
851.22	14994
851.355	14758
851.49	14731
851.625	14781
851.76	14697
851.895	14655
852.03	14667
852.165	14724
852.299	14735
852.434	14845
852.569	14762
852.703	14807
852.838	14880
852.973	14982
853.107	14899
853.242	14708
853.376	14693
853.511	14575
853.645	14667
853.78	14765
853.914	14610
854.048	14560
854.183	14568
854.317	14636
854.451	14823
854.585	14667
854.72	14545
854.854	14735
854.988	14606
855.122	14583
855.256	14526
855.39	14568
855.524	14697
855.658	14826
855.792	14598
855.926	14727
856.06	14750
856.194	14682
856.327	14583
856.461	14613
856.595	14598
856.729	14659
856.862	14697
856.996	14716
857.13	14689
857.263	14773
857.397	14864
857.53	14708
857.664	14739
857.797	14648
857.931	14769
858.064	14697
858.197	14697
858.331	14606
858.464	14511
858.597	14560
858.731	14606
858.864	14571
858.997	14556
859.13	14617
859.263	14636
859.396	14678
859.529	14602
859.662	14720
859.795	14594
859.928	14621
860.061	14785
860.194	14792
860.327	14678
860.46	14583
860.592	14804
860.725	14788
860.858	14705
860.99	14625
861.123	14579
861.256	14606
861.388	14663
861.521	15530
861.653	14530
861.786	14507
861.918	14579
862.05	14552
862.183	14587
862.315	14655
862.447	14682
862.58	14537
862.712	14336
862.844	14336
862.976	14541
863.108	14495
863.24	14914
863.372	14358
863.504	14454
863.636	14324
863.768	14438
863.9	14438
864.032	14298
864.164	14374
864.296	14412
864.428	14400
864.559	14537
864.691	14499
864.823	14442
864.954	14454
865.086	14431
865.217	14301
865.349	14286
865.48	14328
865.612	14358
865.743	14526
865.875	14385
866.006	14355
866.137	14427
866.269	14385
866.4	14370
866.531	14339
866.662	14324
866.793	14412
866.924	14351
867.055	14484
867.186	14396
867.317	14248
867.448	14278
867.579	14389
867.71	14366
867.841	14229
867.972	14446
868.103	14408
868.233	14339
868.364	14343
868.495	14450
868.625	14522
868.756	14769
868.886	14629
869.017	14571
869.147	14689
869.278	14746
869.408	14594
869.539	14606
869.669	14705
869.799	14693
869.929	14701
870.06	14689
870.19	14918
870.32	14899
870.45	14914
870.58	14967
870.71	15131
870.84	15142
870.97	15028
871.1	14910
871.23	15260
871.36	15176
871.489	15085
871.619	15268
871.749	15146
871.879	15192
872.008	15386
872.138	15226
872.267	15176
872.397	15070
872.526	15081
872.656	15058
872.785	15241
872.915	15252
873.044	15332
873.173	15226
873.303	15268
873.432	15351
873.561	15374
873.69	15283
873.819	15298
873.948	15313
874.077	15313
874.206	15249
874.335	15233
874.464	15401
874.593	15519
874.722	15534
874.851	15587
874.979	15603
875.108	15610
875.237	15515
875.365	15424
875.494	15481
875.623	15701
875.751	15648
875.88	15644
876.008	15675
876.136	15838
876.265	15895
876.393	16059
876.521	16029
876.65	16188
876.778	16059
876.906	15945
877.034	15930
877.162	15960
877.29	15884
877.418	16029
877.546	15983
877.674	16032
877.802	16147
877.93	15994
878.058	15987
878.185	15941
878.313	16040
878.441	16010
878.568	15888
878.696	15975
878.824	16105
878.951	16131
879.079	16352
879.206	16382
879.333	16295
879.461	16128
879.588	16306
879.715	16344
879.842	16356
879.97	16150
880.097	15979
880.224	15930
880.351	15972
880.478	15884
880.605	15903
880.732	15823
880.859	16226
880.986	15873
881.112	15880
881.239	15835
881.366	15603
881.493	15515
881.619	15488
881.746	15587
881.872	15572
881.999	15534
882.125	15473
882.252	15622
882.378	15496
882.505	15625
882.631	15393
882.757	15279
882.883	15359
883.01	15401
883.136	15260
883.262	15169
883.388	15169
883.514	15306
883.64	15355
883.766	15336
883.892	15218
884.018	15207
884.143	15344
884.269	15496
884.395	15131
884.52	15074
884.646	15089
884.772	14967
884.897	14956
885.023	15051
885.148	15119
885.274	15222
885.399	15165
885.524	15062
885.65	15051
885.775	15116
885.9	15047
886.025	15161
886.15	15093
886.275	15020
886.4	14941
886.525	15020
886.65	14956
886.775	14933
886.9	15081
887.025	15329
887.149	15013
887.274	14906
887.399	14853
887.523	14861
887.648	14792
887.773	14826
887.897	14845
888.021	14864
888.146	14906
888.27	14982
888.395	15017
888.519	14857
888.643	14937
888.767	14918
888.891	14830
889.015	14701
889.139	14648
889.263	14724
889.387	14819
889.511	14956
889.635	14868
889.759	14731
889.883	14716
890.006	14762
890.13	14804
890.254	14682
890.377	14720
890.501	14473
890.624	14438
890.748	14648
890.871	14423
890.995	14408
891.118	14324
891.241	14313
891.364	14454
891.488	14511
891.611	14374
891.734	14450
891.857	14404
891.98	14530
892.103	14492
892.226	14366
892.349	14431
892.471	14229
892.594	14351
892.717	14457
892.839	14408
892.962	14366
893.085	14545
893.207	14446
893.33	14233
893.452	14237
893.575	14484
893.697	14393
893.819	14518
893.941	14663
894.064	14476
894.186	14434
894.308	14377
894.43	14518
894.552	14705
894.674	14613
894.796	14248
894.918	14301
895.04	14370
895.161	14446
895.283	14594
895.405	14362
895.526	14518
895.648	14495
895.769	14526
895.891	14518
896.012	14625
896.134	14610
896.255	14560
896.376	14522
896.498	14552
896.619	14564
896.74	14564
896.861	14640
896.982	14861
897.103	15036
897.224	14826
897.345	14804
897.466	14739
897.587	14826
897.708	14857
897.828	14830
897.949	14773
898.07	14716
898.19	14800
898.311	15070
898.431	14876
898.552	14902
898.672	14967
898.792	14872
898.913	14937
899.033	14819
899.153	14750
899.273	14552
899.393	14826
899.513	14842
899.633	14853
899.753	14800
899.873	14743
899.993	14781
900.113	14743
900.232	14826
900.352	14796
900.472	14583
900.591	14560
900.711	14602
900.83	14552
900.95	14739
901.069	14743
901.189	14667
901.308	14290
901.427	14320
901.546	14275
901.665	14294
901.784	14385
901.904	14153
902.023	14088
902.141	13894
902.26	13841
902.379	14020
902.498	13856
902.617	13826
902.735	13917
902.854	13765
902.973	13833
903.091	13575
903.21	13582
903.328	13476
903.446	13533
903.565	13381
903.683	13369
903.801	13301
903.919	13377
904.038	13362
904.156	13225
904.274	13312
904.392	13221
904.51	13164
904.627	13213
904.745	13221
904.863	13213
904.981	13004
905.098	12871
905.216	12962
905.334	13012
905.451	12943
905.569	12821
905.686	12909
905.803	12928
905.921	12738
906.038	12863
906.155	12772
906.272	12578
906.389	12642
906.506	12471
906.623	12513
906.74	12456
906.857	12414
906.974	12292
907.091	12574
907.208	12574
907.324	12544
907.441	12399
907.557	12399
907.674	12235
907.79	12273
907.907	12209
908.023	12239
908.139	12254
908.256	12213
908.372	12171
908.488	12098
908.604	12015
908.72	11969
908.836	11946
908.952	11935
909.068	12026
909.184	12083
909.3	12038
909.415	12072
909.531	12003
909.647	11764
909.762	11714
909.878	11695
909.993	11802
910.108	11771
910.224	11695
910.339	11760
910.454	11657
910.57	11619
910.685	11532
910.8	11798
910.915	11771
911.03	11642
911.145	11505
911.259	11512
911.374	11482
911.489	11368
911.604	11433
911.718	11216
911.833	11231
911.947	11098
912.062	11018
912.176	11197
912.291	11155
912.405	11280
912.519	11459
912.633	11421
912.748	11383
912.862	11178
912.976	11045
913.09	10957
913.204	11003
913.318	11033
913.431	11258
913.545	11193
913.659	11269
913.772	11143
913.886	10991
914	10984
914.113	11052
914.226	11151
914.34	11041
914.453	10938
914.566	11048
914.68	10900
914.793	10877
914.906	10714
915.019	10778
915.132	10653
915.245	10683
915.358	10740
915.47	10797
915.583	10729
915.696	10744
915.809	10843
915.921	10786
916.034	10656
916.146	10649
916.259	10694
916.371	10694
916.483	10698
916.595	10599
916.708	10592
916.82	10603
916.932	10618
917.044	10569
917.156	10615
917.268	10405
917.38	10485
917.491	10470
917.603	10508
917.715	10641
917.826	10622
917.938	10519
918.049	10489
918.161	10519
918.272	10645
918.384	10675
918.495	10554
918.606	10436
918.717	10322
918.828	10344
918.939	10398
919.05	10314
919.161	10424
919.272	10261
919.383	10322
919.494	10470
919.604	10599
919.715	10360
919.826	10405
919.936	10341
920.047	10542
920.157	10405
920.267	10649
920.378	10500
920.488	10379
920.598	10618
920.708	10706
920.818	10634
920.928	10622
921.038	10778
921.148	10774
921.258	10546
921.368	10325
921.477	10265
921.587	10200
921.697	10131
921.806	10242
921.916	10204
922.025	9991
922.134	10006
922.244	10002
922.353	9960
922.462	9861
922.571	9774
922.68	9629
922.789	9660
922.898	9713
923.007	9625
923.116	9671
923.224	9648
923.333	9675
923.442	9561
923.55	9454
923.659	9576
923.767	9584
923.876	9561
923.984	9610
924.092	9424
924.201	9576
924.309	9587
924.417	9564
924.525	9382
924.633	9428
924.741	10394
924.849	9275
924.956	9462
925.064	9332
925.172	9142
925.279	9184
925.387	9291
925.494	9344
925.602	9469
925.709	9294
925.816	9291
925.924	9321
926.031	9416
926.138	9313
926.245	9382
926.352	9249
926.459	9370
926.566	9332
926.673	9222
926.779	9108
926.886	9195
926.993	9055
927.099	9009
927.206	8975
927.312	8994
927.419	9020
927.525	8990
927.631	9142
927.737	8967
927.843	8883
927.95	8800
928.056	8876
928.162	8975
928.267	8982
928.373	9545
928.479	9036
928.585	8819
928.69	8883
928.796	8918
928.901	8815
929.007	8674
929.112	8815
929.218	8807
929.323	8727
929.428	8708
929.533	8868
929.638	8731
929.743	8659
929.848	8697
929.953	8724
930.058	8583
930.163	8488
930.267	8503
930.372	8617
930.477	8495
930.581	8659
930.685	8549
930.79	8461
930.894	8465
930.998	8434
931.103	8552
931.207	8267
931.311	8134
931.415	8149
931.519	7932
931.623	7906
