Data from test_V78500241_2189.txt Node
Date: Fri Mar 25 14:48:57 CST 2022
User: usil
Spectrometer: V785-0024
Trigger mode: 0
Integration Time (sec): 4.000000E-1
Scans to average: 1
Nonlinearity correction enabled: false
Boxcar width: 0
Storing dark spectrum: false
XAxis mode: Wavelengths
Number of Pixels in Spectrum: 1024
>>>>>Begin Spectral Data<<<<<
801.071	22257
801.214	22105
801.356	21800
801.499	21705
801.641	21473
801.783	21477
801.926	21439
802.068	21351
802.211	21405
802.353	21298
802.496	21119
802.638	21123
802.78	21032
802.923	20849
803.065	20910
803.208	20880
803.35	20876
803.492	20845
803.635	21043
803.777	20769
803.919	20876
804.061	21188
804.204	20960
804.346	20796
804.488	20800
804.63	20811
804.773	20796
804.915	20762
805.057	20834
805.199	20689
805.341	20773
805.483	20990
805.626	20891
805.768	20781
805.91	20785
806.052	20792
806.194	20727
806.336	20845
806.478	20743
806.62	20777
806.762	20899
806.904	20956
807.046	21195
807.188	20979
807.33	21074
807.472	21207
807.614	21009
807.756	20918
807.898	20902
808.04	20937
808.182	20785
808.324	20823
808.465	20895
808.607	21096
808.749	21188
808.891	21272
809.033	21348
809.174	21306
809.316	21211
809.458	21108
809.6	21131
809.741	21226
809.883	21218
810.025	21363
810.166	21401
810.308	21252
810.45	21386
810.591	21233
810.733	21142
810.875	21009
811.016	20902
811.158	20788
811.299	21096
811.441	21085
811.582	20982
811.724	20929
811.865	20906
812.007	20899
812.148	20895
812.29	20944
812.431	21062
812.573	21142
812.714	21291
812.855	21500
812.997	21466
813.138	21641
813.279	21519
813.421	21424
813.562	21325
813.703	21211
813.845	20982
813.986	20842
814.127	20568
814.268	20621
814.41	20552
814.551	20499
814.692	20431
814.833	20377
814.974	20404
815.115	20408
815.256	20393
815.397	20259
815.539	20347
815.68	20240
815.821	20210
815.962	20317
816.103	20290
816.244	19951
816.385	19928
816.526	19986
816.666	19909
816.807	19704
816.948	19830
817.089	19845
817.23	19670
817.371	19651
817.512	19677
817.653	19696
817.793	19582
817.934	19605
818.075	19643
818.216	19681
818.356	19655
818.497	19282
818.638	19266
818.778	19232
818.919	19358
819.06	19324
819.2	19445
819.341	19407
819.481	19487
819.622	19738
819.762	19826
819.903	19765
820.043	19670
820.184	19575
820.324	19472
820.465	19757
820.605	19582
820.746	19533
820.886	19388
821.026	19567
821.167	19628
821.307	19632
821.447	19567
821.588	19460
821.728	19221
821.868	19137
822.008	19091
822.149	19065
822.289	18928
822.429	18787
822.569	18711
822.709	18745
822.849	18582
822.99	18513
823.13	18445
823.27	18357
823.41	18342
823.55	18136
823.69	18277
823.83	18380
823.97	18213
824.11	18045
824.25	18019
824.389	17961
824.529	18209
824.669	18019
824.809	18167
824.949	18163
825.089	18098
825.228	18053
825.368	17958
825.508	17916
825.648	17786
825.787	17824
825.927	17939
826.067	17817
826.206	17779
826.346	17840
826.485	17851
826.625	17923
826.765	17961
826.904	17847
827.044	17737
827.183	17611
827.323	17516
827.462	17608
827.601	17581
827.741	17497
827.88	17570
828.02	17474
828.159	17509
828.298	17532
828.437	17642
828.577	17398
828.716	17699
828.855	17474
828.994	17414
829.134	17280
829.273	17482
829.412	17242
829.551	17235
829.69	17318
829.829	17223
829.968	17284
830.107	17387
830.246	17307
830.385	17254
830.524	17166
830.663	17284
830.802	17018
830.941	16915
831.08	16824
831.219	17014
831.357	17006
831.496	17204
831.635	16885
831.774	16805
831.913	16736
832.051	16675
832.19	16668
832.329	16820
832.467	16527
832.606	16523
832.744	16592
832.883	16538
833.022	16565
833.16	16618
833.299	16740
833.437	16580
833.576	16691
833.714	16611
833.852	16641
833.991	16721
834.129	16793
834.267	16683
834.406	16634
834.544	16653
834.682	16588
834.821	16618
834.959	16771
835.097	16618
835.235	16767
835.373	16649
835.511	16675
835.65	16538
835.788	16504
835.926	16352
836.064	16367
836.202	16390
836.34	16474
836.478	16596
836.615	16519
836.753	16683
836.891	16634
837.029	16535
837.167	16538
837.305	16474
837.443	16531
837.58	16379
837.718	16519
837.856	16424
837.993	16367
838.131	16417
838.269	16318
838.406	16363
838.544	16333
838.681	16116
838.819	16048
838.956	15983
839.094	16002
839.231	16040
839.369	16109
839.506	16325
839.643	16131
839.781	15953
839.918	15964
840.055	15941
840.193	15846
840.33	15915
840.467	16002
840.604	15964
840.742	16265
840.879	15835
841.016	15819
841.153	15789
841.29	16112
841.427	16006
841.564	15937
841.701	16013
841.838	15960
841.975	15797
842.112	15823
842.249	15838
842.385	15709
842.522	15918
842.659	15747
842.796	15690
842.933	15701
843.069	15679
843.206	15679
843.343	15800
843.479	15812
843.616	15728
843.752	15511
843.889	15447
844.025	15652
844.162	15439
844.298	15610
844.435	15572
844.571	15389
844.708	15629
844.844	15656
844.98	15633
845.117	15633
845.253	15595
845.389	15313
845.525	15439
845.661	15317
845.798	15264
845.934	15344
846.07	15287
846.206	15397
846.342	15382
846.478	15237
846.614	15100
846.75	15005
846.886	15024
847.022	15192
847.158	15020
847.294	15070
847.429	15116
847.565	14975
847.701	15287
847.837	14914
847.972	14754
848.108	14910
848.244	14868
848.379	14807
848.515	14701
848.65	14636
848.786	14632
848.921	14686
849.057	14754
849.192	14792
849.328	14705
849.463	14777
849.598	14674
849.734	14537
849.869	14507
850.004	14408
850.14	14431
850.275	14415
850.41	14377
850.545	14412
850.68	14438
850.815	14507
850.95	14442
851.085	14686
851.22	14530
851.355	14351
851.49	14408
851.625	14351
851.76	14427
851.895	14271
852.03	14298
852.165	14400
852.299	14431
852.434	14423
852.569	14438
852.703	14434
852.838	14568
852.973	14530
853.107	14564
853.242	14419
853.376	14389
853.511	14305
853.645	14305
853.78	14454
853.914	14404
854.048	14294
854.183	14294
854.317	14336
854.451	14404
854.585	14271
854.72	14290
854.854	14404
854.988	14259
855.122	14164
855.256	14138
855.39	14332
855.524	14408
855.658	14263
855.792	14305
855.926	14419
856.06	14339
856.194	14374
856.327	14374
856.461	14320
856.595	14309
856.729	14351
856.862	14450
856.996	14427
857.13	14457
857.263	14518
857.397	14454
857.53	14419
857.664	14339
857.797	14499
857.931	14526
858.064	14442
858.197	14381
858.331	14473
858.464	14286
858.597	14324
858.731	14278
858.864	14259
858.997	14324
859.13	14438
859.263	14381
859.396	14431
859.529	14317
859.662	14305
859.795	14294
859.928	14377
860.061	14454
860.194	14473
860.327	14396
860.46	14412
860.592	14423
860.725	14511
860.858	14423
860.99	14313
861.123	14256
861.256	14358
861.388	14309
861.521	15020
861.653	14138
861.786	14259
861.918	14244
862.05	14218
862.183	14263
862.315	14385
862.447	14442
862.58	14294
862.712	14001
862.844	14111
862.976	14130
863.108	14134
863.24	14442
863.372	14039
863.504	14130
863.636	14176
863.768	14130
863.9	14069
864.032	14039
864.164	14077
864.296	14191
864.428	14149
864.559	14115
864.691	14103
864.823	14062
864.954	14202
865.086	14088
865.217	14145
865.349	14050
865.48	14138
865.612	14081
865.743	14195
865.875	14130
866.006	14027
866.137	14115
866.269	14183
866.4	14138
866.531	14142
866.662	14027
866.793	13959
866.924	14050
867.055	14126
867.186	14138
867.317	14130
867.448	14024
867.579	14050
867.71	14088
867.841	13978
867.972	14111
868.103	14054
868.233	14126
868.364	14058
868.495	14088
868.625	14248
868.756	14404
868.886	14206
869.017	14377
869.147	14503
869.278	14511
869.408	14355
869.539	14339
869.669	14473
869.799	14336
869.929	14492
870.06	14454
870.19	14693
870.32	14667
870.45	14697
870.58	14678
870.71	14853
870.84	14902
870.97	14720
871.1	14705
871.23	14853
871.36	14899
871.489	14872
871.619	14853
871.749	14921
871.879	14986
872.008	15032
872.138	14948
872.267	14826
872.397	14883
872.526	14807
872.656	14773
872.785	14769
872.915	15024
873.044	14963
873.173	15013
873.303	14933
873.432	14895
873.561	15005
873.69	15017
873.819	14948
873.948	15036
874.077	14975
874.206	14937
874.335	14944
874.464	15222
874.593	15317
874.722	15351
874.851	15291
874.979	15351
875.108	15256
875.237	15245
875.365	15203
875.494	15306
875.623	15408
875.751	15302
875.88	15317
876.008	15408
876.136	15557
876.265	15857
876.393	15865
876.521	15724
876.65	15793
876.778	15701
876.906	15644
877.034	15682
877.162	15800
877.29	15610
877.418	15785
877.546	15705
877.674	15709
877.802	15732
877.93	15736
878.058	15732
878.185	15599
878.313	15755
878.441	15797
878.568	15591
878.696	15633
878.824	15816
878.951	15762
879.079	15850
879.206	16044
879.333	15937
879.461	15778
879.588	15835
879.715	15823
879.842	15964
879.97	15888
880.097	15591
880.224	15466
880.351	15564
880.478	15561
880.605	15629
880.732	15477
880.859	15713
880.986	15576
881.112	15591
881.239	15511
881.366	15401
881.493	15188
881.619	15150
881.746	15176
881.872	15161
881.999	15203
882.125	15154
882.252	15283
882.378	15222
882.505	15340
882.631	15165
882.757	14982
882.883	15055
883.01	14998
883.136	15001
883.262	14883
883.388	14914
883.514	15024
883.64	15097
883.766	15039
883.892	14845
884.018	14883
884.143	15047
884.269	15081
884.395	14792
884.52	14750
884.646	14750
884.772	14678
884.897	14674
885.023	14762
885.148	14857
885.274	14975
885.399	14895
885.524	14750
885.65	14705
885.775	14788
885.9	14746
886.025	14796
886.15	14861
886.275	14739
886.4	14560
886.525	14674
886.65	14743
886.775	14674
886.9	14868
887.025	14952
887.149	14762
887.274	14499
887.399	14518
887.523	14571
887.648	14564
887.773	14587
887.897	14560
888.021	14739
888.146	14575
888.27	14590
888.395	14667
888.519	14659
888.643	14587
888.767	14495
888.891	14434
889.015	14393
889.139	14351
889.263	14484
889.387	14423
889.511	14560
889.635	14552
889.759	14355
889.883	14480
890.006	14469
890.13	14560
890.254	14423
890.377	14374
890.501	14164
890.624	14187
890.748	14377
890.871	14237
890.995	14046
891.118	14001
891.241	14168
891.364	14065
891.488	14256
891.611	14088
891.734	14153
891.857	14275
891.98	14218
892.103	14195
892.226	14210
892.349	14134
892.471	13906
892.594	14077
892.717	14123
892.839	14111
892.962	14149
893.085	14225
893.207	14142
893.33	14077
893.452	13944
893.575	14103
893.697	14202
893.819	14294
893.941	14313
894.064	14294
894.186	14096
894.308	14119
894.43	14328
894.552	14324
894.674	14187
894.796	14077
894.918	14202
895.04	14161
895.161	14278
895.283	14221
895.405	14210
895.526	14123
895.648	14290
895.769	14259
895.891	14355
896.012	14385
896.134	14313
896.255	14396
896.376	14309
896.498	14298
896.619	14377
896.74	14358
896.861	14309
896.982	14610
897.103	14739
897.224	14629
897.345	14530
897.466	14446
897.587	14492
897.708	14762
897.828	14640
897.949	14480
898.07	14492
898.19	14526
898.311	14686
898.431	14583
898.552	14629
898.672	14689
898.792	14674
898.913	14686
899.033	14579
899.153	14571
899.273	14457
899.393	14476
899.513	14583
899.633	14495
899.753	14556
899.873	14537
899.993	14606
900.113	14476
900.232	14560
900.352	14431
900.472	14514
900.591	14309
900.711	14457
900.83	14278
900.95	14575
901.069	14480
901.189	14355
901.308	14100
901.427	14046
901.546	14073
901.665	14107
901.784	14077
901.904	13967
902.023	13917
902.141	13628
902.26	13700
902.379	13666
902.498	13571
902.617	13590
902.735	13681
902.854	13616
902.973	13518
903.091	13324
903.21	13324
903.328	13308
903.446	13274
903.565	13232
903.683	13236
903.801	13141
903.919	13171
904.038	13198
904.156	12977
904.274	13034
904.392	13019
904.51	12977
904.627	12989
904.745	13050
904.863	13095
904.981	12776
905.098	12623
905.216	12677
905.334	12707
905.451	12840
905.569	12715
905.686	12722
905.803	12738
905.921	12513
906.038	12616
906.155	12498
906.272	12391
906.389	12471
906.506	12369
906.623	12228
906.74	12334
906.857	12159
906.974	12243
907.091	12361
907.208	12429
907.324	12296
907.441	12182
907.557	12057
907.674	12064
907.79	11961
907.907	12011
908.023	12049
908.139	11992
908.256	11958
908.372	12011
908.488	11897
908.604	11836
908.72	11794
908.836	11817
908.952	11688
909.068	11748
909.184	11923
909.3	11805
909.415	11790
909.531	11745
909.647	11516
909.762	11589
909.878	11558
909.993	11566
910.108	11528
910.224	11478
910.339	11551
910.454	11452
910.57	11341
910.685	11353
910.8	11615
910.915	11592
911.03	11433
911.145	11239
911.259	11334
911.374	11242
911.489	11162
911.604	11045
911.718	10961
911.833	11045
911.947	10965
912.062	10839
912.176	11029
912.291	11003
912.405	10942
912.519	11147
912.633	11292
912.748	11079
912.862	10987
912.976	10881
913.09	10828
913.204	10809
913.318	10938
913.431	10995
913.545	11003
913.659	11014
913.772	10850
913.886	10786
914	10763
914.113	10854
914.226	10885
914.34	10881
914.453	10725
914.566	10828
914.68	10717
914.793	10672
914.906	10558
915.019	10504
915.132	10436
915.245	10459
915.358	10527
915.47	10558
915.583	10546
915.696	10550
915.809	10675
915.921	10599
916.034	10455
916.146	10466
916.259	10440
916.371	10626
916.483	10550
916.595	10424
916.708	10409
916.82	10409
916.932	10379
917.044	10363
917.156	10356
917.268	10337
917.38	10341
917.491	10379
917.603	10344
917.715	10367
917.826	10497
917.938	10268
918.049	10215
918.161	10333
918.272	10512
918.384	10500
918.495	10360
918.606	10207
918.717	10200
918.828	10306
918.939	10265
919.05	10154
919.161	10196
919.272	10032
919.383	10093
919.494	10299
919.604	10455
919.715	10207
919.826	10185
919.936	10257
920.047	10299
920.157	10310
920.267	10519
920.378	10299
920.488	10287
920.598	10428
920.708	10592
920.818	10363
920.928	10451
921.038	10634
921.148	10519
921.258	10402
921.368	10219
921.477	10025
921.587	10116
921.697	9987
921.806	10128
921.916	9953
922.025	9846
922.134	9755
922.244	9770
922.353	9869
922.462	9656
922.571	9614
922.68	9488
922.789	9462
922.898	9542
923.007	9466
923.116	9591
923.224	9469
923.333	9488
923.442	9363
923.55	9359
923.659	9424
923.767	9530
923.876	9313
923.984	9447
924.092	9283
924.201	9351
924.309	9374
924.417	9302
924.525	9344
924.633	9370
924.741	10112
924.849	9165
924.956	9268
925.064	9222
925.172	9047
925.279	9119
925.387	9135
925.494	9116
925.602	9306
925.709	9203
925.816	9066
925.924	9146
926.031	9192
926.138	9104
926.245	9218
926.352	9093
926.459	9112
926.566	9268
926.673	9089
926.779	9020
926.886	8925
926.993	8853
927.099	8872
927.206	8811
927.312	8845
927.419	8857
927.525	8853
927.631	8899
927.737	8796
927.843	8731
927.95	8659
928.056	8720
928.162	8746
928.267	8857
928.373	9431
928.479	8883
928.585	8606
928.69	8773
928.796	8800
928.901	8686
929.007	8560
929.112	8758
929.218	8632
929.323	8568
929.428	8522
929.533	8773
929.638	8522
929.743	8530
929.848	8590
929.953	8537
930.058	8465
930.163	8313
930.267	8339
930.372	8503
930.477	8343
930.581	8514
930.685	8404
930.79	8358
930.894	8305
930.998	8294
931.103	8404
931.207	8119
931.311	8035
931.415	7978
931.519	7765
931.623	7772
