Data from test_V78500241_246.txt Node
Date: Fri Mar 25 14:35:26 CST 2022
User: usil
Spectrometer: V785-0024
Trigger mode: 0
Integration Time (sec): 4.000000E-1
Scans to average: 1
Nonlinearity correction enabled: false
Boxcar width: 0
Storing dark spectrum: false
XAxis mode: Wavelengths
Number of Pixels in Spectrum: 1024
>>>>>Begin Spectral Data<<<<<
801.071	27568
801.214	27511
801.356	27340
801.499	27070
801.641	27020
801.783	26887
801.926	27096
802.068	26883
802.211	26781
802.353	26868
802.496	26575
802.638	26613
802.78	26587
802.923	26587
803.065	26469
803.208	26419
803.35	26336
803.492	26617
803.635	26537
803.777	26492
803.919	26419
804.061	26773
804.204	26716
804.346	26347
804.488	26431
804.63	26541
804.773	26267
804.915	26469
805.057	26549
805.199	26488
805.341	26629
805.483	26560
805.626	26488
805.768	26453
805.91	26545
806.052	26568
806.194	26412
806.336	26686
806.478	26724
806.62	26629
806.762	26617
806.904	26598
807.046	26918
807.188	26880
807.33	26933
807.472	26979
807.614	26971
807.756	26925
807.898	26701
808.04	26644
808.182	26834
808.324	26914
808.465	26804
808.607	26967
808.749	27275
808.891	27355
809.033	27408
809.174	27241
809.316	27256
809.458	27146
809.6	27066
809.741	27074
809.883	27218
810.025	27138
810.166	27192
810.308	27214
810.45	27142
810.591	27112
810.733	26971
810.875	26979
811.016	26906
811.158	26811
811.299	26952
811.441	26952
811.582	27013
811.724	26804
811.865	26788
812.007	26842
812.148	26785
812.29	26971
812.431	27055
812.573	27291
812.714	27389
812.855	27374
812.997	27359
813.138	27603
813.279	27416
813.421	27538
813.562	27363
813.703	27275
813.845	27077
813.986	26796
814.127	26621
814.268	26427
814.41	26358
814.551	26457
814.692	26590
814.833	26313
814.974	26530
815.115	26389
815.256	26320
815.397	26286
815.539	26351
815.68	26153
815.821	26225
815.962	26278
816.103	26088
816.244	26001
816.385	25902
816.526	25940
816.666	25750
816.807	25548
816.948	25769
817.089	25651
817.23	25563
817.371	25529
817.512	25575
817.653	25575
817.793	25552
817.934	25658
818.075	25548
818.216	25521
818.356	25430
818.497	25320
818.638	25308
818.778	25259
818.919	25320
819.06	25365
819.2	25255
819.341	25552
819.481	25510
819.622	25590
819.762	25883
819.903	25715
820.043	25803
820.184	25582
820.324	25575
820.465	25571
820.605	25499
820.746	25460
820.886	25411
821.026	25525
821.167	25476
821.307	25537
821.447	25430
821.588	25236
821.728	25217
821.868	25126
822.008	24833
822.149	24905
822.289	24825
822.429	24604
822.569	24540
822.709	24509
822.849	24327
822.99	24388
823.13	24414
823.27	24285
823.41	24079
823.55	24007
823.69	24140
823.83	24194
823.97	24091
824.11	24003
824.25	23843
824.389	24007
824.529	24026
824.669	23798
824.809	24144
824.949	23999
825.089	24034
825.228	23950
825.368	23676
825.508	23745
825.648	23779
825.787	23794
825.927	23745
826.067	23798
826.206	23737
826.346	23627
826.485	23813
826.625	23676
826.765	23748
826.904	23691
827.044	23410
827.183	23436
827.323	23402
827.462	23345
827.601	23292
827.741	23360
827.88	23387
828.02	23117
828.159	23296
828.298	23330
828.437	23410
828.577	23341
828.716	23402
828.855	23284
828.994	22995
829.134	23242
829.273	23128
829.412	23006
829.551	22938
829.69	23033
829.829	22949
829.968	23136
830.107	23159
830.246	23010
830.385	23094
830.524	22854
830.663	22866
830.802	22668
830.941	22733
831.08	22607
831.219	22752
831.357	22660
831.496	22767
831.635	22592
831.774	22493
831.913	22478
832.051	22459
832.19	22371
832.329	22390
832.467	22272
832.606	22219
832.744	22188
832.883	22249
833.022	22333
833.16	22276
833.299	22272
833.437	22276
833.576	22363
833.714	22192
833.852	22341
833.991	22371
834.129	22409
834.267	22276
834.406	22318
834.544	22341
834.682	22363
834.821	22200
834.959	22219
835.097	22105
835.235	22299
835.373	22303
835.511	22226
835.65	22055
835.788	22188
835.926	21979
836.064	21911
836.202	21869
836.34	22040
836.478	22135
836.615	22010
836.753	22128
836.891	22067
837.029	22063
837.167	22124
837.305	22109
837.443	21941
837.58	21892
837.718	21918
837.856	21922
837.993	21842
838.131	21960
838.269	21884
838.406	21770
838.544	21709
838.681	21591
838.819	21523
838.956	21447
839.094	21302
839.231	21340
839.369	21485
839.506	21804
839.643	21549
839.781	21340
839.918	21241
840.055	21336
840.193	21363
840.33	21226
840.467	21302
840.604	21329
840.742	21561
840.879	21135
841.016	21241
841.153	21173
841.29	21412
841.427	21279
841.564	21329
841.701	21317
841.838	21089
841.975	21184
842.112	21222
842.249	21028
842.385	20834
842.522	21165
842.659	20990
842.796	20975
842.933	20910
843.069	20906
843.206	20944
843.343	20986
843.479	20994
843.616	21058
843.752	20781
843.889	20731
844.025	21001
844.162	20678
844.298	20842
844.435	20727
844.571	20625
844.708	20701
844.844	20891
844.98	20823
845.117	20982
845.253	20693
845.389	20667
845.525	20724
845.661	20705
845.798	20796
845.934	20830
846.07	20735
846.206	20807
846.342	20906
846.478	20693
846.614	20385
846.75	20347
846.886	20256
847.022	20305
847.158	20271
847.294	20191
847.429	20180
847.565	20275
847.701	20469
847.837	19883
847.972	19845
848.108	19906
848.244	19875
848.379	20039
848.515	19731
848.65	19788
848.786	19731
848.921	19731
849.057	19864
849.192	19871
849.328	19807
849.463	19719
849.598	19696
849.734	19700
849.869	19624
850.004	19544
850.14	19510
850.275	19510
850.41	19400
850.545	19449
850.68	19491
850.815	19460
850.95	19419
851.085	19670
851.22	19620
851.355	19487
851.49	19396
851.625	19392
851.76	19369
851.895	19293
852.03	19346
852.165	19358
852.299	19632
852.434	19495
852.569	19411
852.703	19457
852.838	19419
852.973	19487
853.107	19556
853.242	19392
853.376	19438
853.511	19183
853.645	19202
853.78	19403
853.914	19255
854.048	19270
854.183	19270
854.317	19293
854.451	19510
854.585	19247
854.72	19274
854.854	19255
854.988	19209
855.122	19255
855.256	19137
855.39	19251
855.524	19350
855.658	19407
855.792	19441
855.926	19148
856.06	19270
856.194	19289
856.327	19285
856.461	19171
856.595	19293
856.729	19141
856.862	19320
856.996	19270
857.13	19282
857.263	19270
857.397	19297
857.53	19194
857.664	19217
857.797	19289
857.931	19441
858.064	19213
858.197	19400
858.331	19190
858.464	19228
858.597	19133
858.731	19114
858.864	19221
858.997	19152
859.13	19228
859.263	19282
859.396	19221
859.529	19156
859.662	19171
859.795	19137
859.928	19061
860.061	19343
860.194	19278
860.327	19251
860.46	19202
860.592	19320
860.725	19388
860.858	19289
860.99	19133
861.123	19107
861.256	19179
861.388	19053
861.521	19765
861.653	19038
861.786	19065
861.918	19152
862.05	19076
862.183	19114
862.315	19293
862.447	19282
862.58	19118
862.712	18996
862.844	18932
862.976	18958
863.108	19000
863.24	19293
863.372	18795
863.504	18913
863.636	18943
863.768	18913
863.9	18932
864.032	18738
864.164	18894
864.296	18871
864.428	18996
864.559	18935
864.691	18920
864.823	18943
864.954	18859
865.086	18848
865.217	18757
865.349	18726
865.48	18791
865.612	18814
865.743	19008
865.875	18863
866.006	18833
866.137	18810
866.269	18783
866.4	18871
866.531	18867
866.662	18711
866.793	18749
866.924	18753
867.055	18814
867.186	18783
867.317	18642
867.448	18616
867.579	18673
867.71	18635
867.841	18726
867.972	18741
868.103	18802
868.233	18810
868.364	18734
868.495	18871
868.625	18970
868.756	19042
868.886	18909
869.017	19091
869.147	19091
869.278	19095
869.408	18993
869.539	18928
869.669	19095
869.799	18962
869.929	19175
870.06	19034
870.19	19278
870.32	19365
870.45	19392
870.58	19495
870.71	19556
870.84	19510
870.97	19411
871.1	19304
871.23	19548
871.36	19510
871.489	19365
871.619	19487
871.749	19460
871.879	19666
872.008	19578
872.138	19552
872.267	19518
872.397	19525
872.526	19403
872.656	19388
872.785	19308
872.915	19548
873.044	19575
873.173	19613
873.303	19544
873.432	19689
873.561	19761
873.69	19715
873.819	19590
873.948	19704
874.077	19544
874.206	19613
874.335	19613
874.464	19704
874.593	19913
874.722	19833
874.851	19780
874.979	19955
875.108	19978
875.237	19837
875.365	19852
875.494	19883
875.623	19932
875.751	19894
875.88	19928
876.008	20024
876.136	20065
876.265	20267
876.393	20499
876.521	20393
876.65	20286
876.778	20259
876.906	20256
877.034	20233
877.162	20290
877.29	20161
877.418	20263
877.546	20278
877.674	20324
877.802	20282
877.93	20366
878.058	20221
878.185	20138
878.313	20343
878.441	20282
878.568	20176
878.696	20313
878.824	20305
878.951	20385
879.079	20465
879.206	20697
879.333	20552
879.461	20377
879.588	20507
879.715	20632
879.842	20708
879.97	20480
880.097	20130
880.224	20122
880.351	20240
880.478	20119
880.605	20069
880.732	20142
880.859	20305
880.986	20195
881.112	20199
881.239	19997
881.366	19868
881.493	19845
881.619	19757
881.746	19704
881.872	19822
881.999	19757
882.125	19681
882.252	19772
882.378	19811
882.505	19833
882.631	19734
882.757	19544
882.883	19533
883.01	19415
883.136	19514
883.262	19213
883.388	19415
883.514	19548
883.64	19563
883.766	19483
883.892	19384
884.018	19270
884.143	19460
884.269	19556
884.395	19232
884.52	19137
884.646	19160
884.772	19019
884.897	19198
885.023	19152
885.148	19247
885.274	19316
885.399	19209
885.524	19050
885.65	19274
885.775	19190
885.9	19084
886.025	19198
886.15	19160
886.275	19027
886.4	19034
886.525	19019
886.65	19061
886.775	19057
886.9	19274
887.025	19297
887.149	19095
887.274	19034
887.399	18817
887.523	18928
887.648	18856
887.773	18711
887.897	18970
888.021	18924
888.146	18776
888.27	18916
888.395	19023
888.519	18958
888.643	18856
888.767	18837
888.891	18817
889.015	18722
889.139	18639
889.263	18681
889.387	18738
889.511	18901
889.635	18814
889.759	18555
889.883	18551
890.006	18601
890.13	18757
890.254	18589
890.377	18502
890.501	18578
890.624	18464
890.748	18521
890.871	18296
890.995	18277
891.118	18296
891.241	18300
891.364	18235
891.488	18285
891.611	18292
891.734	18296
891.857	18422
891.98	18315
892.103	18308
892.226	18338
892.349	18220
892.471	18117
892.594	18251
892.717	18239
892.839	18224
892.962	18182
893.085	18281
893.207	18296
893.33	18053
893.452	18190
893.575	18319
893.697	18171
893.819	18388
893.941	18479
894.064	18300
894.186	18247
894.308	18186
894.43	18273
894.552	18353
894.674	18266
894.796	18190
894.918	18194
895.04	18292
895.161	18350
895.283	18216
895.405	18152
895.526	18220
895.648	18239
895.769	18327
895.891	18369
896.012	18365
896.134	18285
896.255	18270
896.376	18270
896.498	18251
896.619	18338
896.74	18308
896.861	18369
896.982	18646
897.103	18749
897.224	18700
897.345	18547
897.466	18593
897.587	18429
897.708	18661
897.828	18536
897.949	18433
898.07	18300
898.19	18490
898.311	18513
898.431	18429
898.552	18528
898.672	18597
898.792	18540
898.913	18513
899.033	18357
899.153	18296
899.273	18220
899.393	18391
899.513	18296
899.633	18327
899.753	18300
899.873	18277
899.993	18315
900.113	18155
900.232	18228
900.352	18247
900.472	18182
900.591	17969
900.711	18159
900.83	18041
900.95	18209
901.069	18281
901.189	18045
901.308	17779
901.427	17809
901.546	17798
901.665	17748
901.784	17786
901.904	17646
902.023	17505
902.141	17242
902.26	17330
902.379	17395
902.498	17197
902.617	17166
902.735	17307
902.854	17143
902.973	17174
903.091	16980
903.21	16934
903.328	16934
903.446	16774
903.565	16687
903.683	16736
903.801	16641
903.919	16630
904.038	16523
904.156	16527
904.274	16577
904.392	16497
904.51	16565
904.627	16516
904.745	16546
904.863	16554
904.981	16333
905.098	16150
905.216	16147
905.334	16276
905.451	16112
905.569	16116
905.686	16150
905.803	16074
905.921	15888
906.038	16051
906.155	15907
906.272	15778
906.389	15895
906.506	15778
906.623	15641
906.74	15698
906.857	15584
906.974	15553
907.091	15724
907.208	15774
907.324	15629
907.441	15561
907.557	15428
907.674	15466
907.79	15321
907.907	15504
908.023	15473
908.139	15507
908.256	15291
908.372	15340
908.488	15291
908.604	15028
908.72	15131
908.836	15123
908.952	15066
909.068	15131
909.184	15222
909.3	15089
909.415	15085
909.531	15127
909.647	14804
909.762	14804
909.878	14800
909.993	14861
910.108	14769
910.224	14849
910.339	14811
910.454	14693
910.57	14693
910.685	14530
910.8	14788
910.915	14765
911.03	14602
911.145	14488
911.259	14374
911.374	14442
911.489	14305
911.604	14450
911.718	14172
911.833	14145
911.947	14065
912.062	13944
912.176	14027
912.291	14157
912.405	14126
912.519	14324
912.633	14385
912.748	14187
912.862	14115
912.976	14012
913.09	13902
913.204	13921
913.318	14103
913.431	14039
913.545	13997
913.659	14077
913.772	14039
913.886	13822
914	13750
914.113	13894
914.226	13906
914.34	13845
914.453	13715
914.566	13818
914.68	13837
914.793	13761
914.906	13476
915.019	13472
915.132	13457
915.245	13430
915.358	13518
915.47	13552
915.583	13533
915.696	13529
915.809	13552
915.921	13636
916.034	13453
916.146	13411
916.259	13350
916.371	13506
916.483	13521
916.595	13304
916.708	13392
916.82	13365
916.932	13331
917.044	13312
917.156	13236
917.268	13202
917.38	13236
917.491	13164
917.603	13255
917.715	13217
917.826	13263
917.938	13137
918.049	13118
918.161	13103
918.272	13251
918.384	13259
918.495	13179
918.606	12973
918.717	12863
918.828	13042
918.939	12954
919.05	12882
919.161	12943
919.272	12783
919.383	12833
919.494	12985
919.604	13179
919.715	12947
919.826	12871
919.936	12951
920.047	12932
920.157	13012
920.267	13137
920.378	12970
920.488	12852
920.598	13122
920.708	13274
920.818	13217
920.928	13110
921.038	13171
921.148	13217
921.258	12897
921.368	12844
921.477	12684
921.587	12730
921.697	12483
921.806	12646
921.916	12426
922.025	12448
922.134	12311
922.244	12346
922.353	12327
922.462	12201
922.571	12194
922.68	12007
922.789	12053
922.898	11969
923.007	11984
923.116	11901
923.224	11961
923.333	12030
923.442	11783
923.55	11840
923.659	11828
923.767	11901
923.876	11771
923.984	11817
924.092	11737
924.201	11786
924.309	11805
924.417	11821
924.525	11802
924.633	11649
924.741	12650
924.849	11551
924.956	11707
925.064	11471
925.172	11505
925.279	11482
925.387	11585
925.494	11543
925.602	11680
925.709	11657
925.816	11444
925.924	11509
926.031	11558
926.138	11539
926.245	11558
926.352	11330
926.459	11524
926.566	11615
926.673	11368
926.779	11376
926.886	11265
926.993	11121
927.099	11220
927.206	11185
927.312	11048
927.419	11105
927.525	11105
927.631	11178
927.737	11060
927.843	10961
927.95	10816
928.056	10923
928.162	10991
928.267	11010
928.373	11554
928.479	11048
928.585	10797
928.69	10900
928.796	10949
928.901	10824
929.007	10702
929.112	10809
929.218	10828
929.323	10805
929.428	10664
929.533	10854
929.638	10672
929.743	10660
929.848	10748
929.953	10691
930.058	10618
930.163	10466
930.267	10470
930.372	10584
930.477	10382
930.581	10542
930.685	10478
930.79	10367
930.894	10386
930.998	10318
931.103	10421
931.207	10063
931.311	10044
931.415	9884
931.519	9759
931.623	9774
