Data from test_V78500241_2547.txt Node
Date: Fri Mar 25 14:51:26 CST 2022
User: usil
Spectrometer: V785-0024
Trigger mode: 0
Integration Time (sec): 4.000000E-1
Scans to average: 1
Nonlinearity correction enabled: false
Boxcar width: 0
Storing dark spectrum: false
XAxis mode: Wavelengths
Number of Pixels in Spectrum: 1024
>>>>>Begin Spectral Data<<<<<
801.071	22059
801.214	21846
801.356	21682
801.499	21686
801.641	21469
801.783	21378
801.926	21439
802.068	21329
802.211	21306
802.353	21207
802.496	21028
802.638	20948
802.78	20944
802.923	20853
803.065	20807
803.208	20746
803.35	20731
803.492	20781
803.635	20769
803.777	20758
803.919	20872
804.061	21173
804.204	20830
804.346	20826
804.488	20648
804.63	20785
804.773	20568
804.915	20575
805.057	20826
805.199	20754
805.341	20606
805.483	20777
805.626	20739
805.768	20693
805.91	20625
806.052	20765
806.194	20476
806.336	20811
806.478	20579
806.62	20594
806.762	20781
806.904	20975
807.046	21051
807.188	20990
807.33	21009
807.472	21062
807.614	20952
807.756	20830
807.898	20807
808.04	20659
808.182	20750
808.324	20845
808.465	20720
808.607	20975
808.749	21005
808.891	21081
809.033	21249
809.174	21119
809.316	21001
809.458	21039
809.6	21001
809.741	21066
809.883	21184
810.025	21142
810.166	21188
810.308	21230
810.45	21036
810.591	20998
810.733	20895
810.875	20754
811.016	20739
811.158	20708
811.299	20929
811.441	20906
811.582	20872
811.724	20864
811.865	20868
812.007	20708
812.148	20743
812.29	20769
812.431	20883
812.573	21207
812.714	21199
812.855	21233
812.997	21447
813.138	21481
813.279	21370
813.421	21283
813.562	21131
813.703	21112
813.845	20929
813.986	20606
814.127	20419
814.268	20370
814.41	20377
814.551	20320
814.692	20385
814.833	20347
814.974	20157
815.115	20309
815.256	20214
815.397	20187
815.539	20218
815.68	19970
815.821	20008
815.962	20046
816.103	20065
816.244	19890
816.385	19852
816.526	19727
816.666	19723
816.807	19559
816.948	19628
817.089	19643
817.23	19514
817.371	19502
817.512	19460
817.653	19563
817.793	19464
817.934	19362
818.075	19453
818.216	19499
818.356	19460
818.497	19270
818.638	19164
818.778	19152
818.919	19148
819.06	19187
819.2	19411
819.341	19255
819.481	19247
819.622	19483
819.762	19712
819.903	19689
820.043	19563
820.184	19525
820.324	19552
820.465	19441
820.605	19499
820.746	19403
820.886	19335
821.026	19400
821.167	19426
821.307	19472
821.447	19396
821.588	19244
821.728	19156
821.868	19080
822.008	18871
822.149	18894
822.289	18753
822.429	18498
822.569	18661
822.709	18547
822.849	18422
822.99	18418
823.13	18407
823.27	18289
823.41	18239
823.55	18136
823.69	18102
823.83	18270
823.97	18140
824.11	17912
824.25	17935
824.389	17954
824.529	17939
824.669	17942
824.809	18038
824.949	18026
825.089	18022
825.228	18053
825.368	17832
825.508	17771
825.648	17767
825.787	17794
825.927	17726
826.067	17779
826.206	17726
826.346	17752
826.485	17783
826.625	17741
826.765	17851
826.904	17752
827.044	17482
827.183	17535
827.323	17463
827.462	17520
827.601	17353
827.741	17395
827.88	17471
828.02	17379
828.159	17307
828.298	17376
828.437	17471
828.577	17402
828.716	17478
828.855	17433
828.994	17208
829.134	17181
829.273	17258
829.412	17174
829.551	17162
829.69	17102
829.829	17208
829.968	17280
830.107	17273
830.246	17231
830.385	17151
830.524	17178
830.663	16991
830.802	16957
830.941	16740
831.08	16847
831.219	16885
831.357	16938
831.496	17121
831.635	16778
831.774	16679
831.913	16793
832.051	16763
832.19	16653
832.329	16607
832.467	16481
832.606	16436
832.744	16584
832.883	16497
833.022	16424
833.16	16504
833.299	16561
833.437	16637
833.576	16504
833.714	16546
833.852	16664
833.991	16497
834.129	16672
834.267	16542
834.406	16599
834.544	16649
834.682	16500
834.821	16569
834.959	16721
835.097	16660
835.235	16691
835.373	16592
835.511	16660
835.65	16462
835.788	16508
835.926	16402
836.064	16211
836.202	16314
836.34	16558
836.478	16527
836.615	16466
836.753	16546
836.891	16531
837.029	16527
837.167	16466
837.305	16405
837.443	16462
837.58	16318
837.718	16409
837.856	16333
837.993	16272
838.131	16379
838.269	16272
838.406	16196
838.544	16291
838.681	16131
838.819	16147
838.956	15918
839.094	15945
839.231	15941
839.369	16021
839.506	16306
839.643	16177
839.781	15941
839.918	15876
840.055	15804
840.193	15846
840.33	15838
840.467	15926
840.604	15934
840.742	16276
840.879	15793
841.016	15865
841.153	15846
841.29	16021
841.427	15850
841.564	16021
841.701	15907
841.838	15865
841.975	15873
842.112	15797
842.249	15679
842.385	15717
842.522	15857
842.659	15622
842.796	15743
842.933	15720
843.069	15606
843.206	15606
843.343	15770
843.479	15717
843.616	15724
843.752	15534
843.889	15553
844.025	15633
844.162	15523
844.298	15523
844.435	15412
844.571	15553
844.708	15526
844.844	15690
844.98	15591
845.117	15534
845.253	15367
845.389	15340
845.525	15363
845.661	15325
845.798	15306
845.934	15252
846.07	15173
846.206	15363
846.342	15325
846.478	15260
846.614	15077
846.75	15055
846.886	15108
847.022	15173
847.158	15047
847.294	15062
847.429	15131
847.565	14994
847.701	15226
847.837	14849
847.972	14712
848.108	14868
848.244	14769
848.379	14689
848.515	14564
848.65	14689
848.786	14579
848.921	14659
849.057	14678
849.192	14807
849.328	14621
849.463	14701
849.598	14610
849.734	14499
849.869	14473
850.004	14377
850.14	14461
850.275	14473
850.41	14278
850.545	14351
850.68	14408
850.815	14450
850.95	14473
851.085	14507
851.22	14480
851.355	14499
851.49	14427
851.625	14355
851.76	14419
851.895	14351
852.03	14210
852.165	14446
852.299	14408
852.434	14431
852.569	14438
852.703	14366
852.838	14484
852.973	14537
853.107	14499
853.242	14332
853.376	14347
853.511	14168
853.645	14210
853.78	14423
853.914	14286
854.048	14290
854.183	14206
854.317	14278
854.451	14446
854.585	14282
854.72	14153
854.854	14408
854.988	14164
855.122	14191
855.256	14130
855.39	14286
855.524	14358
855.658	14263
855.792	14374
855.926	14214
856.06	14259
856.194	14442
856.327	14286
856.461	14252
856.595	14176
856.729	14286
856.862	14339
856.996	14275
857.13	14423
857.263	14396
857.397	14419
857.53	14248
857.664	14347
857.797	14370
857.931	14396
858.064	14298
858.197	14469
858.331	14301
858.464	14286
858.597	14100
858.731	14305
858.864	14210
858.997	14259
859.13	14305
859.263	14313
859.396	14313
859.529	14221
859.662	14233
859.795	14187
859.928	14320
860.061	14393
860.194	14465
860.327	14187
860.46	14252
860.592	14389
860.725	14336
860.858	14370
860.99	14229
861.123	14142
861.256	14206
861.388	14298
861.521	14762
861.653	14161
861.786	14054
861.918	14142
862.05	14149
862.183	14317
862.315	14225
862.447	14290
862.58	14324
862.712	13993
862.844	14020
862.976	14119
863.108	14096
863.24	14533
863.372	14005
863.504	14027
863.636	13967
863.768	14149
863.9	14065
864.032	13906
864.164	14005
864.296	14248
864.428	14176
864.559	14161
864.691	14077
864.823	14016
864.954	14054
865.086	14081
865.217	14046
865.349	13955
865.48	13993
865.612	14100
865.743	14134
865.875	13989
866.006	14001
866.137	14050
866.269	14123
866.4	14035
866.531	13978
866.662	13947
866.793	13978
866.924	13925
867.055	14123
867.186	14062
867.317	13974
867.448	13951
867.579	13978
867.71	13932
867.841	14020
867.972	13879
868.103	14088
868.233	14039
868.364	14084
868.495	14142
868.625	14248
868.756	14374
868.886	14164
869.017	14324
869.147	14339
869.278	14457
869.408	14290
869.539	14309
869.669	14366
869.799	14317
869.929	14446
870.06	14347
870.19	14663
870.32	14655
870.45	14640
870.58	14617
870.71	14743
870.84	14746
870.97	14621
871.1	14625
871.23	14914
871.36	14887
871.489	14788
871.619	14819
871.749	14952
871.879	14952
872.008	15081
872.138	14967
872.267	14868
872.397	14746
872.526	14667
872.656	14693
872.785	14838
872.915	14952
873.044	14872
873.173	14914
873.303	14921
873.432	15005
873.561	14963
873.69	15001
873.819	14944
873.948	14948
874.077	14857
874.206	14883
874.335	15005
874.464	15058
874.593	15161
874.722	15173
874.851	15313
874.979	15260
875.108	15344
875.237	15260
875.365	15142
875.494	15176
875.623	15340
875.751	15195
875.88	15397
876.008	15389
876.136	15507
876.265	15694
876.393	15827
876.521	15720
876.65	15743
876.778	15637
876.906	15648
877.034	15564
877.162	15633
877.29	15587
877.418	15766
877.546	15679
877.674	15724
877.802	15686
877.93	15599
878.058	15584
878.185	15549
878.313	15660
878.441	15606
878.568	15526
878.696	15576
878.824	15713
878.951	15736
879.079	15812
879.206	15953
879.333	15770
879.461	15671
879.588	15812
879.715	15781
879.842	15991
879.97	15698
880.097	15542
880.224	15485
880.351	15545
880.478	15641
880.605	15545
880.732	15454
880.859	15812
880.986	15561
881.112	15599
881.239	15378
881.366	15279
881.493	15180
881.619	15157
881.746	15119
881.872	15161
881.999	15100
882.125	15237
882.252	15150
882.378	15188
882.505	15325
882.631	15131
882.757	14982
882.883	15169
883.01	15009
883.136	14967
883.262	14845
883.388	14857
883.514	15051
883.64	15097
883.766	14979
883.892	14762
884.018	14975
884.143	14891
884.269	14994
884.395	14716
884.52	14682
884.646	14674
884.772	14697
884.897	14602
885.023	14724
885.148	14689
885.274	14758
885.399	14750
885.524	14712
885.65	14648
885.775	14849
885.9	14667
886.025	14804
886.15	14823
886.275	14613
886.4	14564
886.525	14625
886.65	14617
886.775	14678
886.9	14849
887.025	14937
887.149	14758
887.274	14511
887.399	14518
887.523	14465
887.648	14480
887.773	14408
887.897	14511
888.021	14537
888.146	14522
888.27	14640
888.395	14762
888.519	14583
888.643	14526
888.767	14556
888.891	14415
889.015	14423
889.139	14381
889.263	14400
889.387	14549
889.511	14587
889.635	14514
889.759	14438
889.883	14377
890.006	14415
890.13	14473
890.254	14313
890.377	14271
890.501	14119
890.624	14271
890.748	14233
890.871	14172
890.995	14001
891.118	14020
891.241	14084
891.364	14012
891.488	14244
891.611	14001
891.734	14103
891.857	14081
891.98	14081
892.103	14206
892.226	14134
892.349	14031
892.471	13932
892.594	14092
892.717	14145
892.839	14043
892.962	14111
893.085	14176
893.207	14027
893.33	13837
893.452	14016
893.575	14111
893.697	14031
893.819	14237
893.941	14313
894.064	14256
894.186	14088
894.308	14073
894.43	14145
894.552	14286
894.674	14149
894.796	14088
894.918	14168
895.04	14081
895.161	14263
895.283	14195
895.405	14180
895.526	14164
895.648	14195
895.769	14237
895.891	14271
896.012	14290
896.134	14275
896.255	14294
896.376	14214
896.498	14168
896.619	14225
896.74	14187
896.861	14282
896.982	14610
897.103	14758
897.224	14499
897.345	14480
897.466	14480
897.587	14537
897.708	14716
897.828	14541
897.949	14480
898.07	14404
898.19	14499
898.311	14655
898.431	14552
898.552	14568
898.672	14610
898.792	14617
898.913	14617
899.033	14598
899.153	14396
899.273	14370
899.393	14423
899.513	14530
899.633	14423
899.753	14556
899.873	14419
899.993	14476
900.113	14415
900.232	14446
900.352	14511
900.472	14358
900.591	14221
900.711	14362
900.83	14267
900.95	14461
901.069	14434
901.189	14332
901.308	13997
901.427	13898
901.546	14088
901.665	14123
901.784	14020
901.904	13940
902.023	13791
902.141	13636
902.26	13533
902.379	13609
902.498	13529
902.617	13514
902.735	13613
902.854	13677
902.973	13434
903.091	13266
903.21	13327
903.328	13373
903.446	13133
903.565	13183
903.683	13141
903.801	13057
903.919	13160
904.038	13103
904.156	12886
904.274	13053
904.392	12871
904.51	12954
904.627	12939
904.745	13000
904.863	13050
904.981	12681
905.098	12726
905.216	12662
905.334	12654
905.451	12620
905.569	12665
905.686	12627
905.803	12669
905.921	12475
906.038	12616
906.155	12467
906.272	12410
906.389	12418
906.506	12281
906.623	12220
906.74	12213
906.857	12125
906.974	12133
907.091	12304
907.208	12414
907.324	12243
907.441	12125
907.557	12026
907.674	12068
907.79	11866
907.907	11904
908.023	11954
908.139	12030
908.256	11882
908.372	11939
908.488	11866
908.604	11764
908.72	11733
908.836	11668
908.952	11714
909.068	11703
909.184	11847
909.3	11760
909.415	11961
909.531	11798
909.647	11512
909.762	11547
909.878	11467
909.993	11516
910.108	11558
910.224	11539
910.339	11501
910.454	11501
910.57	11311
910.685	11311
910.8	11528
910.915	11436
911.03	11368
911.145	11204
911.259	11246
911.374	11280
911.489	11162
911.604	11128
911.718	10949
911.833	11022
911.947	10824
912.062	10755
912.176	10984
912.291	10919
912.405	10987
912.519	11117
912.633	11204
912.748	10984
912.862	10999
912.976	10809
913.09	10706
913.204	10816
913.318	10839
913.431	11006
913.545	10919
913.659	10999
913.772	10839
913.886	10778
914	10710
914.113	10831
914.226	10809
914.34	10824
914.453	10626
914.566	10725
914.68	10744
914.793	10717
914.906	10478
915.019	10428
915.132	10379
915.245	10447
915.358	10489
915.47	10535
915.583	10481
915.696	10527
915.809	10626
915.921	10675
916.034	10478
916.146	10436
916.259	10402
916.371	10485
916.483	10504
916.595	10303
916.708	10405
916.82	10390
916.932	10421
917.044	10291
917.156	10382
917.268	10268
917.38	10303
917.491	10188
917.603	10363
917.715	10379
917.826	10485
917.938	10280
918.049	10185
918.161	10394
918.272	10443
918.384	10402
918.495	10310
918.606	10162
918.717	10082
918.828	10204
918.939	10158
919.05	10048
919.161	10181
919.272	9964
919.383	10090
919.494	10253
919.604	10352
919.715	10143
919.826	10166
919.936	10135
920.047	10219
920.157	10276
920.267	10382
920.378	10276
920.488	10219
920.598	10394
920.708	10523
920.818	10318
920.928	10363
921.038	10592
921.148	10573
921.258	10257
921.368	10154
921.477	10200
921.587	10021
921.697	9934
921.806	10120
921.916	9937
922.025	9804
922.134	9732
922.244	9778
922.353	9785
922.462	9584
922.571	9568
922.68	9523
922.789	9420
922.898	9481
923.007	9378
923.116	9469
923.224	9439
923.333	9458
923.442	9382
923.55	9321
923.659	9435
923.767	9424
923.876	9355
923.984	9412
924.092	9241
924.201	9359
924.309	9367
924.417	9272
924.525	9332
924.633	9302
924.741	10234
924.849	9131
924.956	9245
925.064	9123
925.172	9070
925.279	9013
925.387	9150
925.494	9085
925.602	9272
925.709	9184
925.816	9039
925.924	9161
926.031	9131
926.138	9116
926.245	9184
926.352	9017
926.459	9157
926.566	9195
926.673	9104
926.779	8982
926.886	9020
926.993	8853
927.099	8876
927.206	8762
927.312	8807
927.419	8887
927.525	8941
927.631	8853
927.737	8705
927.843	8766
927.95	8648
928.056	8686
928.162	8762
928.267	8788
928.373	9294
928.479	8838
928.585	8632
928.69	8792
928.796	8735
928.901	8629
929.007	8503
929.112	8625
929.218	8686
929.323	8583
929.428	8507
929.533	8701
929.638	8442
929.743	8503
929.848	8511
929.953	8526
930.058	8488
930.163	8313
930.267	8358
930.372	8526
930.477	8301
930.581	8518
930.685	8400
930.79	8271
930.894	8233
930.998	8225
931.103	8374
931.207	8084
931.311	8008
931.415	8027
931.519	7765
931.623	7772
