Data from test_V78500241_1020.txt Node
Date: Fri Mar 25 14:40:49 CST 2022
User: usil
Spectrometer: V785-0024
Trigger mode: 0
Integration Time (sec): 4.000000E-1
Scans to average: 1
Nonlinearity correction enabled: false
Boxcar width: 0
Storing dark spectrum: false
XAxis mode: Wavelengths
Number of Pixels in Spectrum: 1024
>>>>>Begin Spectral Data<<<<<
801.071	23025
801.214	22934
801.356	22809
801.499	22592
801.641	22424
801.783	22367
801.926	22440
802.068	22325
802.211	22303
802.353	22131
802.496	21850
802.638	21930
802.78	21770
802.923	21793
803.065	21663
803.208	21732
803.35	21861
803.492	21842
803.635	21907
803.777	21736
803.919	21865
804.061	22162
804.204	21762
804.346	21667
804.488	21701
804.63	21671
804.773	21709
804.915	21549
805.057	21679
805.199	21675
805.341	21728
805.483	21671
805.626	21751
805.768	21614
805.91	21656
806.052	21720
806.194	21557
806.336	21903
806.478	21694
806.62	21671
806.762	21926
806.904	21846
807.046	22116
807.188	22101
807.33	22120
807.472	22200
807.614	22059
807.756	22181
807.898	22120
808.04	22036
808.182	22230
808.324	22272
808.465	22440
808.607	22611
808.749	22858
808.891	23060
809.033	23170
809.174	23003
809.316	22858
809.458	22710
809.6	22489
809.741	22493
809.883	22344
810.025	22596
810.166	22447
810.308	22337
810.45	22284
810.591	22318
810.733	22048
810.875	22013
811.016	21903
811.158	21759
811.299	22010
811.441	22070
811.582	22082
811.724	21861
811.865	21686
812.007	21800
812.148	21945
812.29	21884
812.431	22124
812.573	22280
812.714	22249
812.855	22337
812.997	22516
813.138	22599
813.279	22500
813.421	22371
813.562	22375
813.703	22139
813.845	22010
813.986	21831
814.127	21568
814.268	21454
814.41	21469
814.551	21424
814.692	21439
814.833	21431
814.974	21283
815.115	21348
815.256	21317
815.397	21245
815.539	21348
815.68	21131
815.821	21142
815.962	21108
816.103	21062
816.244	20994
816.385	20887
816.526	20906
816.666	20651
816.807	20613
816.948	20590
817.089	20727
817.23	20606
817.371	20560
817.512	20617
817.653	20629
817.793	20438
817.934	20663
818.075	20473
818.216	20590
818.356	20461
818.497	20332
818.638	20229
818.778	20206
818.919	20218
819.06	20362
819.2	20347
819.341	20381
819.481	20370
819.622	20625
819.762	20815
819.903	20758
820.043	20495
820.184	20465
820.324	20450
820.465	20556
820.605	20526
820.746	20518
820.886	20343
821.026	20549
821.167	20549
821.307	20602
821.447	20473
821.588	20408
821.728	20130
821.868	20100
822.008	19898
822.149	19947
822.289	19974
822.429	19628
822.569	19590
822.709	19700
822.849	19453
822.99	19400
823.13	19251
823.27	19396
823.41	19308
823.55	19145
823.69	19270
823.83	19110
823.97	19225
824.11	18943
824.25	18928
824.389	18951
824.529	19126
824.669	18996
824.809	19118
824.949	19038
825.089	19019
825.228	19027
825.368	18905
825.508	18776
825.648	18894
825.787	18719
825.927	18817
826.067	18776
826.206	18715
826.346	18795
826.485	18871
826.625	18711
826.765	18909
826.904	18791
827.044	18631
827.183	18498
827.323	18376
827.462	18433
827.601	18525
827.741	18429
827.88	18429
828.02	18311
828.159	18464
828.298	18464
828.437	18608
828.577	18452
828.716	18528
828.855	18315
828.994	18216
829.134	18235
829.273	18262
829.412	18194
829.551	18178
829.69	18273
829.829	18239
829.968	18270
830.107	18178
830.246	18186
830.385	18251
830.524	18144
830.663	18057
830.802	17931
830.941	17691
831.08	17828
831.219	17874
831.357	17859
831.496	18030
831.635	17779
831.774	17813
831.913	17699
832.051	17661
832.19	17585
832.329	17627
832.467	17505
832.606	17547
832.744	17554
832.883	17532
833.022	17448
833.16	17535
833.299	17573
833.437	17509
833.576	17558
833.714	17611
833.852	17707
833.991	17573
834.129	17703
834.267	17710
834.406	17570
834.544	17707
834.682	17638
834.821	17668
834.959	17741
835.097	17554
835.235	17630
835.373	17642
835.511	17547
835.65	17471
835.788	17463
835.926	17288
836.064	17307
836.202	17326
836.34	17482
836.478	17539
836.615	17395
836.753	17532
836.891	17604
837.029	17345
837.167	17509
837.305	17436
837.443	17250
837.58	17277
837.718	17246
837.856	17402
837.993	17246
838.131	17288
838.269	17231
838.406	17216
838.544	17178
838.681	17060
838.819	17056
838.956	16923
839.094	16904
839.231	16869
839.369	17006
839.506	17204
839.643	17140
839.781	16877
839.918	16706
840.055	16839
840.193	16854
840.33	16843
840.467	16771
840.604	16881
840.742	17162
840.879	16687
841.016	16755
841.153	16668
841.29	16889
841.427	16877
841.564	16828
841.701	16809
841.838	16847
841.975	16744
842.112	16824
842.249	16599
842.385	16569
842.522	16843
842.659	16615
842.796	16634
842.933	16717
843.069	16607
843.206	16603
843.343	16733
843.479	16599
843.616	16618
843.752	16428
843.889	16337
844.025	16424
844.162	16394
844.298	16440
844.435	16382
844.571	16367
844.708	16417
844.844	16497
844.98	16599
845.117	16561
845.253	16432
845.389	16421
845.525	16672
845.661	16729
845.798	17086
845.934	17258
846.07	17360
846.206	17353
846.342	17239
846.478	16877
846.614	16394
846.75	16226
846.886	16086
847.022	16074
847.158	16063
847.294	16067
847.429	15937
847.565	15915
847.701	16143
847.837	15751
847.972	15629
848.108	15709
848.244	15789
848.379	15656
848.515	15511
848.65	15515
848.786	15576
848.921	15629
849.057	15652
849.192	15667
849.328	15599
849.463	15526
849.598	15485
849.734	15397
849.869	15382
850.004	15306
850.14	15306
850.275	15355
850.41	15291
850.545	15302
850.68	15237
850.815	15332
850.95	15264
851.085	15447
851.22	15443
851.355	15294
851.49	15302
851.625	15351
851.76	15203
851.895	15184
852.03	15218
852.165	15317
852.299	15313
852.434	15462
852.569	15245
852.703	15268
852.838	15401
852.973	15481
853.107	15393
853.242	15245
853.376	15108
853.511	15032
853.645	15028
853.78	15317
853.914	15173
854.048	15112
854.183	15051
854.317	15249
854.451	15344
854.585	15199
854.72	15161
854.854	15218
854.988	15081
855.122	15184
855.256	14990
855.39	15085
855.524	15233
855.658	15252
855.792	15173
855.926	15211
856.06	15157
856.194	15218
856.327	15127
856.461	15112
856.595	15180
856.729	15100
856.862	15226
856.996	15116
857.13	15195
857.263	15252
857.397	15367
857.53	15138
857.664	15173
857.797	15203
857.931	15256
858.064	15180
858.197	15268
858.331	15093
858.464	15070
858.597	15070
858.731	15024
858.864	15176
858.997	15165
859.13	15074
859.263	15146
859.396	15214
859.529	15074
859.662	15108
859.795	15195
859.928	15131
860.061	15283
860.194	15298
860.327	15047
860.46	15089
860.592	15211
860.725	15340
860.858	15184
860.99	15184
861.123	15074
861.256	15100
861.388	15211
861.521	15770
861.653	14979
861.786	14910
861.918	14990
862.05	15104
862.183	15131
862.315	15097
862.447	15074
862.58	15047
862.712	14948
862.844	14895
862.976	14971
863.108	15001
863.24	15272
863.372	14849
863.504	14883
863.636	14853
863.768	14967
863.9	14914
864.032	14773
864.164	14777
864.296	14899
864.428	14941
864.559	14960
864.691	14990
864.823	14838
864.954	14956
865.086	14902
865.217	14788
865.349	14815
865.48	14804
865.612	14906
865.743	15005
865.875	14853
866.006	14777
866.137	14956
866.269	14823
866.4	14952
866.531	14834
866.662	14807
866.793	14807
866.924	14765
867.055	14876
867.186	14906
867.317	14872
867.448	14804
867.579	14845
867.71	14796
867.841	14781
867.972	14842
868.103	14815
868.233	14906
868.364	14891
868.495	14925
868.625	15074
868.756	15230
868.886	14944
869.017	15047
869.147	15123
869.278	15203
869.408	15066
869.539	15108
869.669	15127
869.799	15161
869.929	15264
870.06	15173
870.19	15553
870.32	15435
870.45	15450
870.58	15424
870.71	15599
870.84	15675
870.97	15500
871.1	15401
871.23	15667
871.36	15686
871.489	15614
871.619	15618
871.749	15679
871.879	15808
872.008	15743
872.138	15720
872.267	15671
872.397	15504
872.526	15591
872.656	15492
872.785	15625
872.915	15728
873.044	15827
873.173	15724
873.303	15747
873.432	15785
873.561	15960
873.69	15736
873.819	15789
873.948	15941
874.077	15770
874.206	15751
874.335	15823
874.464	15873
874.593	16074
874.722	16040
874.851	16063
874.979	16135
875.108	16093
875.237	16074
875.365	15994
875.494	16128
875.623	16082
875.751	16082
875.88	16143
876.008	16207
876.136	16310
876.265	16573
876.393	16634
876.521	16485
876.65	16508
876.778	16554
876.906	16440
877.034	16440
877.162	16402
877.29	16466
877.418	16550
877.546	16516
877.674	16481
877.802	16546
877.93	16485
878.058	16459
878.185	16432
878.313	16474
878.441	16577
878.568	16485
878.696	16592
878.824	16778
878.951	16828
879.079	16839
879.206	17155
879.333	17041
879.461	17102
879.588	17197
879.715	17265
879.842	17292
879.97	16930
880.097	16698
880.224	16660
880.351	16615
880.478	16558
880.605	16512
880.732	16508
880.859	16675
880.986	16424
881.112	16497
881.239	16371
881.366	16166
881.493	16226
881.619	16196
881.746	16101
881.872	16154
881.999	16162
882.125	15998
882.252	16238
882.378	16215
882.505	16249
882.631	16124
882.757	16010
882.883	16032
883.01	15876
883.136	15899
883.262	15789
883.388	15698
883.514	15945
883.64	15949
883.766	15869
883.892	15709
884.018	15759
884.143	15968
884.269	16021
884.395	15739
884.52	15694
884.646	15656
884.772	15599
884.897	15576
885.023	15671
885.148	15682
885.274	15819
885.399	15644
885.524	15603
885.65	15580
885.775	15622
885.9	15694
886.025	15736
886.15	15739
886.275	15603
886.4	15496
886.525	15450
886.65	15519
886.775	15450
886.9	15568
887.025	15747
887.149	15542
887.274	15443
887.399	15313
887.523	15272
887.648	15317
887.773	15325
887.897	15363
888.021	15466
888.146	15351
888.27	15572
888.395	15614
888.519	15393
888.643	15435
888.767	15477
888.891	15245
889.015	15260
889.139	15283
889.263	15245
889.387	15325
889.511	15439
889.635	15287
889.759	15192
889.883	15176
890.006	15146
890.13	15386
890.254	15123
890.377	15195
890.501	15020
890.624	15032
890.748	15089
890.871	14899
890.995	14857
891.118	14785
891.241	14773
891.364	14910
891.488	14975
891.611	14864
891.734	14895
891.857	14944
891.98	14906
892.103	14899
892.226	14842
892.349	14788
892.471	14735
892.594	14819
892.717	14773
892.839	14800
892.962	14868
893.085	14792
893.207	14823
893.33	14777
893.452	14697
893.575	14876
893.697	14838
893.819	14982
893.941	15100
894.064	14941
894.186	14815
894.308	14762
894.43	15017
894.552	14982
894.674	15043
894.796	14777
894.918	14906
895.04	14838
895.161	14941
895.283	15032
895.405	14792
895.526	14883
895.648	15001
895.769	15013
895.891	14963
896.012	15005
896.134	14994
896.255	14994
896.376	14979
896.498	14998
896.619	14921
896.74	14868
896.861	15119
896.982	15306
897.103	15439
897.224	15306
897.345	15214
897.466	15237
897.587	15294
897.708	15401
897.828	15283
897.949	15127
898.07	15104
898.19	15245
898.311	15374
898.431	15264
898.552	15363
898.672	15370
898.792	15488
898.913	15382
899.033	15249
899.153	15184
899.273	15131
899.393	15169
899.513	15161
899.633	15123
899.753	15233
899.873	15154
899.993	15180
900.113	15184
900.232	15184
900.352	15173
900.472	15051
900.591	14979
900.711	15051
900.83	15051
900.95	15104
901.069	15142
901.189	14944
901.308	14838
901.427	14651
901.546	14606
901.665	14762
901.784	14773
901.904	14678
902.023	14499
902.141	14412
902.26	14290
902.379	14381
902.498	14202
902.617	14161
902.735	14252
902.854	14237
902.973	14115
903.091	13864
903.21	13967
903.328	13967
903.446	13925
903.565	13928
903.683	13803
903.801	13734
903.919	13879
904.038	13780
904.156	13704
904.274	13708
904.392	13540
904.51	13449
904.627	13601
904.745	13708
904.863	13537
904.981	13411
905.098	13225
905.216	13312
905.334	13343
905.451	13346
905.569	13213
905.686	13285
905.803	13225
905.921	13103
906.038	13209
906.155	13061
906.272	12985
906.389	12954
906.506	12909
906.623	12890
906.74	12859
906.857	12806
906.974	12787
907.091	13023
907.208	13034
907.324	12798
907.441	12764
907.557	12608
907.674	12662
907.79	12525
907.907	12544
908.023	12639
908.139	12544
908.256	12612
908.372	12627
908.488	12350
908.604	12391
908.72	12384
908.836	12327
908.952	12369
909.068	12365
909.184	12422
909.3	12380
909.415	12407
909.531	12300
909.647	12186
909.762	12121
909.878	12095
909.993	12110
910.108	12064
910.224	12114
910.339	12159
910.454	11859
910.57	11961
910.685	11889
910.8	12209
910.915	12102
911.03	11965
911.145	11904
911.259	11745
911.374	11847
911.489	11695
911.604	11653
911.718	11566
911.833	11672
911.947	11604
912.062	11360
912.176	11554
912.291	11562
912.405	11543
912.519	11733
912.633	11790
912.748	11668
912.862	11558
912.976	11440
913.09	11284
913.204	11337
913.318	11368
913.431	11516
913.545	11543
913.659	11554
913.772	11318
913.886	11356
914	11223
914.113	11387
914.226	11376
914.34	11383
914.453	11216
914.566	11326
914.68	11254
914.793	11292
914.906	11045
915.019	11041
915.132	10942
915.245	10999
915.358	11014
915.47	10999
915.583	11029
915.696	11143
915.809	11239
915.921	11155
916.034	11003
916.146	10961
916.259	11018
916.371	11067
916.483	11003
916.595	10957
916.708	10972
916.82	10984
916.932	10991
917.044	10976
917.156	10900
917.268	10881
917.38	10927
917.491	10809
917.603	10835
917.715	10915
917.826	10953
917.938	10835
918.049	10782
918.161	10858
918.272	10942
918.384	10930
918.495	10858
918.606	10675
918.717	10618
918.828	10668
918.939	10725
919.05	10611
919.161	10721
919.272	10523
919.383	10596
919.494	10736
919.604	10869
919.715	10622
919.826	10611
919.936	10714
920.047	10778
920.157	10706
920.267	10885
920.378	10740
920.488	10729
920.598	10850
920.708	11090
920.818	10915
920.928	10991
921.038	11033
921.148	11048
921.258	10755
921.368	10641
921.477	10516
921.587	10542
921.697	10432
921.806	10558
921.916	10478
922.025	10215
922.134	10333
922.244	10154
922.353	10344
922.462	10181
922.571	10010
922.68	9975
922.789	9960
922.898	9983
923.007	9892
923.116	10051
923.224	9937
923.333	9987
923.442	9842
923.55	9778
923.659	9793
923.767	9949
923.876	9850
923.984	9880
924.092	9762
924.201	9766
924.309	9759
924.417	9732
924.525	9705
924.633	9789
924.741	10641
924.849	9561
924.956	9709
925.064	9618
925.172	9473
925.279	9534
925.387	9568
925.494	9549
925.602	9717
925.709	9633
925.816	9496
925.924	9580
926.031	9698
926.138	9515
926.245	9500
926.352	9485
926.459	9580
926.566	9648
926.673	9523
926.779	9469
926.886	9393
926.993	9321
927.099	9283
927.206	9264
927.312	9222
927.419	9348
927.525	9264
927.631	9291
927.737	9089
927.843	9116
927.95	9036
928.056	9131
928.162	9161
928.267	9188
928.373	9770
928.479	9279
928.585	9024
928.69	9192
928.796	9176
928.901	9039
929.007	8925
929.112	9100
929.218	9032
929.323	8906
929.428	8975
929.533	9093
929.638	8899
929.743	8937
929.848	9047
929.953	8910
930.058	8899
930.163	8758
930.267	8712
930.372	8796
930.477	8701
930.581	8933
930.685	8804
930.79	8610
930.894	8648
930.998	8663
931.103	8788
931.207	8442
931.311	8408
931.415	8290
931.519	8119
931.623	8088
