Data from test_V78500241_1162.txt Node
Date: Fri Mar 25 14:41:48 CST 2022
User: usil
Spectrometer: V785-0024
Trigger mode: 0
Integration Time (sec): 4.000000E-1
Scans to average: 1
Nonlinearity correction enabled: false
Boxcar width: 0
Storing dark spectrum: false
XAxis mode: Wavelengths
Number of Pixels in Spectrum: 1024
>>>>>Begin Spectral Data<<<<<
801.071	22405
801.214	22455
801.356	22173
801.499	22017
801.641	21960
801.783	21808
801.926	21918
802.068	21759
802.211	21667
802.353	21618
802.496	21450
802.638	21454
802.78	21268
802.923	21264
803.065	21184
803.208	21176
803.35	21150
803.492	21207
803.635	21344
803.777	21169
803.919	21264
804.061	21488
804.204	21192
804.346	21173
804.488	21108
804.63	21032
804.773	21043
804.915	21100
805.057	21298
805.199	21043
805.341	21230
805.483	21222
805.626	21131
805.768	21066
805.91	21051
806.052	21230
806.194	20971
806.336	21279
806.478	21096
806.62	21096
806.762	21218
806.904	21336
807.046	21488
807.188	21599
807.33	21519
807.472	21542
807.614	21374
807.756	21454
807.898	21359
808.04	21260
808.182	21359
808.324	21363
808.465	21321
808.607	21553
808.749	21698
808.891	21861
809.033	21781
809.174	21793
809.316	21637
809.458	21564
809.6	21530
809.741	21667
809.883	21709
810.025	21778
810.166	21576
810.308	21816
810.45	21656
810.591	21454
810.733	21507
810.875	21310
811.016	21214
811.158	21325
811.299	21336
811.441	21450
811.582	21397
811.724	21260
811.865	21370
812.007	21458
812.148	21252
812.29	21420
812.431	21462
812.573	21709
812.714	21720
812.855	21766
812.997	21865
813.138	22044
813.279	21835
813.421	21797
813.562	21747
813.703	21633
813.845	21572
813.986	21131
814.127	21039
814.268	20845
814.41	21005
814.551	20918
814.692	20998
814.833	20689
814.974	20834
815.115	20842
815.256	20632
815.397	20651
815.539	20617
815.68	20575
815.821	20564
815.962	20613
816.103	20526
816.244	20488
816.385	20339
816.526	20267
816.666	20122
816.807	20046
816.948	20039
817.089	20126
817.23	20069
817.371	20043
817.512	19894
817.653	20043
817.793	20027
817.934	20008
818.075	20054
818.216	20107
818.356	19906
818.497	19822
818.638	19658
818.778	19719
818.919	19689
819.06	19689
819.2	19883
819.341	19902
819.481	19921
819.622	19986
819.762	20145
819.903	20119
820.043	20005
820.184	20122
820.324	20001
820.465	20107
820.605	20077
820.746	20081
820.886	19883
821.026	19993
821.167	19989
821.307	20092
821.447	19845
821.588	19814
821.728	19666
821.868	19529
822.008	19362
822.149	19457
822.289	19297
822.429	19084
822.569	19019
822.709	19004
822.849	18916
822.99	18932
823.13	18901
823.27	18840
823.41	18692
823.55	18635
823.69	18688
823.83	18817
823.97	18635
824.11	18521
824.25	18414
824.389	18418
824.529	18490
824.669	18525
824.809	18555
824.949	18555
825.089	18551
825.228	18471
825.368	18308
825.508	18205
825.648	18296
825.787	18323
825.927	18323
826.067	18281
826.206	18155
826.346	18262
826.485	18327
826.625	18216
826.765	18327
826.904	18308
827.044	18007
827.183	18098
827.323	18007
827.462	18057
827.601	17901
827.741	17965
827.88	17961
828.02	17885
828.159	17908
828.298	17950
828.437	18019
828.577	17980
828.716	17988
828.855	17908
828.994	17699
829.134	17627
829.273	17726
829.412	17737
829.551	17630
829.69	17634
829.829	17840
829.968	17802
830.107	17779
830.246	17733
830.385	17691
830.524	17630
830.663	17566
830.802	17379
830.941	17341
831.08	17334
831.219	17341
831.357	17425
831.496	17604
831.635	17372
831.774	17246
831.913	17212
832.051	17098
832.19	17121
832.329	17204
832.467	17105
832.606	16900
832.744	16938
832.883	17018
833.022	17045
833.16	17109
833.299	17113
833.437	17140
833.576	17147
833.714	17113
833.852	17151
833.991	17079
834.129	17189
834.267	17083
834.406	17098
834.544	17147
834.682	17128
834.821	17143
834.959	17208
835.097	16987
835.235	17147
835.373	17121
835.511	17128
835.65	16911
835.788	17014
835.926	16824
836.064	16786
836.202	16831
836.34	17033
836.478	17067
836.615	16900
836.753	16961
836.891	17018
837.029	17094
837.167	17018
837.305	16927
837.443	16934
837.58	16729
837.718	16904
837.856	16774
837.993	16843
838.131	16850
838.269	16733
838.406	16862
838.544	16698
838.681	16569
838.819	16489
838.956	16238
839.094	16344
839.231	16432
839.369	16519
839.506	16767
839.643	16717
839.781	16428
839.918	16466
840.055	16527
840.193	16299
840.33	16303
840.467	16382
840.604	16421
840.742	16588
840.879	16337
841.016	16284
841.153	16432
841.29	16538
841.427	16500
841.564	16523
841.701	16424
841.838	16310
841.975	16318
842.112	16341
842.249	16230
842.385	16154
842.522	16421
842.659	16181
842.796	16128
842.933	16181
843.069	16109
843.206	16105
843.343	16253
843.479	16207
843.616	16280
843.752	16025
843.889	15930
844.025	16082
844.162	15888
844.298	16185
844.435	15983
844.571	15987
844.708	16010
844.844	16185
844.98	16242
845.117	16223
845.253	15941
845.389	15823
845.525	15987
845.661	15922
845.798	15972
845.934	16044
846.07	15987
846.206	16025
846.342	16013
846.478	15865
846.614	15530
846.75	15519
846.886	15580
847.022	15629
847.158	15492
847.294	15458
847.429	15492
847.565	15568
847.701	15720
847.837	15256
847.972	15268
848.108	15412
848.244	15291
848.379	15146
848.515	15104
848.65	15100
848.786	15116
848.921	15180
849.057	15252
849.192	15291
849.328	15169
849.463	15154
849.598	15089
849.734	15123
849.869	15005
850.004	14902
850.14	14986
850.275	14906
850.41	14838
850.545	14849
850.68	14887
850.815	14902
850.95	14758
851.085	15028
851.22	15108
851.355	14937
851.49	14948
851.625	14899
851.76	14834
851.895	14872
852.03	14796
852.165	14914
852.299	14937
852.434	15032
852.569	14960
852.703	14887
852.838	15039
852.973	15051
853.107	15081
853.242	14849
853.376	14876
853.511	14712
853.645	14823
853.78	14952
853.914	14785
854.048	14861
854.183	14758
854.317	14830
854.451	14937
854.585	14800
854.72	14701
854.854	14914
854.988	14678
855.122	14667
855.256	14644
855.39	14788
855.524	14963
855.658	14800
855.792	14758
855.926	14754
856.06	14845
856.194	14868
856.327	14804
856.461	14739
856.595	14693
856.729	14804
856.862	14910
856.996	14849
857.13	14864
857.263	14933
857.397	14910
857.53	14765
857.664	14830
857.797	14899
857.931	14982
858.064	14842
858.197	14902
858.331	14788
858.464	14834
858.597	14693
858.731	14682
858.864	14750
858.997	14826
859.13	14823
859.263	14845
859.396	14887
859.529	14788
859.662	14720
859.795	14754
859.928	14918
860.061	15020
860.194	14990
860.327	14773
860.46	14819
860.592	14933
860.725	15020
860.858	14929
860.99	14944
861.123	14811
861.256	14739
861.388	14804
861.521	15545
861.653	14716
861.786	14689
861.918	14693
862.05	14648
862.183	14746
862.315	14853
862.447	14845
862.58	14705
862.712	14522
862.844	14533
862.976	14587
863.108	14594
863.24	15032
863.372	14583
863.504	14541
863.636	14495
863.768	14678
863.9	14617
864.032	14484
864.164	14579
864.296	14575
864.428	14731
864.559	14682
864.691	14670
864.823	14663
864.954	14686
865.086	14644
865.217	14507
865.349	14495
865.48	14495
865.612	14492
865.743	14686
865.875	14678
866.006	14552
866.137	14564
866.269	14541
866.4	14499
866.531	14469
866.662	14499
866.793	14568
866.924	14537
867.055	14583
867.186	14518
867.317	14522
867.448	14423
867.579	14457
867.71	14473
867.841	14518
867.972	14560
868.103	14560
868.233	14598
868.364	14568
868.495	14621
868.625	14857
868.756	14880
868.886	14678
869.017	14731
869.147	14952
869.278	14876
869.408	14781
869.539	14823
869.669	14921
869.799	14773
869.929	14990
870.06	14838
870.19	15081
870.32	15119
870.45	15119
870.58	15199
870.71	15313
870.84	15317
870.97	15195
871.1	15188
871.23	15294
871.36	15344
871.489	15249
871.619	15245
871.749	15321
871.879	15397
872.008	15466
872.138	15412
872.267	15294
872.397	15146
872.526	15237
872.656	15203
872.785	15226
872.915	15458
873.044	15428
873.173	15416
873.303	15450
873.432	15458
873.561	15443
873.69	15462
873.819	15488
873.948	15485
874.077	15416
874.206	15351
874.335	15389
874.464	15519
874.593	15660
874.722	15694
874.851	15774
874.979	15736
875.108	15724
875.237	15682
875.365	15724
875.494	15675
875.623	15781
875.751	15835
875.88	15778
876.008	15937
876.136	15907
876.265	16204
876.393	16295
876.521	16268
876.65	16322
876.778	16169
876.906	16097
877.034	16029
877.162	16093
877.29	16124
877.418	16215
877.546	16188
877.674	16204
877.802	16181
877.93	16093
878.058	16192
878.185	16162
878.313	16158
878.441	16101
878.568	16036
878.696	16147
878.824	16223
878.951	16265
879.079	16386
879.206	16516
879.333	16363
879.461	16268
879.588	16409
879.715	16421
879.842	16432
879.97	16223
880.097	16048
880.224	16074
880.351	16181
880.478	16063
880.605	15998
880.732	15979
880.859	16291
880.986	16036
881.112	16078
881.239	15835
881.366	15850
881.493	15667
881.619	15641
881.746	15751
881.872	15641
881.999	15663
882.125	15660
882.252	15770
882.378	15698
882.505	15819
882.631	15614
882.757	15557
882.883	15564
883.01	15431
883.136	15412
883.262	15420
883.388	15351
883.514	15496
883.64	15591
883.766	15370
883.892	15325
884.018	15485
884.143	15435
884.269	15545
884.395	15260
884.52	15131
884.646	15203
884.772	15116
884.897	15062
885.023	15252
885.148	15279
885.274	15378
885.399	15214
885.524	15218
885.65	15154
885.775	15199
885.9	15283
886.025	15226
886.15	15321
886.275	15138
886.4	15089
886.525	15093
886.65	15150
886.775	15127
886.9	15351
887.025	15367
887.149	15275
887.274	14929
887.399	14910
887.523	14971
887.648	14929
887.773	14883
887.897	15055
888.021	15028
888.146	14914
888.27	15085
888.395	15013
888.519	15081
888.643	15070
888.767	15077
888.891	14918
889.015	14960
889.139	14944
889.263	14845
889.387	15047
889.511	15085
889.635	14941
889.759	14868
889.883	14777
890.006	14899
890.13	15017
890.254	14781
890.377	14819
890.501	14640
890.624	14655
890.748	14811
890.871	14651
890.995	14606
891.118	14412
891.241	14598
891.364	14571
891.488	14549
891.611	14503
891.734	14610
891.857	14613
891.98	14587
892.103	14678
892.226	14564
892.349	14579
892.471	14366
892.594	14583
892.717	14533
892.839	14461
892.962	14621
893.085	14689
893.207	14545
893.33	14381
893.452	14495
893.575	14629
893.697	14514
893.819	14727
893.941	14674
894.064	14731
894.186	14499
894.308	14450
894.43	14568
894.552	14815
894.674	14682
894.796	14476
894.918	14636
895.04	14640
895.161	14705
895.283	14533
895.405	14541
895.526	14678
895.648	14659
895.769	14640
895.891	14701
896.012	14689
896.134	14632
896.255	14758
896.376	14701
896.498	14678
896.619	14746
896.74	14720
896.861	14743
896.982	15047
897.103	15173
897.224	15020
897.345	15009
897.466	14838
897.587	14963
897.708	15070
897.828	14986
897.949	14967
898.07	14792
898.19	14941
898.311	15043
898.431	14994
898.552	14960
898.672	15116
898.792	15218
898.913	15036
899.033	15005
899.153	14811
899.273	14807
899.393	14895
899.513	14883
899.633	14921
899.753	14906
899.873	14773
899.993	14834
900.113	14868
900.232	14906
900.352	14823
900.472	14754
900.591	14689
900.711	14815
900.83	14682
900.95	14895
901.069	14804
901.189	14686
901.308	14446
901.427	14404
901.546	14370
901.665	14469
901.784	14469
901.904	14275
902.023	14218
902.141	14134
902.26	13921
902.379	13967
902.498	13868
902.617	13894
902.735	13997
902.854	13928
902.973	13868
903.091	13700
903.21	13643
903.328	13674
903.446	13632
903.565	13487
903.683	13559
903.801	13480
903.919	13464
904.038	13559
904.156	13304
904.274	13430
904.392	13343
904.51	13346
904.627	13232
904.745	13346
904.863	13339
904.981	13221
905.098	12977
905.216	13004
905.334	13069
905.451	13000
905.569	13027
905.686	13103
905.803	13004
905.921	12871
906.038	13042
906.155	12878
906.272	12715
906.389	12757
906.506	12616
906.623	12692
906.74	12574
906.857	12475
906.974	12517
907.091	12574
907.208	12753
907.324	12627
907.441	12536
907.557	12471
907.674	12353
907.79	12228
907.907	12365
908.023	12357
908.139	12410
908.256	12285
908.372	12372
908.488	12148
908.604	12258
908.72	12152
908.836	12121
908.952	12034
909.068	12163
909.184	12228
909.3	12114
909.415	12136
909.531	12091
909.647	11882
909.762	11863
909.878	11866
909.993	11931
910.108	11885
910.224	11817
910.339	11866
910.454	11832
910.57	11718
910.685	11710
910.8	12003
910.915	11866
911.03	11775
911.145	11581
911.259	11611
911.374	11646
911.489	11528
911.604	11471
911.718	11307
911.833	11349
911.947	11299
912.062	11124
912.176	11315
912.291	11334
912.405	11296
912.519	11474
912.633	11528
912.748	11482
912.862	11250
912.976	11197
913.09	11071
913.204	11181
913.318	11277
913.431	11326
913.545	11273
913.659	11364
913.772	11239
913.886	11105
914	11064
914.113	11204
914.226	11170
914.34	11136
914.453	10965
914.566	11094
914.68	11037
914.793	11025
914.906	10862
915.019	10778
915.132	10759
915.245	10774
915.358	10831
915.47	10790
915.583	10828
915.696	10847
915.809	10942
915.921	10968
916.034	10812
916.146	10790
916.259	10660
916.371	10965
916.483	10866
916.595	10687
916.708	10706
916.82	10679
916.932	10763
917.044	10721
917.156	10645
917.268	10653
917.38	10542
917.491	10615
917.603	10603
917.715	10710
917.826	10725
917.938	10588
918.049	10504
918.161	10580
918.272	10752
918.384	10748
918.495	10599
918.606	10535
918.717	10440
918.828	10550
918.939	10508
919.05	10428
919.161	10485
919.272	10337
919.383	10417
919.494	10558
919.604	10740
919.715	10561
919.826	10466
919.936	10554
920.047	10580
920.157	10508
920.267	10717
920.378	10504
920.488	10573
920.598	10767
920.708	10858
920.818	10717
920.928	10683
921.038	10843
921.148	10908
921.258	10554
921.368	10531
921.477	10371
921.587	10322
921.697	10257
921.806	10421
921.916	10219
922.025	10223
922.134	10029
922.244	10120
922.353	10135
922.462	9983
922.571	9880
922.68	9800
922.789	9740
922.898	9857
923.007	9694
923.116	9812
923.224	9869
923.333	9766
923.442	9671
923.55	9610
923.659	9682
923.767	9720
923.876	9660
923.984	9778
924.092	9606
924.201	9614
924.309	9644
924.417	9690
924.525	9580
924.633	9519
924.741	10394
924.849	9382
924.956	9538
925.064	9374
925.172	9397
925.279	9344
925.387	9507
925.494	9462
925.602	9652
925.709	9507
925.816	9393
925.924	9462
926.031	9561
926.138	9454
926.245	9450
926.352	9386
926.459	9424
926.566	9523
926.673	9317
926.779	9332
926.886	9279
926.993	9176
927.099	9108
927.206	9154
927.312	9081
927.419	9180
927.525	9135
927.631	9150
927.737	9062
927.843	9032
927.95	8933
928.056	9009
928.162	8971
928.267	9047
928.373	9747
928.479	9123
928.585	8937
928.69	8933
928.796	9017
928.901	9001
929.007	8925
929.112	8982
929.218	8933
929.323	8769
929.428	8823
929.533	9024
929.638	8762
929.743	8838
929.848	8857
929.953	8811
930.058	8754
930.163	8579
930.267	8632
930.372	8682
930.477	8526
930.581	8864
930.685	8625
930.79	8533
930.894	8537
930.998	8541
931.103	8708
931.207	8347
931.311	8233
931.415	8161
931.519	8073
931.623	8062
