Data from test_V78500241_2914.txt Node
Date: Fri Mar 25 14:54:00 CST 2022
User: usil
Spectrometer: V785-0024
Trigger mode: 0
Integration Time (sec): 4.000000E-1
Scans to average: 1
Nonlinearity correction enabled: false
Boxcar width: 0
Storing dark spectrum: false
XAxis mode: Wavelengths
Number of Pixels in Spectrum: 1024
>>>>>Begin Spectral Data<<<<<
801.071	22029
801.214	22002
801.356	21816
801.499	21720
801.641	21557
801.783	21428
801.926	21412
802.068	21420
802.211	21161
802.353	21173
802.496	21028
802.638	20925
802.78	20952
802.923	20777
803.065	20750
803.208	20792
803.35	20743
803.492	20807
803.635	20925
803.777	20807
803.919	20834
804.061	21062
804.204	20845
804.346	20807
804.488	20609
804.63	20792
804.773	20590
804.915	20659
805.057	20781
805.199	20644
805.341	20716
805.483	20830
805.626	20849
805.768	20629
805.91	20762
806.052	20800
806.194	20651
806.336	20804
806.478	20613
806.62	20583
806.762	20743
806.904	20857
807.046	21173
807.188	21017
807.33	21093
807.472	21066
807.614	20880
807.756	20971
807.898	20834
808.04	20720
808.182	20727
808.324	20819
808.465	20872
808.607	21074
808.749	20990
808.891	21096
809.033	21195
809.174	21127
809.316	21070
809.458	21070
809.6	21017
809.741	21127
809.883	21074
810.025	21252
810.166	21306
810.308	21252
810.45	21268
810.591	21119
810.733	20887
810.875	20861
811.016	20655
811.158	20785
811.299	20849
811.441	20895
811.582	21005
811.724	20891
811.865	20868
812.007	20746
812.148	20765
812.29	20880
812.431	20933
812.573	21047
812.714	21192
812.855	21420
812.997	21439
813.138	21637
813.279	21435
813.421	21256
813.562	21192
813.703	21207
813.845	20883
813.986	20739
814.127	20564
814.268	20431
814.41	20400
814.551	20324
814.692	20362
814.833	20290
814.974	20305
815.115	20343
815.256	20259
815.397	20221
815.539	20313
815.68	20130
815.821	19951
815.962	20058
816.103	20035
816.244	19811
816.385	19833
816.526	19750
816.666	19594
816.807	19647
816.948	19655
817.089	19620
817.23	19499
817.371	19487
817.512	19510
817.653	19529
817.793	19491
817.934	19529
818.075	19540
818.216	19495
818.356	19411
818.497	19346
818.638	19179
818.778	19183
818.919	19209
819.06	19278
819.2	19362
819.341	19377
819.481	19381
819.622	19518
819.762	19662
819.903	19628
820.043	19537
820.184	19495
820.324	19487
820.465	19506
820.605	19502
820.746	19624
820.886	19369
821.026	19441
821.167	19514
821.307	19514
821.447	19411
821.588	19301
821.728	19076
821.868	19023
822.008	18958
822.149	18848
822.289	18981
822.429	18563
822.569	18517
822.709	18661
822.849	18418
822.99	18281
823.13	18323
823.27	18334
823.41	18133
823.55	18182
823.69	18186
823.83	18277
823.97	18091
824.11	17946
824.25	17977
824.389	17965
824.529	18022
824.669	17984
824.809	18114
824.949	18072
825.089	17980
825.228	17920
825.368	17726
825.508	17752
825.648	17790
825.787	17790
825.927	17722
826.067	17676
826.206	17665
826.346	17684
826.485	17722
826.625	17695
826.765	17786
826.904	17623
827.044	17535
827.183	17482
827.323	17395
827.462	17444
827.601	17478
827.741	17543
827.88	17402
828.02	17322
828.159	17318
828.298	17406
828.437	17467
828.577	17349
828.716	17570
828.855	17303
828.994	17189
829.134	17109
829.273	17128
829.412	17067
829.551	17086
829.69	17159
829.829	17067
829.968	17212
830.107	17341
830.246	17223
830.385	17094
830.524	17083
830.663	16965
830.802	16862
830.941	16877
831.08	16816
831.219	16949
831.357	16839
831.496	16942
831.635	16797
831.774	16599
831.913	16653
832.051	16603
832.19	16584
832.329	16622
832.467	16500
832.606	16417
832.744	16455
832.883	16497
833.022	16493
833.16	16447
833.299	16546
833.437	16440
833.576	16580
833.714	16577
833.852	16466
833.991	16542
834.129	16561
834.267	16523
834.406	16409
834.544	16538
834.682	16641
834.821	16607
834.959	16550
835.097	16497
835.235	16580
835.373	16432
835.511	16569
835.65	16428
835.788	16489
835.926	16344
836.064	16204
836.202	16360
836.34	16443
836.478	16603
836.615	16322
836.753	16409
836.891	16485
837.029	16424
837.167	16291
837.305	16344
837.443	16329
837.58	16196
837.718	16386
837.856	16272
837.993	16246
838.131	16318
838.269	16219
838.406	16112
838.544	16211
838.681	15892
838.819	15941
838.956	15751
839.094	15663
839.231	15838
839.369	15937
839.506	16272
839.643	16063
839.781	15846
839.918	15804
840.055	15823
840.193	15690
840.33	15831
840.467	15705
840.604	15865
840.742	16040
840.879	15709
841.016	15778
841.153	15819
841.29	15892
841.427	15816
841.564	15793
841.701	15949
841.838	15808
841.975	15629
842.112	15713
842.249	15660
842.385	15416
842.522	15766
842.659	15629
842.796	15549
842.933	15663
843.069	15584
843.206	15614
843.343	15667
843.479	15545
843.616	15542
843.752	15496
843.889	15481
844.025	15523
844.162	15393
844.298	15561
844.435	15473
844.571	15393
844.708	15477
844.844	15526
844.98	15500
845.117	15454
845.253	15283
845.389	15218
845.525	15378
845.661	15294
845.798	15249
845.934	15218
846.07	15195
846.206	15230
846.342	15382
846.478	15279
846.614	14982
846.75	14963
846.886	14941
847.022	14975
847.158	14876
847.294	14948
847.429	15017
847.565	14891
847.701	15192
847.837	14800
847.972	14746
848.108	14952
848.244	14750
848.379	14598
848.515	14507
848.65	14526
848.786	14568
848.921	14613
849.057	14632
849.192	14598
849.328	14678
849.463	14610
849.598	14571
849.734	14480
849.869	14514
850.004	14328
850.14	14366
850.275	14400
850.41	14244
850.545	14252
850.68	14328
850.815	14294
850.95	14370
851.085	14564
851.22	14431
851.355	14317
851.49	14252
851.625	14195
851.76	14263
851.895	14248
852.03	14195
852.165	14317
852.299	14218
852.434	14358
852.569	14271
852.703	14324
852.838	14317
852.973	14442
853.107	14518
853.242	14233
853.376	14195
853.511	14069
853.645	14206
853.78	14313
853.914	14100
854.048	14172
854.183	14278
854.317	14172
854.451	14381
854.585	14210
854.72	14221
854.854	14233
854.988	14134
855.122	14191
855.256	13970
855.39	14130
855.524	14237
855.658	14149
855.792	14172
855.926	14157
856.06	14252
856.194	14309
856.327	14221
856.461	14119
856.595	14119
856.729	14221
856.862	14393
856.996	14305
857.13	14309
857.263	14267
857.397	14294
857.53	14240
857.664	14305
857.797	14347
857.931	14290
858.064	14210
858.197	14351
858.331	14210
858.464	14142
858.597	14206
858.731	14229
858.864	14172
858.997	14138
859.13	14199
859.263	14271
859.396	14370
859.529	14157
859.662	14138
859.795	14119
859.928	14233
860.061	14396
860.194	14362
860.327	14221
860.46	14157
860.592	14187
860.725	14404
860.858	14298
860.99	14176
861.123	14103
861.256	14119
861.388	14149
861.521	14914
861.653	14134
861.786	14020
861.918	14008
862.05	14119
862.183	14259
862.315	14153
862.447	14191
862.58	14149
862.712	13940
862.844	13913
862.976	13997
863.108	13959
863.24	14336
863.372	13849
863.504	13986
863.636	13925
863.768	13974
863.9	13970
864.032	13921
864.164	14073
864.296	14103
864.428	14176
864.559	14027
864.691	14054
864.823	14050
864.954	13963
865.086	14027
865.217	13921
865.349	13883
865.48	13944
865.612	13986
865.743	14039
865.875	14005
866.006	13944
866.137	14001
866.269	13887
866.4	13906
866.531	13928
866.662	13898
866.793	13894
866.924	13932
867.055	13944
867.186	13887
867.317	13925
867.448	13830
867.579	13849
867.71	13852
867.841	13875
867.972	13936
868.103	13932
868.233	13982
868.364	14001
868.495	13940
868.625	14176
868.756	14320
868.886	14134
869.017	14225
869.147	14256
869.278	14271
869.408	14252
869.539	14210
869.669	14237
869.799	14202
869.929	14294
870.06	14256
870.19	14564
870.32	14476
870.45	14560
870.58	14731
870.71	14629
870.84	14765
870.97	14545
871.1	14625
871.23	14750
871.36	14853
871.489	14724
871.619	14834
871.749	14918
871.879	14792
872.008	14929
872.138	14842
872.267	14724
872.397	14800
872.526	14632
872.656	14678
872.785	14693
872.915	14857
873.044	14952
873.173	14834
873.303	14895
873.432	14842
873.561	14868
873.69	14952
873.819	14864
873.948	14937
874.077	14933
874.206	14731
874.335	15001
874.464	14960
874.593	15146
874.722	15039
874.851	15249
874.979	15169
875.108	15336
875.237	15047
875.365	15020
875.494	15192
875.623	15226
875.751	15207
875.88	15138
876.008	15348
876.136	15325
876.265	15473
876.393	15686
876.521	15622
876.65	15633
876.778	15603
876.906	15553
877.034	15545
877.162	15511
877.29	15530
877.418	15671
877.546	15667
877.674	15576
877.802	15682
877.93	15625
878.058	15492
878.185	15530
878.313	15572
878.441	15698
878.568	15416
878.696	15545
878.824	15454
878.951	15675
879.079	15743
879.206	15873
879.333	15732
879.461	15682
879.588	15625
879.715	15846
879.842	15884
879.97	15682
880.097	15469
880.224	15477
880.351	15481
880.478	15496
880.605	15477
880.732	15382
880.859	15686
880.986	15439
881.112	15504
881.239	15245
881.366	15207
881.493	15089
881.619	15089
881.746	15055
881.872	15070
881.999	15127
882.125	15005
882.252	15199
882.378	15085
882.505	15241
882.631	14979
882.757	14929
882.883	14944
883.01	14921
883.136	14823
883.262	14857
883.388	14807
883.514	14895
883.64	14937
883.766	14868
883.892	14682
884.018	14811
884.143	14861
884.269	15009
884.395	14651
884.52	14629
884.646	14617
884.772	14587
884.897	14590
885.023	14575
885.148	14716
885.274	14792
885.399	14750
885.524	14648
885.65	14655
885.775	14720
885.9	14579
886.025	14769
886.15	14659
886.275	14495
886.4	14514
886.525	14514
886.65	14583
886.775	14617
886.9	14758
887.025	14864
887.149	14629
887.274	14438
887.399	14320
887.523	14454
887.648	14362
887.773	14358
887.897	14514
888.021	14492
888.146	14431
888.27	14613
888.395	14560
888.519	14480
888.643	14545
888.767	14484
888.891	14309
889.015	14336
889.139	14362
889.263	14336
889.387	14355
889.511	14587
889.635	14389
889.759	14275
889.883	14347
890.006	14370
890.13	14492
890.254	14248
890.377	14206
890.501	14153
890.624	14084
890.748	14240
890.871	14145
890.995	13879
891.118	13925
891.241	14050
891.364	14035
891.488	14199
891.611	14024
891.734	14031
891.857	14054
891.98	14005
892.103	14119
892.226	14111
892.349	14035
892.471	13799
892.594	13936
892.717	13967
892.839	13982
892.962	14039
893.085	14054
893.207	14005
893.33	13906
893.452	13967
893.575	14043
893.697	13982
893.819	14240
893.941	14202
894.064	14180
894.186	14077
894.308	14005
894.43	14168
894.552	14248
894.674	14176
894.796	13890
894.918	14050
895.04	14062
895.161	14195
895.283	14187
895.405	14050
895.526	14123
895.648	14119
895.769	14164
895.891	14183
896.012	14282
896.134	14218
896.255	14202
896.376	14161
896.498	14096
896.619	14157
896.74	14206
896.861	14328
896.982	14484
897.103	14678
897.224	14400
897.345	14503
897.466	14423
897.587	14492
897.708	14514
897.828	14438
897.949	14461
898.07	14317
898.19	14454
898.311	14602
898.431	14469
898.552	14530
898.672	14610
898.792	14556
898.913	14533
899.033	14495
899.153	14465
899.273	14434
899.393	14339
899.513	14450
899.633	14438
899.753	14473
899.873	14385
899.993	14400
900.113	14377
900.232	14469
900.352	14400
900.472	14282
900.591	14191
900.711	14389
900.83	14199
900.95	14286
901.069	14431
901.189	14157
901.308	14054
901.427	13902
901.546	13887
901.665	14020
901.784	14001
901.904	13841
902.023	13750
902.141	13525
902.26	13521
902.379	13613
902.498	13578
902.617	13400
902.735	13586
902.854	13510
902.973	13434
903.091	13270
903.21	13244
903.328	13289
903.446	13164
903.565	13076
903.683	13133
903.801	12958
903.919	13110
904.038	13012
904.156	12966
904.274	12962
904.392	12837
904.51	12890
904.627	12867
904.745	12970
904.863	12977
904.981	12753
905.098	12620
905.216	12627
905.334	12616
905.451	12540
905.569	12456
905.686	12597
905.803	12623
905.921	12441
906.038	12551
906.155	12460
906.272	12304
906.389	12422
906.506	12258
906.623	12209
906.74	12110
906.857	12019
906.974	12106
907.091	12277
907.208	12304
907.324	12171
907.441	12125
907.557	11996
907.674	11904
907.79	11885
907.907	11889
908.023	11916
908.139	11946
908.256	11866
908.372	11885
908.488	11878
908.604	11779
908.72	11680
908.836	11672
908.952	11699
909.068	11714
909.184	11874
909.3	11741
909.415	11805
909.531	11760
909.647	11512
909.762	11383
909.878	11410
909.993	11459
910.108	11471
910.224	11474
910.339	11417
910.454	11425
910.57	11326
910.685	11242
910.8	11509
910.915	11410
911.03	11315
911.145	11124
911.259	11117
911.374	11102
911.489	11113
911.604	11022
911.718	10965
911.833	10957
911.947	10763
912.062	10797
912.176	11018
912.291	10908
912.405	10847
912.519	11155
912.633	11006
912.748	10984
912.862	10862
912.976	10828
913.09	10717
913.204	10706
913.318	10774
913.431	10919
913.545	10786
913.659	10869
913.772	10824
913.886	10767
914	10615
914.113	10721
914.226	10797
914.34	10763
914.453	10580
914.566	10790
914.68	10592
914.793	10656
914.906	10485
915.019	10382
915.132	10356
915.245	10421
915.358	10455
915.47	10417
915.583	10485
915.696	10432
915.809	10599
915.921	10630
916.034	10344
916.146	10462
916.259	10333
916.371	10554
916.483	10447
916.595	10299
916.708	10344
916.82	10371
916.932	10382
917.044	10303
917.156	10310
917.268	10204
917.38	10227
917.491	10234
917.603	10314
917.715	10436
917.826	10367
917.938	10234
918.049	10109
918.161	10325
918.272	10371
918.384	10318
918.495	10333
918.606	10181
918.717	10143
918.828	10139
918.939	10200
919.05	10124
919.161	10147
919.272	9903
919.383	9998
919.494	10120
919.604	10405
919.715	10188
919.826	10063
919.936	10101
920.047	10207
920.157	10181
920.267	10344
920.378	10238
920.488	10150
920.598	10363
920.708	10519
920.818	10390
920.928	10314
921.038	10519
921.148	10421
921.258	10192
921.368	10131
921.477	9949
921.587	9949
921.697	9911
921.806	9956
921.916	9892
922.025	9793
922.134	9732
922.244	9728
922.353	9793
922.462	9580
922.571	9572
922.68	9386
922.789	9428
922.898	9435
923.007	9416
923.116	9359
923.224	9401
923.333	9401
923.442	9363
923.55	9195
923.659	9332
923.767	9370
923.876	9237
923.984	9389
924.092	9207
924.201	9214
924.309	9237
924.417	9233
924.525	9287
924.633	9230
924.741	10215
924.849	9020
924.956	9256
925.064	9108
925.172	8963
925.279	8979
925.387	9055
925.494	9108
925.602	9218
925.709	9180
925.816	9047
925.924	9081
926.031	9222
926.138	9062
926.245	9081
926.352	9070
926.459	9138
926.566	9207
926.673	9104
926.779	8994
926.886	8880
926.993	8800
927.099	8762
927.206	8705
927.312	8777
927.419	8777
927.525	8804
927.631	8891
927.737	8762
927.843	8705
927.95	8674
928.056	8655
928.162	8716
928.267	8754
928.373	9340
928.479	8777
928.585	8621
928.69	8644
928.796	8724
928.901	8579
929.007	8400
929.112	8613
929.218	8621
929.323	8518
929.428	8587
929.533	8655
929.638	8507
929.743	8476
929.848	8552
929.953	8495
930.058	8446
930.163	8244
930.267	8282
930.372	8465
930.477	8244
930.581	8575
930.685	8377
930.79	8244
930.894	8206
930.998	8172
931.103	8374
931.207	7978
931.311	7913
931.415	7963
931.519	7731
931.623	7734
