Data from test_V78500241_1558.txt Node
Date: Fri Mar 25 14:44:33 CST 2022
User: usil
Spectrometer: V785-0024
Trigger mode: 0
Integration Time (sec): 4.000000E-1
Scans to average: 1
Nonlinearity correction enabled: false
Boxcar width: 0
Storing dark spectrum: false
XAxis mode: Wavelengths
Number of Pixels in Spectrum: 1024
>>>>>Begin Spectral Data<<<<<
801.071	22360
801.214	22478
801.356	21994
801.499	21956
801.641	21766
801.783	21800
801.926	21705
802.068	21660
802.211	21557
802.353	21580
802.496	21389
802.638	21344
802.78	21279
802.923	21310
803.065	20982
803.208	21104
803.35	21062
803.492	21245
803.635	21275
803.777	20986
803.919	21230
804.061	21466
804.204	21306
804.346	21013
804.488	21024
804.63	20990
804.773	20975
804.915	21093
805.057	21093
805.199	21005
805.341	21119
805.483	21093
805.626	21108
805.768	21009
805.91	21039
806.052	21032
806.194	21001
806.336	21245
806.478	21135
806.62	21032
806.762	21184
806.904	21291
807.046	21405
807.188	21420
807.33	21439
807.472	21542
807.614	21317
807.756	21367
807.898	21249
808.04	21207
808.182	21127
808.324	21378
808.465	21355
808.607	21401
808.749	21713
808.891	21580
809.033	21667
809.174	21709
809.316	21500
809.458	21526
809.6	21504
809.741	21557
809.883	21587
810.025	21724
810.166	21686
810.308	21663
810.45	21629
810.591	21717
810.733	21397
810.875	21268
811.016	21104
811.158	21138
811.299	21321
811.441	21378
811.582	21424
811.724	21348
811.865	21252
812.007	21226
812.148	21268
812.29	21317
812.431	21450
812.573	21561
812.714	21603
812.855	21701
812.997	21850
813.138	22036
813.279	21880
813.421	21797
813.562	21667
813.703	21557
813.845	21275
813.986	21199
814.127	20994
814.268	20720
814.41	20845
814.551	20830
814.692	20857
814.833	20708
814.974	20823
815.115	20701
815.256	20556
815.397	20701
815.539	20743
815.68	20583
815.821	20434
815.962	20511
816.103	20533
816.244	20442
816.385	20313
816.526	20256
816.666	20134
816.807	19997
816.948	20027
817.089	20126
817.23	19898
817.371	19944
817.512	19871
817.653	19947
817.793	19845
817.934	19852
818.075	19925
818.216	20062
818.356	19833
818.497	19833
818.638	19609
818.778	19575
818.919	19651
819.06	19594
819.2	19811
819.341	19822
819.481	19822
819.622	19925
819.762	20069
819.903	20050
820.043	20008
820.184	19989
820.324	19982
820.465	19879
820.605	19890
820.746	19822
820.886	19594
821.026	19837
821.167	19814
821.307	19951
821.447	19913
821.588	19765
821.728	19571
821.868	19533
822.008	19320
822.149	19202
822.289	19274
822.429	19031
822.569	18966
822.709	18951
822.849	18875
822.99	18871
823.13	18928
823.27	18806
823.41	18642
823.55	18597
823.69	18582
823.83	18623
823.97	18513
824.11	18448
824.25	18239
824.389	18342
824.529	18467
824.669	18399
824.809	18490
824.949	18547
825.089	18342
825.228	18471
825.368	18258
825.508	18171
825.648	18235
825.787	18220
825.927	18140
826.067	18163
826.206	18091
826.346	18194
826.485	18087
826.625	18171
826.765	18216
826.904	18239
827.044	17897
827.183	17851
827.323	17798
827.462	17863
827.601	17847
827.741	17756
827.88	17824
828.02	17733
828.159	17821
828.298	17878
828.437	17828
828.577	17813
828.716	17920
828.855	17794
828.994	17687
829.134	17501
829.273	17668
829.412	17520
829.551	17512
829.69	17634
829.829	17608
829.968	17752
830.107	17737
830.246	17566
830.385	17554
830.524	17452
830.663	17368
830.802	17372
830.941	17197
831.08	17212
831.219	17368
831.357	17303
831.496	17303
831.635	17178
831.774	17090
831.913	17136
832.051	17037
832.19	17025
832.329	16987
832.467	16877
832.606	16934
832.744	16896
832.883	16816
833.022	16862
833.16	16847
833.299	16908
833.437	16934
833.576	16927
833.714	16839
833.852	16987
833.991	17045
834.129	17060
834.267	17029
834.406	16961
834.544	16881
834.682	16957
834.821	16885
834.959	17060
835.097	16809
835.235	16987
835.373	16961
835.511	16923
835.65	16713
835.788	16812
835.926	16706
836.064	16558
836.202	16653
836.34	16904
836.478	16892
836.615	16793
836.753	16843
836.891	16828
837.029	16828
837.167	16755
837.305	16653
837.443	16744
837.58	16664
837.718	16702
837.856	16630
837.993	16573
838.131	16626
838.269	16588
838.406	16653
838.544	16531
838.681	16402
838.819	16291
838.956	16215
839.094	16215
839.231	16318
839.369	16329
839.506	16706
839.643	16554
839.781	16341
839.918	16177
840.055	16223
840.193	16181
840.33	16169
840.467	16234
840.604	16185
840.742	16508
840.879	16116
841.016	16112
841.153	16124
841.29	16363
841.427	16215
841.564	16234
841.701	16093
841.838	16162
841.975	16078
842.112	16253
842.249	16048
842.385	16040
842.522	16204
842.659	15987
842.796	15979
842.933	15987
843.069	15892
843.206	15979
843.343	16044
843.479	16051
843.616	16013
843.752	15922
843.889	15827
844.025	15922
844.162	15660
844.298	15846
844.435	15770
844.571	15675
844.708	15816
844.844	15975
844.98	15888
845.117	15899
845.253	15869
845.389	15747
845.525	15774
845.661	15679
845.798	15686
845.934	15880
846.07	15736
846.206	15739
846.342	15884
846.478	15663
846.614	15439
846.75	15397
846.886	15397
847.022	15397
847.158	15428
847.294	15374
847.429	15291
847.565	15325
847.701	15610
847.837	15081
847.972	14971
848.108	15173
848.244	15165
848.379	15062
848.515	14941
848.65	14944
848.786	14906
848.921	14925
849.057	15043
849.192	15055
849.328	14872
849.463	14937
849.598	14952
849.734	14857
849.869	14762
850.004	14674
850.14	14815
850.275	14769
850.41	14568
850.545	14606
850.68	14678
850.815	14705
850.95	14655
851.085	14834
851.22	14762
851.355	14811
851.49	14659
851.625	14590
851.76	14648
851.895	14602
852.03	14545
852.165	14610
852.299	14739
852.434	14800
852.569	14693
852.703	14804
852.838	14746
852.973	14807
853.107	14811
853.242	14667
853.376	14579
853.511	14499
853.645	14507
853.78	14720
853.914	14552
854.048	14549
854.183	14541
854.317	14617
854.451	14765
854.585	14556
854.72	14579
854.854	14594
854.988	14438
855.122	14476
855.256	14537
855.39	14499
855.524	14621
855.658	14602
855.792	14587
855.926	14530
856.06	14682
856.194	14583
856.327	14629
856.461	14560
856.595	14587
856.729	14465
856.862	14697
856.996	14632
857.13	14583
857.263	14682
857.397	14636
857.53	14621
857.664	14613
857.797	14682
857.931	14712
858.064	14594
858.197	14655
858.331	14564
858.464	14473
858.597	14518
858.731	14511
858.864	14427
858.997	14480
859.13	14613
859.263	14602
859.396	14686
859.529	14492
859.662	14541
859.795	14480
859.928	14598
860.061	14697
860.194	14724
860.327	14678
860.46	14541
860.592	14655
860.725	14667
860.858	14682
860.99	14640
861.123	14583
861.256	14488
861.388	14629
861.521	15180
861.653	14419
861.786	14362
861.918	14495
862.05	14442
862.183	14518
862.315	14610
862.447	14594
862.58	14568
862.712	14320
862.844	14244
862.976	14377
863.108	14404
863.24	14750
863.372	14263
863.504	14313
863.636	14263
863.768	14374
863.9	14278
864.032	14259
864.164	14290
864.296	14313
864.428	14457
864.559	14351
864.691	14423
864.823	14400
864.954	14389
865.086	14412
865.217	14267
865.349	14271
865.48	14210
865.612	14389
865.743	14442
865.875	14294
866.006	14320
866.137	14263
866.269	14313
866.4	14351
866.531	14252
866.662	14229
866.793	14233
866.924	14240
867.055	14332
867.186	14244
867.317	14275
867.448	14218
867.579	14214
867.71	14263
867.841	14221
867.972	14256
868.103	14191
868.233	14336
868.364	14244
868.495	14305
868.625	14522
868.756	14644
868.886	14469
869.017	14514
869.147	14606
869.278	14663
869.408	14598
869.539	14579
869.669	14678
869.799	14659
869.929	14762
870.06	14636
870.19	14868
870.32	14933
870.45	14872
870.58	14979
870.71	15077
870.84	15058
870.97	14944
871.1	14933
871.23	15055
871.36	15214
871.489	15085
871.619	15146
871.749	15074
871.879	15184
872.008	15207
872.138	15138
872.267	15119
872.397	15051
872.526	15028
872.656	14979
872.785	15032
872.915	15051
873.044	15287
873.173	15116
873.303	15313
873.432	15176
873.561	15298
873.69	15199
873.819	15157
873.948	15294
874.077	15188
874.206	15135
874.335	15195
874.464	15351
874.593	15538
874.722	15405
874.851	15511
874.979	15477
875.108	15568
875.237	15374
875.365	15359
875.494	15477
875.623	15557
875.751	15572
875.88	15553
876.008	15595
876.136	15774
876.265	15960
876.393	16078
876.521	15934
876.65	15945
876.778	15903
876.906	15972
877.034	15876
877.162	15873
877.29	15804
877.418	15956
877.546	15975
877.674	15964
877.802	15816
877.93	15846
878.058	15911
878.185	15918
878.313	15918
878.441	15945
878.568	15778
878.696	15846
878.824	15964
878.951	16010
879.079	16204
879.206	16226
879.333	16192
879.461	16021
879.588	16051
879.715	16101
879.842	16363
879.97	16051
880.097	15854
880.224	15774
880.351	15861
880.478	15766
880.605	15720
880.732	15861
880.859	16006
880.986	15903
881.112	15827
881.239	15675
881.366	15542
881.493	15530
881.619	15405
881.746	15450
881.872	15477
881.999	15412
882.125	15466
882.252	15450
882.378	15447
882.505	15656
882.631	15416
882.757	15260
882.883	15325
883.01	15332
883.136	15260
883.262	15173
883.388	15116
883.514	15272
883.64	15344
883.766	15268
883.892	15127
884.018	15268
884.143	15222
884.269	15306
884.395	15055
884.52	14975
884.646	15032
884.772	14880
884.897	14937
885.023	15039
885.148	15085
885.274	15146
885.399	15093
885.524	14918
885.65	14952
885.775	14975
885.9	14982
886.025	15135
886.15	14986
886.275	14990
886.4	14788
886.525	14941
886.65	14899
886.775	14906
886.9	15131
887.025	15173
887.149	15047
887.274	14857
887.399	14724
887.523	14796
887.648	14720
887.773	14727
887.897	14880
888.021	14826
888.146	14754
888.27	14941
888.395	14956
888.519	14906
888.643	14944
888.767	14804
888.891	14697
889.015	14610
889.139	14701
889.263	14667
889.387	14720
889.511	14899
889.635	14739
889.759	14659
889.883	14720
890.006	14598
890.13	14750
890.254	14610
890.377	14518
890.501	14457
890.624	14461
890.748	14537
890.871	14419
890.995	14328
891.118	14309
891.241	14339
891.364	14404
891.488	14408
891.611	14320
891.734	14358
891.857	14488
891.98	14423
892.103	14374
892.226	14324
892.349	14385
892.471	14202
892.594	14362
892.717	14324
892.839	14347
892.962	14366
893.085	14503
893.207	14256
893.33	14309
893.452	14237
893.575	14412
893.697	14362
893.819	14454
893.941	14469
894.064	14473
894.186	14320
894.308	14320
894.43	14537
894.552	14636
894.674	14454
894.796	14442
894.918	14400
895.04	14408
895.161	14454
895.283	14495
895.405	14332
895.526	14400
895.648	14469
895.769	14575
895.891	14571
896.012	14499
896.134	14594
896.255	14518
896.376	14488
896.498	14484
896.619	14533
896.74	14423
896.861	14602
896.982	14792
897.103	15020
897.224	14864
897.345	14792
897.466	14781
897.587	14800
897.708	14948
897.828	14830
897.949	14792
898.07	14632
898.19	14716
898.311	14925
898.431	14773
898.552	14735
898.672	15013
898.792	14960
898.913	14967
899.033	14819
899.153	14758
899.273	14583
899.393	14705
899.513	14819
899.633	14796
899.753	14678
899.873	14667
899.993	14670
900.113	14613
900.232	14773
900.352	14651
900.472	14625
900.591	14545
900.711	14621
900.83	14499
900.95	14648
901.069	14739
901.189	14537
901.308	14320
901.427	14377
901.546	14256
901.665	14263
901.784	14275
901.904	14218
902.023	14161
902.141	14005
902.26	13868
902.379	14005
902.498	13814
902.617	13715
902.735	13955
902.854	13734
902.973	13780
903.091	13567
903.21	13529
903.328	13567
903.446	13438
903.565	13362
903.683	13438
903.801	13255
903.919	13373
904.038	13400
904.156	13221
904.274	13282
904.392	13221
904.51	13194
904.627	13088
904.745	13206
904.863	13236
904.981	12935
905.098	12859
905.216	12920
905.334	12909
905.451	12894
905.569	12875
905.686	12913
905.803	12840
905.921	12798
906.038	12757
906.155	12757
906.272	12646
906.389	12559
906.506	12517
906.623	12426
906.74	12448
906.857	12350
906.974	12418
907.091	12559
907.208	12540
907.324	12532
907.441	12418
907.557	12296
907.674	12266
907.79	12190
907.907	12186
908.023	12163
908.139	12194
908.256	12148
908.372	12178
908.488	12079
908.604	12041
908.72	11897
908.836	12030
908.952	11977
909.068	11984
909.184	12117
909.3	12030
909.415	12072
909.531	12003
909.647	11741
909.762	11710
909.878	11707
909.993	11748
910.108	11688
910.224	11748
910.339	11722
910.454	11638
910.57	11558
910.685	11539
910.8	11767
910.915	11737
911.03	11581
911.145	11452
911.259	11463
911.374	11410
911.489	11364
911.604	11269
911.718	11212
911.833	11239
911.947	11048
912.062	11060
912.176	11132
912.291	11254
912.405	11124
912.519	11353
912.633	11360
912.748	11254
912.862	11151
912.976	11048
913.09	10965
913.204	10968
913.318	11071
913.431	11159
913.545	11124
913.659	11216
913.772	11083
913.886	10957
914	10961
914.113	11064
914.226	11056
914.34	11003
914.453	10839
914.566	11003
914.68	10873
914.793	10892
914.906	10736
915.019	10645
915.132	10565
915.245	10679
915.358	10748
915.47	10687
915.583	10710
915.696	10645
915.809	10725
915.921	10816
916.034	10668
916.146	10542
916.259	10588
916.371	10714
916.483	10752
916.595	10531
916.708	10637
916.82	10535
916.932	10565
917.044	10592
917.156	10554
917.268	10531
917.38	10527
917.491	10428
917.603	10538
917.715	10611
917.826	10641
917.938	10459
918.049	10398
918.161	10569
918.272	10691
918.384	10645
918.495	10462
918.606	10447
918.717	10295
918.828	10470
918.939	10402
919.05	10238
919.161	10360
919.272	10166
919.383	10303
919.494	10451
919.604	10615
919.715	10462
919.826	10306
919.936	10371
920.047	10451
920.157	10508
920.267	10546
920.378	10360
920.488	10360
920.598	10592
920.708	10611
920.818	10546
920.928	10550
921.038	10759
921.148	10710
921.258	10481
921.368	10432
921.477	10230
921.587	10234
921.697	10112
921.806	10227
921.916	10207
922.025	10029
922.134	9937
922.244	9968
922.353	10010
922.462	9835
922.571	9667
922.68	9679
922.789	9629
922.898	9618
923.007	9553
923.116	9633
923.224	9610
923.333	9690
923.442	9515
923.55	9523
923.659	9511
923.767	9625
923.876	9515
923.984	9545
924.092	9393
924.201	9504
924.309	9481
924.417	9523
924.525	9439
924.633	9481
924.741	10375
924.849	9237
924.956	9435
925.064	9222
925.172	9264
925.279	9253
925.387	9283
925.494	9351
925.602	9431
925.709	9370
925.816	9222
925.924	9306
926.031	9355
926.138	9272
926.245	9382
926.352	9253
926.459	9397
926.566	9313
926.673	9226
926.779	9184
926.886	9112
926.993	9085
927.099	9028
927.206	8906
927.312	8941
927.419	8982
927.525	9009
927.631	9032
927.737	8933
927.843	8872
927.95	8792
928.056	8853
928.162	8910
928.267	8952
928.373	9477
928.479	8914
928.585	8697
928.69	8830
928.796	8956
928.901	8743
929.007	8663
929.112	8807
929.218	8689
929.323	8758
929.428	8651
929.533	8826
929.638	8678
929.743	8705
929.848	8670
929.953	8625
930.058	8621
930.163	8461
930.267	8492
930.372	8686
930.477	8495
930.581	8697
930.685	8514
930.79	8393
930.894	8457
930.998	8412
931.103	8484
931.207	8206
931.311	8138
931.415	8081
931.519	7902
931.623	7902
