Data from test_V78500241_1267.txt Node
Date: Fri Mar 25 14:42:32 CST 2022
User: usil
Spectrometer: V785-0024
Trigger mode: 0
Integration Time (sec): 4.000000E-1
Scans to average: 1
Nonlinearity correction enabled: false
Boxcar width: 0
Storing dark spectrum: false
XAxis mode: Wavelengths
Number of Pixels in Spectrum: 1024
>>>>>Begin Spectral Data<<<<<
801.071	22390
801.214	22341
801.356	21983
801.499	22051
801.641	21778
801.783	21720
801.926	21667
802.068	21671
802.211	21701
802.353	21405
802.496	21344
802.638	21154
802.78	21329
802.923	21081
803.065	21108
803.208	21085
803.35	21066
803.492	21169
803.635	21233
803.777	21051
803.919	21294
804.061	21408
804.204	21131
804.346	21005
804.488	20883
804.63	21001
804.773	21028
804.915	21070
805.057	21241
805.199	20994
805.341	21066
805.483	21157
805.626	21173
805.768	20937
805.91	20990
806.052	20967
806.194	20842
806.336	21268
806.478	21001
806.62	20956
806.762	21180
806.904	21241
807.046	21382
807.188	21317
807.33	21344
807.472	21389
807.614	21359
807.756	21336
807.898	21245
808.04	21135
808.182	21146
808.324	21165
808.465	21195
808.607	21462
808.749	21511
808.891	21671
809.033	21755
809.174	21732
809.316	21389
809.458	21496
809.6	21420
809.741	21618
809.883	21557
810.025	21637
810.166	21618
810.308	21671
810.45	21561
810.591	21469
810.733	21351
810.875	21192
811.016	21089
811.158	21013
811.299	21245
811.441	21386
811.582	21408
811.724	21237
811.865	21256
812.007	21195
812.148	21241
812.29	21222
812.431	21370
812.573	21492
812.714	21523
812.855	21751
812.997	21755
813.138	21861
813.279	21629
813.421	21591
813.562	21572
813.703	21260
813.845	21348
813.986	21009
814.127	20845
814.268	20674
814.41	20727
814.551	20689
814.692	20800
814.833	20708
814.974	20743
815.115	20762
815.256	20495
815.397	20454
815.539	20659
815.68	20503
815.821	20362
815.962	20629
816.103	20415
816.244	20298
816.385	20183
816.526	20107
816.666	20050
816.807	19845
816.948	19936
817.089	20065
817.23	19921
817.371	19978
817.512	19890
817.653	19932
817.793	19830
817.934	20031
818.075	20020
818.216	19902
818.356	19871
818.497	19734
818.638	19567
818.778	19556
818.919	19639
819.06	19590
819.2	19712
819.341	19723
819.481	19799
819.622	19875
819.762	20084
819.903	19986
820.043	19902
820.184	19925
820.324	19951
820.465	20024
820.605	19887
820.746	19780
820.886	19750
821.026	19807
821.167	19837
821.307	19986
821.447	19845
821.588	19700
821.728	19552
821.868	19362
822.008	19244
822.149	19263
822.289	19232
822.429	19034
822.569	18989
822.709	18943
822.849	18859
822.99	18825
823.13	18772
823.27	18726
823.41	18650
823.55	18582
823.69	18593
823.83	18597
823.97	18479
824.11	18308
824.25	18448
824.389	18346
824.529	18380
824.669	18445
824.809	18384
824.949	18384
825.089	18441
825.228	18422
825.368	18174
825.508	18076
825.648	18129
825.787	18266
825.927	18281
826.067	18247
826.206	18011
826.346	18125
826.485	18171
826.625	18022
826.765	18338
826.904	18140
827.044	17851
827.183	17866
827.323	17760
827.462	17882
827.601	17805
827.741	17870
827.88	17935
828.02	17718
828.159	17843
828.298	17878
828.437	17866
828.577	17847
828.716	17882
828.855	17885
828.994	17687
829.134	17699
829.273	17600
829.412	17581
829.551	17589
829.69	17642
829.829	17619
829.968	17771
830.107	17737
830.246	17627
830.385	17566
830.524	17570
830.663	17417
830.802	17406
830.941	17220
831.08	17208
831.219	17391
831.357	17334
831.496	17482
831.635	17269
831.774	17220
831.913	17113
832.051	16984
832.19	17147
832.329	17151
832.467	16885
832.606	16889
832.744	16972
832.883	16957
833.022	16957
833.16	17075
833.299	16991
833.437	16972
833.576	16919
833.714	17166
833.852	16953
833.991	16987
834.129	17083
834.267	17094
834.406	17075
834.544	17052
834.682	17064
834.821	17029
834.959	17155
835.097	16927
835.235	17075
835.373	16987
835.511	17067
835.65	16877
835.788	16919
835.926	16812
836.064	16672
836.202	16736
836.34	17067
836.478	16915
836.615	16828
836.753	17033
836.891	17045
837.029	16987
837.167	16930
837.305	16805
837.443	16797
837.58	16839
837.718	16816
837.856	16744
837.993	16733
838.131	16801
838.269	16675
838.406	16706
838.544	16599
838.681	16596
838.819	16390
838.956	16352
839.094	16299
839.231	16493
839.369	16459
839.506	16664
839.643	16542
839.781	16371
839.918	16390
840.055	16413
840.193	16284
840.33	16325
840.467	16428
840.604	16402
840.742	16550
840.879	16200
841.016	16314
841.153	16226
841.29	16371
841.427	16272
841.564	16394
841.701	16375
841.838	16215
841.975	16192
842.112	16169
842.249	16105
842.385	16067
842.522	16314
842.659	16204
842.796	16120
842.933	16013
843.069	16124
843.206	16036
843.343	16086
843.479	16048
843.616	16242
843.752	15842
843.889	15831
844.025	16048
844.162	15915
844.298	15964
844.435	15873
844.571	15876
844.708	15956
844.844	16067
844.98	16051
845.117	16032
845.253	15800
845.389	15842
845.525	15838
845.661	15895
845.798	15694
845.934	15869
846.07	15766
846.206	15846
846.342	15953
846.478	15842
846.614	15660
846.75	15466
846.886	15340
847.022	15511
847.158	15458
847.294	15500
847.429	15622
847.565	15439
847.701	15732
847.837	15116
847.972	15131
848.108	15226
848.244	15256
848.379	15119
848.515	15009
848.65	15051
848.786	15066
848.921	15077
849.057	15150
849.192	15195
849.328	15104
849.463	15104
849.598	14963
849.734	15074
849.869	14914
850.004	14826
850.14	14845
850.275	14864
850.41	14800
850.545	14663
850.68	14739
850.815	14899
850.95	14716
851.085	14960
851.22	14815
851.355	14819
851.49	14845
851.625	14834
851.76	14834
851.895	14800
852.03	14701
852.165	14811
852.299	14800
852.434	14910
852.569	14857
852.703	14960
852.838	14933
852.973	14998
853.107	14975
853.242	14765
853.376	14640
853.511	14583
853.645	14670
853.78	14864
853.914	14625
854.048	14613
854.183	14617
854.317	14727
854.451	14750
854.585	14655
854.72	14636
854.854	14769
854.988	14606
855.122	14659
855.256	14667
855.39	14731
855.524	14758
855.658	14712
855.792	14743
855.926	14701
856.06	14674
856.194	14781
856.327	14686
856.461	14549
856.595	14648
856.729	14579
856.862	14785
856.996	14731
857.13	14731
857.263	14758
857.397	14804
857.53	14682
857.664	14765
857.797	14727
857.931	14845
858.064	14678
858.197	14807
858.331	14667
858.464	14750
858.597	14590
858.731	14697
858.864	14636
858.997	14579
859.13	14663
859.263	14724
859.396	14849
859.529	14590
859.662	14670
859.795	14575
859.928	14674
860.061	14864
860.194	14899
860.327	14777
860.46	14697
860.592	14819
860.725	14830
860.858	14826
860.99	14731
861.123	14590
861.256	14667
861.388	14712
861.521	15469
861.653	14644
861.786	14530
861.918	14484
862.05	14621
862.183	14678
862.315	14716
862.447	14705
862.58	14594
862.712	14393
862.844	14469
862.976	14454
863.108	14473
863.24	14960
863.372	14404
863.504	14393
863.636	14400
863.768	14358
863.9	14499
864.032	14412
864.164	14488
864.296	14495
864.428	14579
864.559	14476
864.691	14522
864.823	14511
864.954	14511
865.086	14549
865.217	14438
865.349	14419
865.48	14446
865.612	14511
865.743	14636
865.875	14423
866.006	14461
866.137	14442
866.269	14461
866.4	14423
866.531	14438
866.662	14309
866.793	14530
866.924	14450
867.055	14434
867.186	14396
867.317	14294
867.448	14431
867.579	14313
867.71	14434
867.841	14355
867.972	14374
868.103	14499
868.233	14393
868.364	14419
868.495	14571
868.625	14648
868.756	14804
868.886	14640
869.017	14587
869.147	14754
869.278	14826
869.408	14701
869.539	14686
869.669	14739
869.799	14815
869.929	14758
870.06	14906
870.19	15085
870.32	15074
870.45	15039
870.58	15165
870.71	15268
870.84	15161
870.97	15085
871.1	15093
871.23	15272
871.36	15317
871.489	15135
871.619	15351
871.749	15264
871.879	15291
872.008	15439
872.138	15245
872.267	15279
872.397	15112
872.526	15119
872.656	15116
872.785	15154
872.915	15336
873.044	15325
873.173	15374
873.303	15412
873.432	15397
873.561	15374
873.69	15401
873.819	15473
873.948	15321
874.077	15420
874.206	15386
874.335	15408
874.464	15515
874.593	15656
874.722	15622
874.851	15591
874.979	15713
875.108	15682
875.237	15641
875.365	15580
875.494	15656
875.623	15698
875.751	15606
875.88	15728
876.008	15797
876.136	15835
876.265	16082
876.393	16097
876.521	16074
876.65	16162
876.778	16109
876.906	16032
877.034	15895
877.162	16112
877.29	15979
877.418	16051
877.546	16086
877.674	16154
877.802	16040
877.93	16055
878.058	16017
878.185	16051
878.313	16010
878.441	16086
878.568	15956
878.696	16025
878.824	16086
878.951	16139
879.079	16242
879.206	16417
879.333	16246
879.461	16154
879.588	16257
879.715	16318
879.842	16303
879.97	16116
880.097	15880
880.224	15812
880.351	16002
880.478	15926
880.605	15960
880.732	15850
880.859	16158
880.986	15949
881.112	16002
881.239	15743
881.366	15625
881.493	15633
881.619	15610
881.746	15530
881.872	15584
881.999	15534
882.125	15633
882.252	15622
882.378	15564
882.505	15679
882.631	15523
882.757	15443
882.883	15374
883.01	15325
883.136	15351
883.262	15252
883.388	15203
883.514	15428
883.64	15424
883.766	15351
883.892	15157
884.018	15077
884.143	15332
884.269	15473
884.395	15093
884.52	15062
884.646	15169
884.772	15108
884.897	14948
885.023	15157
885.148	15116
885.274	15245
885.399	15161
885.524	15097
885.65	15028
885.775	15013
885.9	15043
886.025	15256
886.15	15142
886.275	15009
886.4	14910
886.525	15070
886.65	14975
886.775	14967
886.9	15233
887.025	15260
887.149	15097
887.274	14960
887.399	14853
887.523	14963
887.648	14815
887.773	14857
887.897	14967
888.021	14948
888.146	14895
888.27	15020
888.395	14986
888.519	14929
888.643	14906
888.767	14963
888.891	14716
889.015	14693
889.139	14777
889.263	14796
889.387	14861
889.511	14963
889.635	14864
889.759	14693
889.883	14720
890.006	14845
890.13	14804
890.254	14678
890.377	14769
890.501	14564
890.624	14541
890.748	14556
890.871	14408
890.995	14412
891.118	14339
891.241	14408
891.364	14480
891.488	14507
891.611	14438
891.734	14514
891.857	14511
891.98	14545
892.103	14537
892.226	14434
892.349	14408
892.471	14362
892.594	14434
892.717	14415
892.839	14358
892.962	14495
893.085	14579
893.207	14446
893.33	14343
893.452	14328
893.575	14412
893.697	14423
893.819	14583
893.941	14689
894.064	14571
894.186	14427
894.308	14385
894.43	14636
894.552	14575
894.674	14575
894.796	14385
894.918	14522
895.04	14533
895.161	14514
895.283	14590
895.405	14355
895.526	14530
895.648	14503
895.769	14594
895.891	14594
896.012	14678
896.134	14705
896.255	14564
896.376	14507
896.498	14598
896.619	14663
896.74	14644
896.861	14648
896.982	14902
897.103	14982
897.224	14933
897.345	14800
897.466	14796
897.587	14811
897.708	14937
897.828	15013
897.949	14807
898.07	14750
898.19	14765
898.311	14956
898.431	14834
898.552	14933
898.672	15005
898.792	14956
898.913	14971
899.033	14834
899.153	14754
899.273	14655
899.393	14781
899.513	14823
899.633	14785
899.753	14800
899.873	14708
899.993	14807
900.113	14754
900.232	14902
900.352	14716
900.472	14632
900.591	14533
900.711	14701
900.83	14621
900.95	14743
901.069	14708
901.189	14552
901.308	14263
901.427	14263
901.546	14305
901.665	14282
901.784	14343
901.904	14240
902.023	14202
902.141	13955
902.26	13883
902.379	13993
902.498	13826
902.617	13864
902.735	13913
902.854	13841
902.973	13731
903.091	13548
903.21	13563
903.328	13624
903.446	13537
903.565	13464
903.683	13464
903.801	13266
903.919	13415
904.038	13335
904.156	13285
904.274	13438
904.392	13206
904.51	13206
904.627	13240
904.745	13346
904.863	13377
904.981	13156
905.098	12882
905.216	13027
905.334	12856
905.451	12924
905.569	12962
905.686	13019
905.803	13000
905.921	12856
906.038	12859
906.155	12776
906.272	12642
906.389	12719
906.506	12509
906.623	12532
906.74	12582
906.857	12403
906.974	12509
907.091	12578
907.208	12791
907.324	12608
907.441	12551
907.557	12338
907.674	12281
907.79	12194
907.907	12285
908.023	12350
908.139	12342
908.256	12220
908.372	12247
908.488	12178
908.604	12106
908.72	12125
908.836	12110
908.952	12053
909.068	12064
909.184	12205
909.3	12072
909.415	12121
909.531	12152
909.647	11927
909.762	11809
909.878	11828
909.993	11843
910.108	11855
910.224	11824
910.339	11912
910.454	11745
910.57	11615
910.685	11634
910.8	11859
910.915	11870
911.03	11729
911.145	11554
911.259	11543
911.374	11501
911.489	11410
911.604	11493
911.718	11254
911.833	11307
911.947	11166
912.062	11071
912.176	11250
912.291	11341
912.405	11223
912.519	11421
912.633	11429
912.748	11303
912.862	11334
912.976	11151
913.09	11010
913.204	11136
913.318	11166
913.431	11277
913.545	11246
913.659	11220
913.772	11121
913.886	11048
914	11109
914.113	11189
914.226	11147
914.34	11098
914.453	10892
914.566	11037
914.68	10934
914.793	10961
914.906	10824
915.019	10767
915.132	10656
915.245	10733
915.358	10793
915.47	10767
915.583	10843
915.696	10839
915.809	10889
915.921	10915
916.034	10767
916.146	10752
916.259	10687
916.371	10793
916.483	10687
916.595	10660
916.708	10740
916.82	10683
916.932	10645
917.044	10675
917.156	10675
917.268	10538
917.38	10615
917.491	10516
917.603	10607
917.715	10622
917.826	10694
917.938	10535
918.049	10432
918.161	10611
918.272	10668
918.384	10736
918.495	10565
918.606	10504
918.717	10428
918.828	10474
918.939	10443
919.05	10363
919.161	10462
919.272	10314
919.383	10333
919.494	10535
919.604	10729
919.715	10485
919.826	10382
919.936	10417
920.047	10538
920.157	10516
920.267	10683
920.378	10542
920.488	10508
920.598	10679
920.708	10725
920.818	10748
920.928	10733
921.038	10908
921.148	10828
921.258	10474
921.368	10440
921.477	10417
921.587	10341
921.697	10211
921.806	10322
921.916	10211
922.025	10032
922.134	10051
922.244	9991
922.353	10105
922.462	9960
922.571	9793
922.68	9690
922.789	9743
922.898	9785
923.007	9701
923.116	9747
923.224	9736
923.333	9679
923.442	9557
923.55	9534
923.659	9656
923.767	9584
923.876	9572
923.984	9622
924.092	9496
924.201	9538
924.309	9530
924.417	9629
924.525	9473
924.633	9526
924.741	10318
924.849	9336
924.956	9405
925.064	9405
925.172	9199
925.279	9332
925.387	9386
925.494	9374
925.602	9534
925.709	9488
925.816	9294
925.924	9367
926.031	9393
926.138	9336
926.245	9420
926.352	9260
926.459	9458
926.566	9393
926.673	9298
926.779	9218
926.886	9226
926.993	9097
927.099	9036
927.206	9055
927.312	9013
927.419	9104
927.525	8986
927.631	9116
927.737	8963
927.843	8918
927.95	8823
928.056	8952
928.162	8887
928.267	8994
928.373	9660
928.479	8994
928.585	8830
928.69	8906
928.796	8921
928.901	8872
929.007	8724
929.112	8872
929.218	8845
929.323	8788
929.428	8811
929.533	8872
929.638	8769
929.743	8712
929.848	8853
929.953	8785
930.058	8644
930.163	8511
930.267	8507
930.372	8575
930.477	8549
930.581	8807
930.685	8670
930.79	8514
930.894	8514
930.998	8427
931.103	8648
931.207	8263
931.311	8301
931.415	8157
931.519	7928
931.623	7951
