Data from test_V78500241_2036.txt Node
Date: Fri Mar 25 14:47:53 CST 2022
User: usil
Spectrometer: V785-0024
Trigger mode: 0
Integration Time (sec): 4.000000E-1
Scans to average: 1
Nonlinearity correction enabled: false
Boxcar width: 0
Storing dark spectrum: false
XAxis mode: Wavelengths
Number of Pixels in Spectrum: 1024
>>>>>Begin Spectral Data<<<<<
801.071	22135
801.214	22021
801.356	21675
801.499	21660
801.641	21545
801.783	21488
801.926	21473
802.068	21485
802.211	21420
802.353	21355
802.496	21127
802.638	20876
802.78	20868
802.923	20727
803.065	20758
803.208	20804
803.35	20902
803.492	20941
803.635	20887
803.777	20819
803.919	20880
804.061	21188
804.204	20895
804.346	20731
804.488	20678
804.63	20781
804.773	20689
804.915	20743
805.057	20948
805.199	20674
805.341	20765
805.483	20815
805.626	20864
805.768	20705
805.91	20811
806.052	20735
806.194	20663
806.336	20952
806.478	20830
806.62	20632
806.762	20796
806.904	21070
807.046	21150
807.188	21020
807.33	21024
807.472	21093
807.614	21024
807.756	21024
807.898	20811
808.04	20670
808.182	20842
808.324	20819
808.465	20891
808.607	21058
808.749	21127
808.891	21226
809.033	21245
809.174	21112
809.316	21207
809.458	21085
809.6	21051
809.741	21066
809.883	21100
810.025	21306
810.166	21370
810.308	21203
810.45	21272
810.591	21241
810.733	21077
810.875	20914
811.016	20804
811.158	20883
811.299	21058
811.441	21024
811.582	21062
811.724	20872
811.865	20910
812.007	20891
812.148	20804
812.29	20982
812.431	21104
812.573	21249
812.714	21298
812.855	21424
812.997	21485
813.138	21679
813.279	21428
813.421	21454
813.562	21272
813.703	21085
813.845	21024
813.986	20830
814.127	20663
814.268	20522
814.41	20473
814.551	20446
814.692	20492
814.833	20358
814.974	20294
815.115	20465
815.256	20313
815.397	20191
815.539	20328
815.68	20103
815.821	20214
815.962	20138
816.103	20043
816.244	20077
816.385	19940
816.526	19944
816.666	19803
816.807	19510
816.948	19556
817.089	19738
817.23	19472
817.371	19476
817.512	19525
817.653	19597
817.793	19518
817.934	19559
818.075	19643
818.216	19590
818.356	19548
818.497	19510
818.638	19209
818.778	19278
818.919	19285
819.06	19255
819.2	19400
819.341	19415
819.481	19369
819.622	19472
819.762	19833
819.903	19757
820.043	19514
820.184	19514
820.324	19514
820.465	19521
820.605	19548
820.746	19491
820.886	19362
821.026	19457
821.167	19464
821.307	19575
821.447	19521
821.588	19419
821.728	19324
821.868	18993
822.008	19012
822.149	18920
822.289	18856
822.429	18829
822.569	18597
822.709	18726
822.849	18517
822.99	18467
823.13	18407
823.27	18361
823.41	18201
823.55	18220
823.69	18270
823.83	18342
823.97	18243
824.11	18011
824.25	18053
824.389	17965
824.529	18171
824.669	18057
824.809	18095
824.949	18064
825.089	18068
825.228	18045
825.368	17790
825.508	17783
825.648	17790
825.787	17840
825.927	17840
826.067	17828
826.206	17901
826.346	17851
826.485	17802
826.625	17752
826.765	17916
826.904	17836
827.044	17535
827.183	17535
827.323	17482
827.462	17509
827.601	17501
827.741	17474
827.88	17524
828.02	17455
828.159	17444
828.298	17581
828.437	17436
828.577	17474
828.716	17619
828.855	17493
828.994	17353
829.134	17254
829.273	17246
829.412	17193
829.551	17227
829.69	17254
829.829	17235
829.968	17326
830.107	17307
830.246	17353
830.385	17307
830.524	17143
830.663	17102
830.802	16995
830.941	16930
831.08	16892
831.219	17033
831.357	16908
831.496	17170
831.635	16850
831.774	16809
831.913	16847
832.051	16615
832.19	16653
832.329	16736
832.467	16622
832.606	16519
832.744	16512
832.883	16588
833.022	16611
833.16	16569
833.299	16573
833.437	16637
833.576	16599
833.714	16558
833.852	16668
833.991	16645
834.129	16622
834.267	16721
834.406	16607
834.544	16622
834.682	16634
834.821	16702
834.959	16854
835.097	16603
835.235	16771
835.373	16641
835.511	16664
835.65	16546
835.788	16554
835.926	16402
836.064	16447
836.202	16409
836.34	16592
836.478	16687
836.615	16504
836.753	16618
836.891	16554
837.029	16615
837.167	16421
837.305	16478
837.443	16459
837.58	16379
837.718	16474
837.856	16493
837.993	16360
838.131	16386
838.269	16371
838.406	16322
838.544	16333
838.681	16177
838.819	16112
838.956	15899
839.094	15953
839.231	16002
839.369	15987
839.506	16223
839.643	16173
839.781	15987
839.918	15937
840.055	16147
840.193	15941
840.33	15972
840.467	15934
840.604	16055
840.742	16169
840.879	15823
841.016	15907
841.153	15827
841.29	16078
841.427	15926
841.564	15926
841.701	16074
841.838	15823
841.975	15895
842.112	15873
842.249	15861
842.385	15728
842.522	15899
842.659	15713
842.796	15701
842.933	15755
843.069	15698
843.206	15675
843.343	15804
843.479	15732
843.616	15766
843.752	15561
843.889	15538
844.025	15644
844.162	15633
844.298	15637
844.435	15511
844.571	15389
844.708	15534
844.844	15732
844.98	15603
845.117	15671
845.253	15439
845.389	15454
845.525	15393
845.661	15374
845.798	15230
845.934	15378
846.07	15287
846.206	15378
846.342	15447
846.478	15291
846.614	15154
846.75	15104
846.886	15188
847.022	15199
847.158	14994
847.294	15089
847.429	15123
847.565	15051
847.701	15306
847.837	14853
847.972	14765
848.108	14979
848.244	14823
848.379	14697
848.515	14640
848.65	14610
848.786	14731
848.921	14705
849.057	14956
849.192	14811
849.328	14701
849.463	14811
849.598	14708
849.734	14602
849.869	14556
850.004	14465
850.14	14621
850.275	14488
850.41	14351
850.545	14423
850.68	14408
850.815	14473
850.95	14526
851.085	14724
851.22	14530
851.355	14549
851.49	14423
851.625	14374
851.76	14419
851.895	14366
852.03	14404
852.165	14461
852.299	14438
852.434	14419
852.569	14469
852.703	14583
852.838	14602
852.973	14590
853.107	14602
853.242	14431
853.376	14385
853.511	14206
853.645	14336
853.78	14552
853.914	14336
854.048	14408
854.183	14400
854.317	14412
854.451	14484
854.585	14366
854.72	14298
854.854	14336
854.988	14218
855.122	14339
855.256	14256
855.39	14305
855.524	14431
855.658	14511
855.792	14385
855.926	14370
856.06	14484
856.194	14400
856.327	14317
856.461	14313
856.595	14324
856.729	14313
856.862	14412
856.996	14385
857.13	14377
857.263	14473
857.397	14530
857.53	14343
857.664	14400
857.797	14484
857.931	14461
858.064	14431
858.197	14431
858.331	14305
858.464	14301
858.597	14298
858.731	14370
858.864	14317
858.997	14389
859.13	14332
859.263	14339
859.396	14469
859.529	14377
859.662	14320
859.795	14336
859.928	14442
860.061	14594
860.194	14545
860.327	14415
860.46	14381
860.592	14419
860.725	14473
860.858	14541
860.99	14362
861.123	14267
861.256	14309
861.388	14324
861.521	15077
861.653	14244
861.786	14149
861.918	14290
862.05	14248
862.183	14381
862.315	14415
862.447	14400
862.58	14408
862.712	14081
862.844	14103
862.976	14252
863.108	14180
863.24	14484
863.372	14077
863.504	14111
863.636	14035
863.768	14240
863.9	14168
864.032	13989
864.164	14096
864.296	14115
864.428	14237
864.559	14282
864.691	14233
864.823	14233
864.954	14180
865.086	14199
865.217	14069
865.349	14039
865.48	14161
865.612	14100
865.743	14221
865.875	14142
866.006	14111
866.137	14138
866.269	14100
866.4	14187
866.531	14065
866.662	14126
866.793	14031
866.924	14046
867.055	14161
867.186	14081
867.317	14161
867.448	13993
867.579	14073
867.71	14008
867.841	13997
867.972	14119
868.103	14073
868.233	14229
868.364	14092
868.495	14237
868.625	14244
868.756	14366
868.886	14278
869.017	14374
869.147	14427
869.278	14507
869.408	14278
869.539	14362
869.669	14495
869.799	14400
869.929	14442
870.06	14484
870.19	14743
870.32	14651
870.45	14625
870.58	14735
870.71	14960
870.84	14941
870.97	14765
871.1	14731
871.23	14941
871.36	15058
871.489	14845
871.619	14883
871.749	14918
871.879	14948
872.008	15024
872.138	14944
872.267	14998
872.397	14712
872.526	14769
872.656	14716
872.785	14868
872.915	14944
873.044	15154
873.173	15058
873.303	14960
873.432	14963
873.561	15157
873.69	15123
873.819	15066
873.948	15055
874.077	14883
874.206	15070
874.335	15036
874.464	15173
874.593	15268
874.722	15173
874.851	15294
874.979	15344
875.108	15344
875.237	15256
875.365	15184
875.494	15351
875.623	15401
875.751	15355
875.88	15477
876.008	15450
876.136	15584
876.265	15739
876.393	15899
876.521	15797
876.65	15892
876.778	15774
876.906	15713
877.034	15660
877.162	15698
877.29	15667
877.418	15812
877.546	15804
877.674	15682
877.802	15698
877.93	15827
878.058	15698
878.185	15610
878.313	15660
878.441	15770
878.568	15622
878.696	15701
878.824	15804
878.951	15789
879.079	15915
879.206	16036
879.333	15892
879.461	15778
879.588	15819
879.715	15892
879.842	15991
879.97	15778
880.097	15549
880.224	15629
880.351	15644
880.478	15568
880.605	15652
880.732	15435
880.859	15800
880.986	15637
881.112	15580
881.239	15572
881.366	15450
881.493	15237
881.619	15222
881.746	15306
881.872	15161
881.999	15199
882.125	15245
882.252	15237
882.378	15275
882.505	15389
882.631	15192
882.757	15085
882.883	15157
883.01	15039
883.136	15013
883.262	14899
883.388	14948
883.514	14982
883.64	15131
883.766	14998
883.892	14811
884.018	14868
884.143	15039
884.269	15222
884.395	14864
884.52	14720
884.646	14792
884.772	14712
884.897	14739
885.023	14727
885.148	14902
885.274	14861
885.399	14948
885.524	14758
885.65	14807
885.775	14868
885.9	14735
886.025	14910
886.15	14910
886.275	14785
886.4	14708
886.525	14712
886.65	14720
886.775	14682
886.9	14815
887.025	15024
887.149	14838
887.274	14549
887.399	14514
887.523	14537
887.648	14594
887.773	14480
887.897	14625
888.021	14689
888.146	14533
888.27	14716
888.395	14777
888.519	14701
888.643	14625
888.767	14651
888.891	14511
889.015	14450
889.139	14442
889.263	14377
889.387	14522
889.511	14606
889.635	14545
889.759	14465
889.883	14358
890.006	14469
890.13	14518
890.254	14347
890.377	14389
890.501	14313
890.624	14286
890.748	14290
890.871	14157
890.995	14142
891.118	14039
891.241	14134
891.364	14153
891.488	14172
891.611	14096
891.734	14100
891.857	14206
891.98	14145
892.103	14301
892.226	14130
892.349	14157
892.471	14027
892.594	14115
892.717	14092
892.839	14100
892.962	14134
893.085	14290
893.207	14088
893.33	13974
893.452	14065
893.575	14123
893.697	14134
893.819	14259
893.941	14309
894.064	14298
894.186	14088
894.308	14100
894.43	14301
894.552	14381
894.674	14301
894.796	14168
894.918	14176
895.04	14111
895.161	14324
895.283	14336
895.405	14176
895.526	14267
895.648	14298
895.769	14286
895.891	14252
896.012	14347
896.134	14450
896.255	14355
896.376	14221
896.498	14290
896.619	14305
896.74	14271
896.861	14450
896.982	14670
897.103	14819
897.224	14537
897.345	14598
897.466	14499
897.587	14651
897.708	14712
897.828	14815
897.949	14503
898.07	14393
898.19	14602
898.311	14705
898.431	14678
898.552	14655
898.672	14804
898.792	14819
898.913	14636
899.033	14541
899.153	14587
899.273	14488
899.393	14495
899.513	14610
899.633	14507
899.753	14492
899.873	14545
899.993	14514
900.113	14507
900.232	14518
900.352	14560
900.472	14366
900.591	14328
900.711	14454
900.83	14404
900.95	14537
901.069	14454
901.189	14450
901.308	14157
901.427	14130
901.546	14031
901.665	14138
901.784	14096
901.904	13959
902.023	13864
902.141	13632
902.26	13548
902.379	13746
902.498	13636
902.617	13628
902.735	13662
902.854	13647
902.973	13567
903.091	13403
903.21	13331
903.328	13320
903.446	13365
903.565	13194
903.683	13244
903.801	13175
903.919	13080
904.038	13145
904.156	13103
904.274	13053
904.392	12985
904.51	13008
904.627	12977
904.745	12966
904.863	13034
904.981	12806
905.098	12688
905.216	12749
905.334	12776
905.451	12654
905.569	12662
905.686	12764
905.803	12700
905.921	12506
906.038	12604
906.155	12475
906.272	12372
906.389	12426
906.506	12365
906.623	12266
906.74	12380
906.857	12205
906.974	12186
907.091	12311
907.208	12407
907.324	12304
907.441	12148
907.557	12095
907.674	12087
907.79	12114
907.907	12022
908.023	12159
908.139	12041
908.256	11939
908.372	12011
908.488	11946
908.604	11904
908.72	11775
908.836	11794
908.952	11897
909.068	11676
909.184	11927
909.3	11863
909.415	11882
909.531	11817
909.647	11539
909.762	11619
909.878	11520
909.993	11619
910.108	11570
910.224	11528
910.339	11509
910.454	11440
910.57	11501
910.685	11318
910.8	11634
910.915	11558
911.03	11486
911.145	11318
911.259	11231
911.374	11273
911.489	11181
911.604	11083
911.718	11014
911.833	11010
911.947	10999
912.062	10961
912.176	11033
912.291	11079
912.405	11033
912.519	11204
912.633	11322
912.748	11121
912.862	11056
912.976	10839
913.09	10763
913.204	10881
913.318	10896
913.431	10999
913.545	10972
913.659	11014
913.772	10858
913.886	10805
914	10774
914.113	10858
914.226	10953
914.34	10919
914.453	10691
914.566	10869
914.68	10774
914.793	10714
914.906	10573
915.019	10451
915.132	10417
915.245	10504
915.358	10497
915.47	10584
915.583	10615
915.696	10558
915.809	10744
915.921	10714
916.034	10542
916.146	10546
916.259	10421
916.371	10554
916.483	10538
916.595	10519
916.708	10455
916.82	10504
916.932	10409
917.044	10409
917.156	10409
917.268	10265
917.38	10344
917.491	10356
917.603	10379
917.715	10489
917.826	10398
917.938	10344
918.049	10272
918.161	10344
918.272	10508
918.384	10497
918.495	10394
918.606	10333
918.717	10158
918.828	10272
918.939	10200
919.05	10173
919.161	10166
919.272	10059
919.383	10086
919.494	10284
919.604	10542
919.715	10242
919.826	10166
919.936	10162
920.047	10329
920.157	10322
920.267	10432
920.378	10356
920.488	10246
920.598	10493
920.708	10584
920.818	10428
920.928	10478
921.038	10607
921.148	10596
921.258	10314
921.368	10185
921.477	10090
921.587	10090
921.697	9994
921.806	10135
921.916	10006
922.025	9800
922.134	9800
922.244	9724
922.353	9857
922.462	9705
922.571	9614
922.68	9534
922.789	9534
922.898	9504
923.007	9431
923.116	9595
923.224	9492
923.333	9515
923.442	9435
923.55	9355
923.659	9450
923.767	9431
923.876	9340
923.984	9397
924.092	9249
924.201	9401
924.309	9420
924.417	9389
924.525	9332
924.633	9332
924.741	10227
924.849	9165
924.956	9294
925.064	9214
925.172	9062
925.279	9116
925.387	9180
925.494	9157
925.602	9310
925.709	9268
925.816	9085
925.924	9176
926.031	9241
926.138	9131
926.245	9256
926.352	9081
926.459	9154
926.566	9253
926.673	9119
926.779	8979
926.886	8967
926.993	8891
927.099	8834
927.206	8777
927.312	8788
927.419	9020
927.525	8880
927.631	8876
927.737	8800
927.843	8667
927.95	8663
928.056	8788
928.162	8785
928.267	8830
928.373	9420
928.479	8845
928.585	8598
928.69	8785
928.796	8792
928.901	8686
929.007	8476
929.112	8667
929.218	8701
929.323	8693
929.428	8549
929.533	8724
929.638	8556
929.743	8522
929.848	8613
929.953	8518
930.058	8518
930.163	8362
930.267	8343
930.372	8465
930.477	8343
930.581	8617
930.685	8400
930.79	8309
930.894	8294
930.998	8267
931.103	8404
931.207	8123
931.311	8027
931.415	8027
931.519	7830
931.623	7776
