Data from test_V78500241_3327.txt Node
Date: Fri Mar 25 14:56:52 CST 2022
User: usil
Spectrometer: V785-0024
Trigger mode: 0
Integration Time (sec): 4.000000E-1
Scans to average: 1
Nonlinearity correction enabled: false
Boxcar width: 0
Storing dark spectrum: false
XAxis mode: Wavelengths
Number of Pixels in Spectrum: 1024
>>>>>Begin Spectral Data<<<<<
801.071	22116
801.214	21884
801.356	21561
801.499	21450
801.641	21454
801.783	21393
801.926	21481
802.068	21332
802.211	21119
802.353	21112
802.496	20899
802.638	20823
802.78	20819
802.923	20651
803.065	20594
803.208	20598
803.35	20724
803.492	20815
803.635	20712
803.777	20609
803.919	20765
804.061	20990
804.204	20632
804.346	20541
804.488	20446
804.63	20552
804.773	20587
804.915	20503
805.057	20769
805.199	20514
805.341	20552
805.483	20511
805.626	20720
805.768	20484
805.91	20655
806.052	20617
806.194	20431
806.336	20663
806.478	20560
806.62	20454
806.762	20545
806.904	20849
807.046	20918
807.188	20899
807.33	20910
807.472	20891
807.614	20735
807.756	20796
807.898	20689
808.04	20518
808.182	20545
808.324	20587
808.465	20640
808.607	20754
808.749	20937
808.891	20899
809.033	21005
809.174	20918
809.316	20899
809.458	21009
809.6	20819
809.741	20914
809.883	20918
810.025	21089
810.166	21176
810.308	20967
810.45	20944
810.591	20880
810.733	20773
810.875	20693
811.016	20659
811.158	20530
811.299	20651
811.441	20872
811.582	20667
811.724	20701
811.865	20648
812.007	20541
812.148	20701
812.29	20735
812.431	20857
812.573	20975
812.714	21074
812.855	21184
812.997	21218
813.138	21355
813.279	21355
813.421	21192
813.562	21180
813.703	20891
813.845	20845
813.986	20503
814.127	20389
814.268	20298
814.41	20210
814.551	20259
814.692	20172
814.833	20111
814.974	20096
815.115	20206
815.256	20043
815.397	20008
815.539	20081
815.68	19928
815.821	19849
815.962	19890
816.103	19921
816.244	19818
816.385	19731
816.526	19662
816.666	19506
816.807	19339
816.948	19407
817.089	19472
817.23	19472
817.371	19308
817.512	19343
817.653	19274
817.793	19266
817.934	19285
818.075	19388
818.216	19327
818.356	19320
818.497	19187
818.638	18973
818.778	18962
818.919	19129
819.06	19004
819.2	19091
819.341	19179
819.481	19240
819.622	19415
819.762	19434
819.903	19464
820.043	19316
820.184	19274
820.324	19304
820.465	19411
820.605	19358
820.746	19308
820.886	19190
821.026	19225
821.167	19255
821.307	19194
821.447	19133
821.588	19141
821.728	19000
821.868	18798
822.008	18795
822.149	18700
822.289	18585
822.429	18540
822.569	18506
822.709	18380
822.849	18224
822.99	18140
823.13	18125
823.27	18194
823.41	18015
823.55	17977
823.69	18072
823.83	18091
823.97	17935
824.11	17821
824.25	17745
824.389	17855
824.529	17824
824.669	17779
824.809	17874
824.949	17908
825.089	17870
825.228	17790
825.368	17619
825.508	17592
825.648	17691
825.787	17585
825.927	17714
826.067	17630
826.206	17482
826.346	17649
826.485	17657
826.625	17642
826.765	17668
826.904	17596
827.044	17410
827.183	17269
827.323	17303
827.462	17360
827.601	17246
827.741	17265
827.88	17269
828.02	17288
828.159	17136
828.298	17277
828.437	17349
828.577	17261
828.716	17429
828.855	17178
828.994	17037
829.134	17006
829.273	17105
829.412	16999
829.551	17102
829.69	17003
829.829	16972
829.968	17178
830.107	17124
830.246	17140
830.385	17033
830.524	16934
830.663	16873
830.802	16748
830.941	16733
831.08	16626
831.219	16698
831.357	16752
831.496	16881
831.635	16736
831.774	16626
831.913	16615
832.051	16485
832.19	16405
832.329	16367
832.467	16356
832.606	16325
832.744	16276
832.883	16371
833.022	16314
833.16	16333
833.299	16367
833.437	16367
833.576	16341
833.714	16436
833.852	16394
833.991	16310
834.129	16527
834.267	16462
834.406	16402
834.544	16478
834.682	16466
834.821	16367
834.959	16569
835.097	16382
835.235	16516
835.373	16386
835.511	16428
835.65	16409
835.788	16337
835.926	16234
836.064	16074
836.202	16109
836.34	16318
836.478	16421
836.615	16276
836.753	16352
836.891	16405
837.029	16310
837.167	16310
837.305	16128
837.443	16249
837.58	16265
837.718	16325
837.856	16166
837.993	16131
838.131	16253
838.269	16071
838.406	16211
838.544	16112
838.681	15998
838.819	15789
838.956	15759
839.094	15778
839.231	15827
839.369	15934
839.506	16067
839.643	16032
839.781	15888
839.918	15682
840.055	15823
840.193	15705
840.33	15766
840.467	15698
840.604	15808
840.742	16093
840.879	15709
841.016	15660
841.153	15671
841.29	15903
841.427	15774
841.564	15789
841.701	15800
841.838	15690
841.975	15709
842.112	15629
842.249	15549
842.385	15523
842.522	15610
842.659	15538
842.796	15580
842.933	15538
843.069	15462
843.206	15561
843.343	15663
843.479	15599
843.616	15580
843.752	15359
843.889	15340
844.025	15462
844.162	15264
844.298	15374
844.435	15249
844.571	15211
844.708	15355
844.844	15507
844.98	15462
845.117	15481
845.253	15207
845.389	15241
845.525	15291
845.661	15268
845.798	14990
845.934	15157
846.07	15116
846.206	15146
846.342	15241
846.478	15028
846.614	15001
846.75	14815
846.886	14902
847.022	14982
847.158	14941
847.294	14872
847.429	14952
847.565	14830
847.701	15062
847.837	14651
847.972	14533
848.108	14701
848.244	14743
848.379	14537
848.515	14518
848.65	14533
848.786	14549
848.921	14469
849.057	14689
849.192	14564
849.328	14518
849.463	14499
849.598	14488
849.734	14442
849.869	14351
850.004	14328
850.14	14332
850.275	14248
850.41	14187
850.545	14244
850.68	14267
850.815	14313
850.95	14259
851.085	14457
851.22	14427
851.355	14237
851.49	14320
851.625	14161
851.76	14111
851.895	14134
852.03	14172
852.165	14149
852.299	14286
852.434	14355
852.569	14309
852.703	14256
852.838	14294
852.973	14374
853.107	14396
853.242	14168
853.376	14187
853.511	14027
853.645	14081
853.78	14256
853.914	14123
854.048	14183
854.183	14050
854.317	14138
854.451	14248
854.585	14157
854.72	14123
854.854	14210
854.988	14031
855.122	14107
855.256	13978
855.39	14100
855.524	14202
855.658	14119
855.792	14103
855.926	14161
856.06	14248
856.194	14271
856.327	14073
856.461	14035
856.595	14100
856.729	14092
856.862	14233
856.996	14195
857.13	14248
857.263	14225
857.397	14282
857.53	14126
857.664	14065
857.797	14183
857.931	14240
858.064	14252
858.197	14263
858.331	14164
858.464	14161
858.597	14088
858.731	14092
858.864	14126
858.997	14016
859.13	14202
859.263	14172
859.396	14187
859.529	14138
859.662	14054
859.795	14039
859.928	14157
860.061	14259
860.194	14320
860.327	14069
860.46	14172
860.592	14237
860.725	14286
860.858	14275
860.99	14092
861.123	14107
861.256	14054
861.388	14115
861.521	14918
861.653	13944
861.786	13856
861.918	13944
862.05	14115
862.183	14134
862.315	14149
862.447	14123
862.58	14115
862.712	13932
862.844	13909
862.976	14001
863.108	14073
863.24	14309
863.372	13784
863.504	13978
863.636	13868
863.768	13913
863.9	14012
864.032	13826
864.164	13822
864.296	13955
864.428	13974
864.559	14027
864.691	13955
864.823	14005
864.954	13951
865.086	13963
865.217	13978
865.349	13887
865.48	13864
865.612	13871
865.743	14077
865.875	13898
866.006	13849
866.137	13925
866.269	13883
866.4	13909
866.531	13879
866.662	13761
866.793	13898
866.924	13894
867.055	13868
867.186	13913
867.317	13898
867.448	13769
867.579	13799
867.71	13849
867.841	13807
867.972	13925
868.103	13830
868.233	13963
868.364	13879
868.495	13921
868.625	14138
868.756	14301
868.886	14130
869.017	14092
869.147	14271
869.278	14358
869.408	14168
869.539	14168
869.669	14248
869.799	14332
869.929	14362
870.06	14214
870.19	14419
870.32	14450
870.45	14488
870.58	14579
870.71	14621
870.84	14659
870.97	14514
871.1	14556
871.23	14792
871.36	14777
871.489	14655
871.619	14842
871.749	14739
871.879	14796
872.008	14769
872.138	14826
872.267	14781
872.397	14701
872.526	14678
872.656	14617
872.785	14598
872.915	14754
873.044	14864
873.173	14819
873.303	14876
873.432	14819
873.561	14902
873.69	14830
873.819	14891
873.948	14819
874.077	14853
874.206	14804
874.335	14895
874.464	14914
874.593	15066
874.722	14960
874.851	15138
874.979	15161
875.108	15112
875.237	15077
875.365	15039
875.494	15028
875.623	15131
875.751	15100
875.88	15237
876.008	15279
876.136	15382
876.265	15568
876.393	15671
876.521	15652
876.65	15580
876.778	15591
876.906	15545
877.034	15500
877.162	15538
877.29	15568
877.418	15603
877.546	15466
877.674	15538
877.802	15477
877.93	15561
878.058	15553
878.185	15405
878.313	15473
878.441	15652
878.568	15370
878.696	15523
878.824	15530
878.951	15568
879.079	15618
879.206	15720
879.333	15675
879.461	15656
879.588	15694
879.715	15625
879.842	15842
879.97	15728
880.097	15389
880.224	15424
880.351	15351
880.478	15321
880.605	15306
880.732	15374
880.859	15656
880.986	15321
881.112	15389
881.239	15287
881.366	15226
881.493	15154
881.619	15051
881.746	15108
881.872	15036
881.999	15013
882.125	15009
882.252	15116
882.378	15112
882.505	15218
882.631	15039
882.757	14880
882.883	14914
883.01	14956
883.136	14705
883.262	14648
883.388	14632
883.514	14975
883.64	14994
883.766	14925
883.892	14621
884.018	14739
884.143	14876
884.269	14899
884.395	14636
884.52	14552
884.646	14606
884.772	14526
884.897	14514
885.023	14613
885.148	14693
885.274	14644
885.399	14708
885.524	14571
885.65	14640
885.775	14667
885.9	14613
886.025	14727
886.15	14640
886.275	14499
886.4	14465
886.525	14537
886.65	14526
886.775	14503
886.9	14667
887.025	14830
887.149	14610
887.274	14431
887.399	14351
887.523	14389
887.648	14301
887.773	14294
887.897	14503
888.021	14556
888.146	14328
888.27	14514
888.395	14571
888.519	14442
888.643	14594
888.767	14446
888.891	14355
889.015	14298
889.139	14324
889.263	14183
889.387	14336
889.511	14473
889.635	14320
889.759	14298
889.883	14256
890.006	14355
890.13	14450
890.254	14206
890.377	14271
890.501	14126
890.624	14176
890.748	14142
890.871	14050
890.995	14016
891.118	13875
891.241	13951
891.364	14043
891.488	14096
891.611	13967
891.734	14024
891.857	13989
891.98	14054
892.103	14081
892.226	14054
892.349	13894
892.471	13940
892.594	13906
892.717	14039
892.839	13993
892.962	13974
893.085	14084
893.207	13978
893.33	13887
893.452	13906
893.575	13982
893.697	14020
893.819	14081
893.941	14240
894.064	14100
894.186	13982
894.308	14012
894.43	14107
894.552	14168
894.674	14161
894.796	13978
894.918	14050
895.04	14043
895.161	14199
895.283	14119
895.405	13997
895.526	14103
895.648	14031
895.769	14225
895.891	14157
896.012	14142
896.134	14145
896.255	14115
896.376	14195
896.498	14134
896.619	14149
896.74	14138
896.861	14187
896.982	14488
897.103	14712
897.224	14427
897.345	14366
897.466	14324
897.587	14358
897.708	14518
897.828	14552
897.949	14450
898.07	14263
898.19	14431
898.311	14617
898.431	14324
898.552	14579
898.672	14655
898.792	14613
898.913	14514
899.033	14484
899.153	14358
899.273	14267
899.393	14305
899.513	14427
899.633	14389
899.753	14355
899.873	14339
899.993	14347
900.113	14366
900.232	14393
900.352	14343
900.472	14244
900.591	14134
900.711	14145
900.83	14134
900.95	14324
901.069	14301
901.189	14149
901.308	13963
901.427	13845
901.546	13849
901.665	13921
901.784	13887
901.904	13799
902.023	13704
902.141	13571
902.26	13537
902.379	13529
902.498	13582
902.617	13381
902.735	13590
902.854	13544
902.973	13373
903.091	13282
903.21	13251
903.328	13168
903.446	13114
903.565	13099
903.683	13072
903.801	12913
903.919	13015
904.038	13050
904.156	12871
904.274	13050
904.392	12844
904.51	12863
904.627	12848
904.745	12993
904.863	12920
904.981	12665
905.098	12445
905.216	12642
905.334	12536
905.451	12578
905.569	12566
905.686	12635
905.803	12448
905.921	12342
906.038	12544
906.155	12391
906.272	12220
906.389	12426
906.506	12133
906.623	12197
906.74	12133
906.857	12038
906.974	12087
907.091	12152
907.208	12304
907.324	12159
907.441	12079
907.557	11931
907.674	11980
907.79	11832
907.907	11843
908.023	11920
908.139	11920
908.256	11855
908.372	11855
908.488	11764
908.604	11661
908.72	11695
908.836	11745
908.952	11611
909.068	11718
909.184	11855
909.3	11657
909.415	11718
909.531	11642
909.647	11459
909.762	11490
909.878	11417
909.993	11474
910.108	11360
910.224	11440
910.339	11448
910.454	11387
910.57	11280
910.685	11147
910.8	11554
910.915	11425
911.03	11258
911.145	11090
911.259	11067
911.374	11128
911.489	11159
911.604	10984
911.718	10984
911.833	10980
911.947	10793
912.062	10763
912.176	10896
912.291	10896
912.405	10915
912.519	11147
912.633	11143
912.748	10965
912.862	10934
912.976	10812
913.09	10653
913.204	10748
913.318	10820
913.431	10919
913.545	10850
913.659	10892
913.772	10706
913.886	10694
914	10649
914.113	10744
914.226	10793
914.34	10702
914.453	10588
914.566	10782
914.68	10607
914.793	10584
914.906	10424
915.019	10333
915.132	10303
915.245	10382
915.358	10409
915.47	10459
915.583	10428
915.696	10394
915.809	10550
915.921	10538
916.034	10417
916.146	10440
916.259	10318
916.371	10474
916.483	10481
916.595	10333
916.708	10325
916.82	10363
916.932	10371
917.044	10314
917.156	10348
917.268	10207
917.38	10265
917.491	10200
917.603	10257
917.715	10356
917.826	10386
917.938	10261
918.049	10116
918.161	10211
918.272	10344
918.384	10436
918.495	10276
918.606	10185
918.717	10051
918.828	10200
918.939	10200
919.05	10044
919.161	10169
919.272	10010
919.383	9926
919.494	10147
919.604	10341
919.715	10173
919.826	9994
919.936	10086
920.047	10158
920.157	10188
920.267	10341
920.378	10188
920.488	10200
920.598	10363
920.708	10474
920.818	10348
920.928	10291
921.038	10546
921.148	10512
921.258	10185
921.368	10116
921.477	10036
921.587	9937
921.697	9926
921.806	10048
921.916	9911
922.025	9770
922.134	9709
922.244	9618
922.353	9686
922.462	9595
922.571	9568
922.68	9405
922.789	9310
922.898	9450
923.007	9306
923.116	9420
923.224	9393
923.333	9397
923.442	9310
923.55	9214
923.659	9310
923.767	9283
923.876	9294
923.984	9401
924.092	9188
924.201	9195
924.309	9222
924.417	9275
924.525	9264
924.633	9207
924.741	10207
924.849	9043
924.956	9199
925.064	8982
925.172	8994
925.279	8933
925.387	9032
925.494	9108
925.602	9199
925.709	9093
925.816	9024
925.924	9036
926.031	9165
926.138	9036
926.245	9093
926.352	8941
926.459	9108
926.566	9211
926.673	8990
926.779	8883
926.886	8864
926.993	8864
927.099	8758
927.206	8823
927.312	8769
927.419	8750
927.525	8735
927.631	8861
927.737	8663
927.843	8655
927.95	8571
928.056	8659
928.162	8712
928.267	8773
928.373	9367
928.479	8777
928.585	8526
928.69	8629
928.796	8716
928.901	8533
929.007	8484
929.112	8568
929.218	8526
929.323	8549
929.428	8511
929.533	8583
929.638	8381
929.743	8454
929.848	8454
929.953	8476
930.058	8362
930.163	8259
930.267	8271
930.372	8377
930.477	8252
930.581	8400
930.685	8370
930.79	8183
930.894	8248
930.998	8206
931.103	8336
931.207	8031
931.311	7898
931.415	7936
931.519	7734
931.623	7708
