Data from test_V78500241_747.txt Node
Date: Fri Mar 25 14:38:55 CST 2022
User: usil
Spectrometer: V785-0024
Trigger mode: 0
Integration Time (sec): 4.000000E-1
Scans to average: 1
Nonlinearity correction enabled: false
Boxcar width: 0
Storing dark spectrum: false
XAxis mode: Wavelengths
Number of Pixels in Spectrum: 1024
>>>>>Begin Spectral Data<<<<<
801.071	27077
801.214	27055
801.356	26651
801.499	26621
801.641	26636
801.783	26537
801.926	26480
802.068	26358
802.211	26317
802.353	26142
802.496	26134
802.638	25989
802.78	26039
802.923	25887
803.065	25966
803.208	25940
803.35	25993
803.492	25974
803.635	26237
803.777	25856
803.919	26119
804.061	26355
804.204	26218
804.346	26092
804.488	26138
804.63	26107
804.773	26062
804.915	26271
805.057	26492
805.199	26400
805.341	26533
805.483	26712
805.626	26708
805.768	26724
805.91	26906
806.052	27017
806.194	27096
806.336	27435
806.478	27450
806.62	27732
806.762	27850
806.904	28421
807.046	28801
807.188	28987
807.33	29604
807.472	30201
807.614	30829
807.756	31856
807.898	32842
808.04	34516
808.182	36806
808.324	39332
808.465	42494
808.607	45941
808.749	48901
808.891	50697
809.033	51028
809.174	49103
809.316	46249
809.458	42631
809.6	39222
809.741	36262
809.883	33926
810.025	32533
810.166	31278
810.308	30521
810.45	29729
810.591	29200
810.733	28649
810.875	28207
811.016	27854
811.158	27728
811.299	27789
811.441	27606
811.582	27447
811.724	27077
811.865	27146
812.007	26994
812.148	26899
812.29	26895
812.431	26986
812.573	26998
812.714	26921
812.855	27096
812.997	27055
813.138	27180
813.279	27096
813.421	26895
813.562	26735
813.703	26590
813.845	26442
813.986	26107
814.127	25883
814.268	25791
814.41	25734
814.551	25651
814.692	25677
814.833	25563
814.974	25495
815.115	25597
815.256	25358
815.397	25354
815.539	25308
815.68	25335
815.821	25145
815.962	25053
816.103	25031
816.244	24970
816.385	24821
816.526	25004
816.666	24601
816.807	24464
816.948	24601
817.089	24616
817.23	24559
817.371	24471
817.512	24483
817.653	24292
817.793	24365
817.934	24224
818.075	24334
818.216	24372
818.356	24323
818.497	24057
818.638	24095
818.778	24091
818.919	24083
819.06	24049
819.2	24083
819.341	24235
819.481	24224
819.622	24330
819.762	24555
819.903	24532
820.043	24342
820.184	24251
820.324	24163
820.465	24346
820.605	24190
820.746	24220
820.886	24205
821.026	24190
821.167	24049
821.307	24045
821.447	24098
821.588	23908
821.728	23745
821.868	23733
822.008	23512
822.149	23345
822.289	23364
822.429	23178
822.569	23094
822.709	23010
822.849	22763
822.99	22991
823.13	22892
823.27	22698
823.41	22687
823.55	22607
823.69	22687
823.83	22634
823.97	22527
824.11	22519
824.25	22424
824.389	22390
824.529	22516
824.669	22409
824.809	22550
824.949	22523
825.089	22500
825.228	22402
825.368	22352
825.508	22196
825.648	22291
825.787	22280
825.927	22242
826.067	22230
826.206	22162
826.346	22211
826.485	22124
826.625	22280
826.765	22287
826.904	22207
827.044	21994
827.183	21949
827.323	21850
827.462	21941
827.601	21991
827.741	21956
827.88	21892
828.02	21686
828.159	21846
828.298	21800
828.437	21945
828.577	21800
828.716	21983
828.855	21888
828.994	21644
829.134	21625
829.273	21637
829.412	21576
829.551	21496
829.69	21485
829.829	21561
829.968	21576
830.107	21671
830.246	21545
830.385	21458
830.524	21450
830.663	21401
830.802	21287
830.941	21260
831.08	21154
831.219	21283
831.357	21195
831.496	21344
831.635	21199
831.774	21036
831.913	20975
832.051	20956
832.19	20925
832.329	21135
832.467	20990
832.606	20902
832.744	20902
832.883	21275
833.022	21070
833.16	21329
833.299	21424
833.437	21519
833.576	21606
833.714	21907
833.852	22021
833.991	22120
834.129	22329
834.267	22276
834.406	22204
834.544	22090
834.682	21838
834.821	21819
834.959	21968
835.097	21416
835.235	21530
835.373	21283
835.511	21207
835.65	20986
835.788	21062
835.926	20716
836.064	20640
836.202	20644
836.34	20750
836.478	20887
836.615	20686
836.753	20727
836.891	20781
837.029	20716
837.167	20693
837.305	20625
837.443	20556
837.58	20454
837.718	20705
837.856	20492
837.993	20427
838.131	20389
838.269	20446
838.406	20362
838.544	20294
838.681	20024
838.819	20058
838.956	19959
839.094	19970
839.231	20062
839.369	20100
839.506	20351
839.643	20157
839.781	19894
839.918	19833
840.055	19970
840.193	19947
840.33	19731
840.467	19833
840.604	20001
840.742	20183
840.879	19681
841.016	19818
841.153	19765
841.29	19947
841.427	19967
841.564	19947
841.701	19967
841.838	19833
841.975	19723
842.112	19925
842.249	19731
842.385	19677
842.522	19902
842.659	19791
842.796	19746
842.933	19788
843.069	19742
843.206	19734
843.343	19947
843.479	19993
843.616	19928
843.752	19715
843.889	19837
844.025	20020
844.162	19868
844.298	20103
844.435	20202
844.571	20374
844.708	20648
844.844	21104
844.98	21610
845.117	22287
845.253	23223
845.389	25027
845.525	28854
845.661	35109
845.798	42239
845.934	47550
846.07	49411
846.206	47916
846.342	42920
846.478	35764
846.614	29752
846.75	25791
846.886	23360
847.022	22128
847.158	20982
847.294	20461
847.429	20092
847.565	19875
847.701	20035
847.837	19343
847.972	19209
848.108	19122
848.244	19194
848.379	19000
848.515	18875
848.65	18795
848.786	18875
848.921	18738
849.057	18894
849.192	18825
849.328	18703
849.463	18734
849.598	18677
849.734	18532
849.869	18395
850.004	18388
850.14	18460
850.275	18391
850.41	18346
850.545	18155
850.68	18304
850.815	18369
850.95	18391
851.085	18452
851.22	18429
851.355	18365
851.49	18323
851.625	18350
851.76	18384
851.895	18300
852.03	18258
852.165	18346
852.299	18365
852.434	18483
852.569	18448
852.703	18437
852.838	18483
852.973	18570
853.107	18627
853.242	18479
853.376	18380
853.511	18353
853.645	18399
853.78	18608
853.914	18597
854.048	18528
854.183	18642
854.317	18673
854.451	18779
854.585	18684
854.72	18536
854.854	18684
854.988	18452
855.122	18521
855.256	18338
855.39	18395
855.524	18361
855.658	18330
855.792	18380
855.926	18357
856.06	18330
856.194	18319
856.327	18182
856.461	18243
856.595	18155
856.729	18155
856.862	18239
856.996	18232
857.13	18239
857.263	18190
857.397	18228
857.53	18224
857.664	18171
857.797	18194
857.931	18251
858.064	18174
858.197	18243
858.331	18068
858.464	17988
858.597	18015
858.731	18030
858.864	18003
858.997	18064
859.13	18114
859.263	18060
859.396	18140
859.529	18045
859.662	17942
859.795	17950
859.928	18015
860.061	18163
860.194	18209
860.327	18060
860.46	17843
860.592	18106
860.725	18087
860.858	18216
860.99	17950
861.123	17855
861.256	17912
861.388	17992
861.521	18688
861.653	17790
861.786	17707
861.918	17775
862.05	17946
862.183	17942
862.315	17931
862.447	18087
862.58	17920
862.712	17779
862.844	17676
862.976	17802
863.108	17805
863.24	18148
863.372	17585
863.504	17608
863.636	17653
863.768	17680
863.9	17653
864.032	17608
864.164	17566
864.296	17627
864.428	17676
864.559	17764
864.691	17695
864.823	17665
864.954	17684
865.086	17623
865.217	17665
865.349	17463
865.48	17543
865.612	17570
865.743	17703
865.875	17627
866.006	17547
866.137	17638
866.269	17554
866.4	17532
866.531	17592
866.662	17581
866.793	17566
866.924	17528
867.055	17562
867.186	17505
867.317	17463
867.448	17509
867.579	17497
867.71	17364
867.841	17501
867.972	17558
868.103	17478
868.233	17592
868.364	17592
868.495	17665
868.625	17809
868.756	17912
868.886	17748
869.017	17843
869.147	17935
869.278	17916
869.408	17901
869.539	17870
869.669	17870
869.799	17885
869.929	18034
870.06	17912
870.19	18155
870.32	18194
870.45	18285
870.58	18300
870.71	18407
870.84	18407
870.97	18304
871.1	18251
871.23	18391
871.36	18483
871.489	18437
871.619	18502
871.749	18578
871.879	18612
872.008	18753
872.138	18528
872.267	18490
872.397	18585
872.526	18380
872.656	18517
872.785	18551
872.915	18700
873.044	18795
873.173	18783
873.303	18814
873.432	18844
873.561	18844
873.69	18856
873.819	18890
873.948	18829
874.077	18928
874.206	18817
874.335	19023
874.464	19145
874.593	19244
874.722	19282
874.851	19358
874.979	19400
875.108	19438
875.237	19537
875.365	19297
875.494	19518
875.623	19639
875.751	19476
875.88	19719
876.008	19753
876.136	19902
876.265	20107
876.393	20221
876.521	20301
876.65	20431
876.778	20442
876.906	20358
877.034	20511
877.162	20568
877.29	20678
877.418	20777
877.546	20823
877.674	20857
877.802	21192
877.93	21222
878.058	21325
878.185	21420
878.313	21819
878.441	22181
878.568	22542
878.696	23136
878.824	24114
878.951	25122
879.079	26792
879.206	28866
879.333	31217
879.461	32693
879.588	34025
879.715	33922
879.842	33123
879.97	31168
880.097	28877
880.224	27306
880.351	25974
880.478	25129
880.605	24505
880.732	24041
880.859	24011
880.986	23653
881.112	23455
881.239	23379
881.366	23083
881.493	23044
881.619	23105
881.746	23124
881.872	23113
881.999	23124
882.125	23231
882.252	23353
882.378	23246
882.505	23539
882.631	23094
882.757	23067
882.883	23193
883.01	23174
883.136	23083
883.262	23121
883.388	23083
883.514	22999
883.64	23098
883.766	23086
883.892	22892
884.018	22911
884.143	23060
884.269	23102
884.395	22896
884.52	22801
884.646	22873
884.772	22801
884.897	22862
885.023	22881
885.148	22923
885.274	22968
885.399	22774
885.524	22668
885.65	22535
885.775	22265
885.9	22173
886.025	22185
886.15	22010
886.275	21709
886.4	21633
886.525	21481
886.65	21268
886.775	21226
886.9	21241
887.025	21245
887.149	20834
887.274	20769
887.399	20533
887.523	20473
887.648	20271
887.773	20229
887.897	20294
888.021	20221
888.146	20027
888.27	20081
888.395	20020
888.519	19993
888.643	19822
888.767	19830
888.891	19719
889.015	19639
889.139	19575
889.263	19514
889.387	19590
889.511	19613
889.635	19415
889.759	19327
889.883	19297
890.006	19152
890.13	19335
890.254	19107
890.377	19023
890.501	18905
890.624	18844
890.748	19050
890.871	18753
890.995	18601
891.118	18544
891.241	18544
891.364	18601
891.488	18597
891.611	18551
891.734	18486
891.857	18483
891.98	18380
892.103	18414
892.226	18467
892.349	18429
892.471	18167
892.594	18239
892.717	18243
892.839	18171
892.962	18087
893.085	18247
893.207	18144
893.33	18072
893.452	18019
893.575	17988
893.697	18022
893.819	18133
893.941	18095
894.064	18140
894.186	17885
894.308	17802
894.43	17980
894.552	17935
894.674	17904
894.796	17684
894.918	17745
895.04	17718
895.161	17847
895.283	17817
895.405	17630
895.526	17646
895.648	17699
895.769	17737
895.891	17718
896.012	17821
896.134	17737
896.255	17665
896.376	17512
896.498	17676
896.619	17634
896.74	17676
896.861	17752
896.982	17980
897.103	18053
897.224	17946
897.345	17794
897.466	17756
897.587	17847
897.708	17992
897.828	17802
897.949	17737
898.07	17684
898.19	17676
898.311	17897
898.431	17828
898.552	17790
898.672	17863
898.792	17786
898.913	17878
899.033	17756
899.153	17627
899.273	17634
899.393	17657
899.513	17684
899.633	17630
899.753	17657
899.873	17547
899.993	17627
900.113	17562
900.232	17539
900.352	17429
900.472	17547
900.591	17368
900.711	17402
900.83	17311
900.95	17444
901.069	17611
901.189	17334
901.308	17075
901.427	16965
901.546	17022
901.665	16930
901.784	16953
901.904	16866
902.023	16755
902.141	16538
902.26	16382
902.379	16596
902.498	16394
902.617	16413
902.735	16478
902.854	16386
902.973	16215
903.091	16051
903.21	16032
903.328	16067
903.446	16010
903.565	15823
903.683	15873
903.801	15861
903.919	15911
904.038	15846
904.156	15656
904.274	15660
904.392	15629
904.51	15568
904.627	15625
904.745	15652
904.863	15625
904.981	15351
905.098	15192
905.216	15268
905.334	15287
905.451	15218
905.569	15252
905.686	15264
905.803	15157
905.921	15020
906.038	15142
906.155	15001
906.272	14982
906.389	14895
906.506	14868
906.623	14845
906.74	14819
906.857	14564
906.974	14606
907.091	14925
907.208	14834
907.324	14689
907.441	14701
907.557	14438
907.674	14461
907.79	14476
907.907	14412
908.023	14571
908.139	14408
908.256	14431
908.372	14355
908.488	14267
908.604	14263
908.72	14248
908.836	14332
908.952	14244
909.068	14218
909.184	14320
909.3	14229
909.415	14168
909.531	14161
909.647	14043
909.762	13928
909.878	13967
909.993	14031
910.108	13982
910.224	13849
910.339	13894
910.454	13799
910.57	13746
910.685	13681
910.8	13978
910.915	13860
911.03	13879
911.145	13548
911.259	13742
911.374	13620
911.489	13537
911.604	13407
911.718	13381
911.833	13335
911.947	13259
912.062	13183
912.176	13350
912.291	13278
912.405	13362
912.519	13540
912.633	13594
912.748	13384
912.862	13301
912.976	13202
913.09	13072
913.204	13137
913.318	13194
913.431	13411
913.545	13247
913.659	13331
913.772	13141
913.886	13069
914	12993
914.113	13122
914.226	13179
914.34	13152
914.453	12977
914.566	13057
914.68	12947
914.793	12962
914.906	12741
915.019	12749
915.132	12642
915.245	12738
915.358	12791
915.47	12779
915.583	12715
915.696	12825
915.809	12848
915.921	12878
916.034	12749
916.146	12688
916.259	12749
916.371	12795
916.483	12711
916.595	12696
916.708	12741
916.82	12696
916.932	12631
917.044	12730
917.156	12681
917.268	12464
917.38	12555
917.491	12536
917.603	12570
917.715	12532
917.826	12585
917.938	12399
918.049	12407
918.161	12490
918.272	12585
918.384	12589
918.495	12528
918.606	12323
918.717	12292
918.828	12285
918.939	12292
919.05	12247
919.161	12289
919.272	12060
919.383	12095
919.494	12327
919.604	12380
919.715	12209
919.826	12186
919.936	12205
920.047	12311
920.157	12209
920.267	12486
920.378	12365
920.488	12171
920.598	12437
920.708	12555
920.818	12456
920.928	12384
921.038	12528
921.148	12471
921.258	12213
921.368	12205
921.477	12049
921.587	11954
921.697	11843
921.806	12121
921.916	11977
922.025	11767
922.134	11703
922.244	11634
922.353	11741
922.462	11570
922.571	11444
922.68	11395
922.789	11433
922.898	11376
923.007	11307
923.116	11391
923.224	11360
923.333	11341
923.442	11189
923.55	11220
923.659	11189
923.767	11189
923.876	11212
923.984	11410
924.092	11159
924.201	11185
924.309	11151
924.417	11216
924.525	11060
924.633	11117
924.741	11794
924.849	10927
924.956	11102
925.064	10911
925.172	10831
925.279	10858
925.387	10892
925.494	10965
925.602	10999
925.709	11048
925.816	10828
925.924	10911
926.031	10885
926.138	10786
926.245	10976
926.352	10771
926.459	10930
926.566	10923
926.673	10816
926.779	10752
926.886	10694
926.993	10546
927.099	10546
927.206	10546
927.312	10512
927.419	10538
927.525	10500
927.631	10634
927.737	10470
927.843	10424
927.95	10253
928.056	10390
928.162	10424
928.267	10504
928.373	11124
928.479	10466
928.585	10253
928.69	10261
928.796	10417
928.901	10306
929.007	10215
929.112	10276
929.218	10234
929.323	10166
929.428	10169
929.533	10371
929.638	10051
929.743	10204
929.848	10116
929.953	10139
930.058	10078
930.163	9869
930.267	9941
930.372	10013
930.477	9854
930.581	10055
930.685	9968
930.79	9865
930.894	9793
930.998	9819
931.103	9972
931.207	9625
931.311	9549
931.415	9428
931.519	9325
931.623	9207
