Data from test_V78500241_2842.txt Node
Date: Fri Mar 25 14:53:30 CST 2022
User: usil
Spectrometer: V785-0024
Trigger mode: 0
Integration Time (sec): 4.000000E-1
Scans to average: 1
Nonlinearity correction enabled: false
Boxcar width: 0
Storing dark spectrum: false
XAxis mode: Wavelengths
Number of Pixels in Spectrum: 1024
>>>>>Begin Spectral Data<<<<<
801.071	22162
801.214	21831
801.356	21739
801.499	21568
801.641	21523
801.783	21450
801.926	21340
802.068	21340
802.211	21351
802.353	21275
802.496	20952
802.638	20952
802.78	20982
802.923	20765
803.065	20701
803.208	20708
803.35	20750
803.492	20872
803.635	20899
803.777	20758
803.919	20857
804.061	21089
804.204	20826
804.346	20739
804.488	20629
804.63	20800
804.773	20739
804.915	20807
805.057	20815
805.199	20579
805.341	20678
805.483	20785
805.626	20777
805.768	20655
805.91	20815
806.052	20811
806.194	20587
806.336	20842
806.478	20644
806.62	20636
806.762	20857
806.904	20872
807.046	21131
807.188	20979
807.33	20986
807.472	21138
807.614	21005
807.756	20967
807.898	20731
808.04	20678
808.182	20830
808.324	20777
808.465	20750
808.607	20960
808.749	20918
808.891	21070
809.033	21135
809.174	21161
809.316	21017
809.458	21017
809.6	21005
809.741	21043
809.883	21119
810.025	21222
810.166	21184
810.308	21180
810.45	21123
810.591	21154
810.733	20864
810.875	20804
811.016	20663
811.158	20682
811.299	20845
811.441	20906
811.582	20838
811.724	20804
811.865	20929
812.007	20693
812.148	20750
812.29	20807
812.431	20956
812.573	21211
812.714	21135
812.855	21363
812.997	21454
813.138	21428
813.279	21458
813.421	21294
813.562	21374
813.703	21066
813.845	20948
813.986	20762
814.127	20545
814.268	20419
814.41	20438
814.551	20351
814.692	20465
814.833	20221
814.974	20343
815.115	20320
815.256	20214
815.397	20191
815.539	20252
815.68	20206
815.821	20020
815.962	20157
816.103	20073
816.244	19932
816.385	19814
816.526	19803
816.666	19658
816.807	19468
816.948	19521
817.089	19704
817.23	19514
817.371	19468
817.512	19407
817.653	19422
817.793	19377
817.934	19487
818.075	19411
818.216	19483
818.356	19434
818.497	19373
818.638	19221
818.778	19209
818.919	19091
819.06	19225
819.2	19263
819.341	19400
819.481	19301
819.622	19582
819.762	19609
819.903	19499
820.043	19590
820.184	19502
820.324	19521
820.465	19601
820.605	19559
820.746	19518
820.886	19297
821.026	19434
821.167	19502
821.307	19438
821.447	19358
821.588	19251
821.728	19209
821.868	19015
822.008	18916
822.149	18882
822.289	18897
822.429	18753
822.569	18452
822.709	18498
822.849	18410
822.99	18296
823.13	18323
823.27	18273
823.41	18197
823.55	18152
823.69	18174
823.83	18190
823.97	18117
824.11	17977
824.25	17889
824.389	17882
824.529	17901
824.669	18019
824.809	18022
824.949	17961
825.089	17931
825.228	18015
825.368	17802
825.508	17726
825.648	17680
825.787	17756
825.927	17741
826.067	17699
826.206	17680
826.346	17627
826.485	17756
826.625	17729
826.765	17722
826.904	17707
827.044	17566
827.183	17490
827.323	17425
827.462	17448
827.601	17436
827.741	17372
827.88	17395
828.02	17341
828.159	17452
828.298	17387
828.437	17524
828.577	17433
828.716	17547
828.855	17280
828.994	17098
829.134	17094
829.273	17159
829.412	17185
829.551	17045
829.69	17128
829.829	17239
829.968	17280
830.107	17242
830.246	17220
830.385	17098
830.524	17083
830.663	16900
830.802	16866
830.941	16847
831.08	16923
831.219	16854
831.357	16877
831.496	16923
831.635	16713
831.774	16656
831.913	16740
832.051	16740
832.19	16497
832.329	16561
832.467	16512
832.606	16424
832.744	16432
832.883	16474
833.022	16379
833.16	16421
833.299	16432
833.437	16402
833.576	16592
833.714	16493
833.852	16577
833.991	16542
834.129	16565
834.267	16603
834.406	16531
834.544	16577
834.682	16645
834.821	16531
834.959	16767
835.097	16466
835.235	16569
835.373	16599
835.511	16641
835.65	16462
835.788	16462
835.926	16242
836.064	16086
836.202	16230
836.34	16379
836.478	16481
836.615	16500
836.753	16432
836.891	16558
837.029	16417
837.167	16363
837.305	16348
837.443	16371
837.58	16223
837.718	16386
837.856	16284
837.993	16295
838.131	16287
838.269	16314
838.406	16295
838.544	16116
838.681	15991
838.819	15975
838.956	15835
839.094	15838
839.231	15846
839.369	16086
839.506	16265
839.643	16177
839.781	15895
839.918	15823
840.055	15865
840.193	15907
840.33	15827
840.467	15865
840.604	15918
840.742	16139
840.879	15846
841.016	15728
841.153	15812
841.29	15907
841.427	15850
841.564	15880
841.701	15956
841.838	15728
841.975	15785
842.112	15770
842.249	15641
842.385	15530
842.522	15819
842.659	15667
842.796	15625
842.933	15610
843.069	15599
843.206	15701
843.343	15724
843.479	15656
843.616	15679
843.752	15450
843.889	15428
844.025	15477
844.162	15447
844.298	15523
844.435	15450
844.571	15355
844.708	15469
844.844	15568
844.98	15587
845.117	15507
845.253	15294
845.389	15306
845.525	15317
845.661	15173
845.798	15195
845.934	15218
846.07	15104
846.206	15199
846.342	15336
846.478	15230
846.614	15020
846.75	14990
846.886	14971
847.022	15017
847.158	15024
847.294	14963
847.429	15058
847.565	14979
847.701	15256
847.837	14773
847.972	14659
848.108	14785
848.244	14796
848.379	14716
848.515	14518
848.65	14537
848.786	14571
848.921	14590
849.057	14708
849.192	14708
849.328	14629
849.463	14613
849.598	14522
849.734	14465
849.869	14412
850.004	14389
850.14	14476
850.275	14374
850.41	14206
850.545	14370
850.68	14301
850.815	14408
850.95	14294
851.085	14541
851.22	14530
851.355	14400
851.49	14332
851.625	14336
851.76	14339
851.895	14309
852.03	14180
852.165	14301
852.299	14347
852.434	14389
852.569	14339
852.703	14507
852.838	14446
852.973	14457
853.107	14469
853.242	14267
853.376	14317
853.511	14157
853.645	14225
853.78	14286
853.914	14298
854.048	14233
854.183	14206
854.317	14244
854.451	14381
854.585	14214
854.72	14202
854.854	14225
854.988	14134
855.122	14161
855.256	14092
855.39	14199
855.524	14218
855.658	14267
855.792	14294
855.926	14145
856.06	14218
856.194	14218
856.327	14130
856.461	14161
856.595	14191
856.729	14259
856.862	14351
856.996	14218
857.13	14278
857.263	14309
857.397	14427
857.53	14183
857.664	14396
857.797	14218
857.931	14343
858.064	14294
858.197	14324
858.331	14252
858.464	14145
858.597	14062
858.731	14275
858.864	14263
858.997	14145
859.13	14218
859.263	14237
859.396	14240
859.529	14103
859.662	14202
859.795	14119
859.928	14248
860.061	14415
860.194	14355
860.327	14332
860.46	14309
860.592	14400
860.725	14381
860.858	14434
860.99	14195
861.123	14145
861.256	14252
861.388	14252
861.521	14678
861.653	14123
861.786	14142
861.918	14043
862.05	14161
862.183	14119
862.315	14233
862.447	14271
862.58	14180
862.712	13967
862.844	13989
862.976	14130
863.108	14065
863.24	14366
863.372	13970
863.504	13951
863.636	14073
863.768	14084
863.9	14035
864.032	13974
864.164	13944
864.296	14077
864.428	14149
864.559	14088
864.691	14107
864.823	14096
864.954	14039
865.086	14043
865.217	14020
865.349	13928
865.48	13967
865.612	14024
865.743	14119
865.875	14005
866.006	13898
866.137	14024
866.269	13982
866.4	14008
866.531	13925
866.662	13925
866.793	13887
866.924	13890
867.055	13898
867.186	13944
867.317	13959
867.448	13830
867.579	13890
867.71	13845
867.841	13871
867.972	13959
868.103	14035
868.233	13909
868.364	13951
868.495	14065
868.625	14259
868.756	14427
868.886	14164
869.017	14180
869.147	14309
869.278	14233
869.408	14290
869.539	14275
869.669	14248
869.799	14210
869.929	14355
870.06	14282
870.19	14579
870.32	14495
870.45	14636
870.58	14613
870.71	14678
870.84	14701
870.97	14670
871.1	14636
871.23	14830
871.36	14807
871.489	14785
871.619	14716
871.749	14800
871.879	14830
872.008	14982
872.138	14842
872.267	14853
872.397	14602
872.526	14708
872.656	14644
872.785	14670
872.915	14906
873.044	14842
873.173	14880
873.303	14864
873.432	14948
873.561	14914
873.69	14868
873.819	14872
873.948	14971
874.077	14967
874.206	14826
874.335	14845
874.464	15009
874.593	15100
874.722	15135
874.851	15264
874.979	15207
875.108	15291
875.237	15089
875.365	15116
875.494	15165
875.623	15268
875.751	15233
875.88	15283
876.008	15344
876.136	15420
876.265	15584
876.393	15800
876.521	15660
876.65	15701
876.778	15667
876.906	15568
877.034	15553
877.162	15500
877.29	15553
877.418	15587
877.546	15633
877.674	15732
877.802	15580
877.93	15564
878.058	15606
878.185	15466
878.313	15591
878.441	15545
878.568	15386
878.696	15488
878.824	15580
878.951	15743
879.079	15823
879.206	15854
879.333	15819
879.461	15736
879.588	15766
879.715	15785
879.842	15930
879.97	15629
880.097	15496
880.224	15454
880.351	15667
880.478	15507
880.605	15443
880.732	15538
880.859	15671
880.986	15401
881.112	15504
881.239	15302
881.366	15131
881.493	15165
881.619	15169
881.746	15131
881.872	15138
881.999	15108
882.125	14998
882.252	15146
882.378	15165
882.505	15283
882.631	15047
882.757	14956
882.883	14941
883.01	14956
883.136	14876
883.262	14925
883.388	14773
883.514	14910
883.64	14937
883.766	14899
883.892	14849
884.018	14788
884.143	15036
884.269	14975
884.395	14754
884.52	14648
884.646	14602
884.772	14522
884.897	14552
885.023	14575
885.148	14750
885.274	14727
885.399	14712
885.524	14708
885.65	14689
885.775	14670
885.9	14651
886.025	14796
886.15	14735
886.275	14575
886.4	14590
886.525	14571
886.65	14594
886.775	14511
886.9	14762
887.025	14902
887.149	14621
887.274	14526
887.399	14484
887.523	14514
887.648	14400
887.773	14393
887.897	14575
888.021	14507
888.146	14442
888.27	14568
888.395	14590
888.519	14514
888.643	14476
888.767	14518
888.891	14427
889.015	14339
889.139	14305
889.263	14259
889.387	14393
889.511	14610
889.635	14461
889.759	14351
889.883	14313
890.006	14374
890.13	14480
890.254	14187
890.377	14263
890.501	14130
890.624	14149
890.748	14237
890.871	14012
890.995	14046
891.118	13989
891.241	14081
891.364	14153
891.488	14142
891.611	13963
891.734	14115
891.857	14050
891.98	14073
892.103	14138
892.226	14050
892.349	14001
892.471	13753
892.594	14008
892.717	14058
892.839	13993
892.962	14001
893.085	14103
893.207	14027
893.33	13963
893.452	13909
893.575	14145
893.697	13986
893.819	14145
893.941	14263
894.064	14176
894.186	14020
894.308	14027
894.43	14275
894.552	14237
894.674	14119
894.796	13940
894.918	13982
895.04	14130
895.161	14100
895.283	14024
895.405	14069
895.526	14123
895.648	14103
895.769	14263
895.891	14233
896.012	14301
896.134	14294
896.255	14164
896.376	14157
896.498	14123
896.619	14248
896.74	14149
896.861	14317
896.982	14503
897.103	14845
897.224	14473
897.345	14465
897.466	14366
897.587	14469
897.708	14674
897.828	14499
897.949	14446
898.07	14294
898.19	14454
898.311	14640
898.431	14511
898.552	14545
898.672	14697
898.792	14610
898.913	14640
899.033	14434
899.153	14423
899.273	14374
899.393	14385
899.513	14339
899.633	14385
899.753	14514
899.873	14324
899.993	14507
900.113	14385
900.232	14393
900.352	14301
900.472	14332
900.591	14252
900.711	14290
900.83	14259
900.95	14431
901.069	14423
901.189	14313
901.308	13974
901.427	13936
901.546	13917
901.665	13936
901.784	13917
901.904	13822
902.023	13734
902.141	13620
902.26	13552
902.379	13540
902.498	13529
902.617	13449
902.735	13620
902.854	13491
902.973	13396
903.091	13358
903.21	13247
903.328	13285
903.446	13168
903.565	13031
903.683	13050
903.801	13034
903.919	13069
904.038	13091
904.156	12970
904.274	12947
904.392	12890
904.51	12859
904.627	12848
904.745	12970
904.863	12954
904.981	12722
905.098	12566
905.216	12635
905.334	12719
905.451	12639
905.569	12570
905.686	12608
905.803	12563
905.921	12426
906.038	12555
906.155	12399
906.272	12323
906.389	12334
906.506	12224
906.623	12167
906.74	12239
906.857	12102
906.974	12114
907.091	12247
907.208	12319
907.324	12144
907.441	12038
907.557	11897
907.674	11893
907.79	11999
907.907	11965
908.023	11927
908.139	12041
908.256	11874
908.372	11904
908.488	11756
908.604	11737
908.72	11661
908.836	11695
908.952	11695
909.068	11661
909.184	11821
909.3	11684
909.415	11680
909.531	11695
909.647	11589
909.762	11509
909.878	11417
909.993	11532
910.108	11452
910.224	11436
910.339	11452
910.454	11372
910.57	11406
910.685	11216
910.8	11554
910.915	11455
911.03	11337
911.145	11147
911.259	11212
911.374	11231
911.489	11006
911.604	10953
911.718	10938
911.833	10934
911.947	10854
912.062	10805
912.176	10934
912.291	10915
912.405	10976
912.519	11113
912.633	11223
912.748	10976
912.862	10927
912.976	10858
913.09	10706
913.204	10736
913.318	10793
913.431	10904
913.545	10892
913.659	10980
913.772	10847
913.886	10752
914	10599
914.113	10816
914.226	10847
914.34	10793
914.453	10637
914.566	10793
914.68	10664
914.793	10691
914.906	10500
915.019	10462
915.132	10363
915.245	10466
915.358	10455
915.47	10478
915.583	10497
915.696	10466
915.809	10641
915.921	10660
916.034	10432
916.146	10398
916.259	10402
916.371	10561
916.483	10432
916.595	10356
916.708	10333
916.82	10367
916.932	10329
917.044	10360
917.156	10356
917.268	10238
917.38	10318
917.491	10295
917.603	10306
917.715	10379
917.826	10405
917.938	10242
918.049	10219
918.161	10375
918.272	10390
918.384	10375
918.495	10261
918.606	10135
918.717	10101
918.828	10192
918.939	10192
919.05	10090
919.161	10166
919.272	9956
919.383	10040
919.494	10169
919.604	10405
919.715	10143
919.826	10101
919.936	10131
920.047	10253
920.157	10150
920.267	10413
920.378	10215
920.488	10192
920.598	10386
920.708	10588
920.818	10337
920.928	10379
921.038	10470
921.148	10497
921.258	10211
921.368	10128
921.477	10071
921.587	10051
921.697	9956
921.806	10025
921.916	9876
922.025	9793
922.134	9724
922.244	9698
922.353	9819
922.462	9663
922.571	9591
922.68	9500
922.789	9447
922.898	9443
923.007	9325
923.116	9462
923.224	9435
923.333	9469
923.442	9332
923.55	9310
923.659	9253
923.767	9466
923.876	9272
923.984	9363
924.092	9188
924.201	9321
924.309	9245
924.417	9317
924.525	9283
924.633	9256
924.741	10143
924.849	9070
924.956	9218
925.064	9066
925.172	9047
925.279	9017
925.387	9017
925.494	9104
925.602	9192
925.709	9241
925.816	9058
925.924	9112
926.031	9150
926.138	9085
926.245	9150
926.352	8986
926.459	9123
926.566	9173
926.673	9093
926.779	8933
926.886	8933
926.993	8815
927.099	8777
927.206	8735
927.312	8804
927.419	8880
927.525	8746
927.631	8811
927.737	8667
927.843	8701
927.95	8526
928.056	8663
928.162	8651
928.267	8697
928.373	9233
928.479	8807
928.585	8526
928.69	8651
928.796	8632
928.901	8606
929.007	8457
929.112	8682
929.218	8552
929.323	8507
929.428	8568
929.533	8632
929.638	8480
929.743	8526
929.848	8552
929.953	8480
930.058	8404
930.163	8286
930.267	8279
930.372	8404
930.477	8256
930.581	8587
930.685	8328
930.79	8214
930.894	8294
930.998	8225
931.103	8301
931.207	8035
931.311	7989
931.415	7940
931.519	7792
931.623	7769
