Data from test_V78500241_690.txt Node
Date: Fri Mar 25 14:38:31 CST 2022
User: usil
Spectrometer: V785-0024
Trigger mode: 0
Integration Time (sec): 4.000000E-1
Scans to average: 1
Nonlinearity correction enabled: false
Boxcar width: 0
Storing dark spectrum: false
XAxis mode: Wavelengths
Number of Pixels in Spectrum: 1024
>>>>>Begin Spectral Data<<<<<
801.071	28006
801.214	27914
801.356	27778
801.499	27599
801.641	27382
801.783	27443
801.926	27450
802.068	27363
802.211	27241
802.353	27127
802.496	26910
802.638	27001
802.78	26986
802.923	26849
803.065	26925
803.208	26800
803.35	26933
803.492	27005
803.635	27093
803.777	27131
803.919	27230
804.061	27378
804.204	27252
804.346	27123
804.488	27104
804.63	27180
804.773	27138
804.915	27306
805.057	27454
805.199	27408
805.341	27610
805.483	27591
805.626	27690
805.768	27720
805.91	27994
806.052	27972
806.194	27930
806.336	28470
806.478	28561
806.62	28538
806.762	29067
806.904	29383
807.046	29893
807.188	30247
807.33	30528
807.472	31289
807.614	31906
807.756	32735
807.898	33899
808.04	35242
808.182	37479
808.324	40147
808.465	43065
808.607	46736
808.749	49468
808.891	51184
809.033	51363
809.174	49658
809.316	46778
809.458	43457
809.6	39797
809.741	37076
809.883	34881
810.025	33348
810.166	32199
810.308	31479
810.45	30909
810.591	30315
810.733	29573
810.875	29250
811.016	28980
811.158	28618
811.299	28778
811.441	28672
811.582	28443
811.724	28261
811.865	28048
812.007	27953
812.148	27972
812.29	27937
812.431	28044
812.573	28143
812.714	27998
812.855	28093
812.997	28154
813.138	28116
813.279	28120
813.421	27888
813.562	27911
813.703	27686
813.845	27462
813.986	27169
814.127	26902
814.268	26868
814.41	26785
814.551	26868
814.692	26842
814.833	26689
814.974	26701
815.115	26530
815.256	26469
815.397	26488
815.539	26408
815.68	26396
815.821	26107
815.962	26259
816.103	26244
816.244	26008
816.385	25951
816.526	26058
816.666	25795
816.807	25605
816.948	25582
817.089	25693
817.23	25567
817.371	25613
817.512	25521
817.653	25362
817.793	25457
817.934	25499
818.075	25548
818.216	25381
818.356	25369
818.497	25464
818.638	25244
818.778	25324
818.919	25198
819.06	25365
819.2	25202
819.341	25407
819.481	25346
819.622	25537
819.762	25609
819.903	25578
820.043	25529
820.184	25430
820.324	25449
820.465	25426
820.605	25377
820.746	25270
820.886	25164
821.026	25244
821.167	25266
821.307	25183
821.447	25137
821.588	25012
821.728	24840
821.868	24787
822.008	24525
822.149	24536
822.289	24570
822.429	24334
822.569	24171
822.709	24068
822.849	24030
822.99	24068
823.13	23984
823.27	24045
823.41	23824
823.55	23657
823.69	23767
823.83	23767
823.97	23722
824.11	23509
824.25	23573
824.389	23478
824.529	23741
824.669	23589
824.809	23665
824.949	23615
825.089	23581
825.228	23448
825.368	23448
825.508	23284
825.648	23315
825.787	23383
825.927	23349
826.067	23311
826.206	23421
826.346	23356
826.485	23379
826.625	23155
826.765	23318
826.904	23288
827.044	23048
827.183	23075
827.323	23056
827.462	22991
827.601	23044
827.741	22991
827.88	22980
828.02	23025
828.159	23044
828.298	22900
828.437	22934
828.577	22908
828.716	22915
828.855	22839
828.994	22664
829.134	22687
829.273	22691
829.412	22592
829.551	22573
829.69	22531
829.829	22706
829.968	22733
830.107	22755
830.246	22611
830.385	22561
830.524	22481
830.663	22413
830.802	22356
830.941	22272
831.08	22226
831.219	22360
831.357	22223
831.496	22580
831.635	22215
831.774	22276
831.913	22135
832.051	22196
832.19	22204
832.329	22154
832.467	22078
832.606	22177
832.744	21979
832.883	22150
833.022	22215
833.16	22424
833.299	22360
833.437	22611
833.576	22752
833.714	22862
833.852	23075
833.991	23109
834.129	23322
834.267	23166
834.406	23128
834.544	23159
834.682	22949
834.821	22965
834.959	23048
835.097	22710
835.235	22573
835.373	22481
835.511	22306
835.65	22097
835.788	22188
835.926	21953
836.064	21793
836.202	21766
836.34	21857
836.478	21926
836.615	21895
836.753	21819
836.891	21736
837.029	21633
837.167	21641
837.305	21728
837.443	21557
837.58	21462
837.718	21701
837.856	21576
837.993	21431
838.131	21606
838.269	21420
838.406	21614
838.544	21241
838.681	21211
838.819	21252
838.956	20971
839.094	20971
839.231	21070
839.369	21192
839.506	21332
839.643	21226
839.781	21100
839.918	20902
840.055	20899
840.193	21005
840.33	20868
840.467	20967
840.604	20933
840.742	21169
840.879	20872
841.016	20781
841.153	20800
841.29	21058
841.427	20956
841.564	20990
841.701	21036
841.838	20952
841.975	20902
842.112	20929
842.249	20796
842.385	20743
842.522	20990
842.659	20773
842.796	20765
842.933	20773
843.069	20777
843.206	20754
843.343	20765
843.479	20823
843.616	20921
843.752	20781
843.889	20693
844.025	21104
844.162	20975
844.298	21089
844.435	21287
844.571	21397
844.708	21686
844.844	22230
844.98	22557
845.117	23151
845.253	24190
845.389	26073
845.525	29748
845.661	35843
845.798	42631
845.934	47752
846.07	49742
846.206	48193
846.342	43259
846.478	36429
846.614	30547
846.75	26579
846.886	24342
847.022	23044
847.158	22135
847.294	21481
847.429	21146
847.565	20830
847.701	20861
847.837	20206
847.972	20142
848.108	20103
848.244	20161
848.379	19894
848.515	19769
848.65	19780
848.786	19704
848.921	19841
849.057	19887
849.192	19761
849.328	19658
849.463	19723
849.598	19670
849.734	19434
849.869	19426
850.004	19396
850.14	19487
850.275	19362
850.41	19403
850.545	19274
850.68	19327
850.815	19285
850.95	19282
851.085	19430
851.22	19518
851.355	19282
851.49	19274
851.625	19335
851.76	19350
851.895	19278
852.03	19320
852.165	19278
852.299	19457
852.434	19518
852.569	19480
852.703	19365
852.838	19415
852.973	19643
853.107	19597
853.242	19514
853.376	19308
853.511	19346
853.645	19472
853.78	19643
853.914	19571
854.048	19586
854.183	19548
854.317	19563
854.451	19742
854.585	19624
854.72	19495
854.854	19635
854.988	19590
855.122	19381
855.256	19232
855.39	19324
855.524	19483
855.658	19441
855.792	19362
855.926	19259
856.06	19145
856.194	19331
856.327	19156
856.461	19190
856.595	19179
856.729	19118
856.862	19183
856.996	19217
857.13	19240
857.263	19187
857.397	19164
857.53	19099
857.664	19080
857.797	19076
857.931	19076
858.064	19164
858.197	19168
858.331	19084
858.464	19148
858.597	18814
858.731	19050
858.864	19072
858.997	18954
859.13	19015
859.263	19053
859.396	19023
859.529	18993
859.662	18886
859.795	19000
859.928	19008
860.061	19137
860.194	19175
860.327	18954
860.46	18943
860.592	19015
860.725	19148
860.858	19095
860.99	18920
861.123	18787
861.256	18894
861.388	18985
861.521	19605
861.653	18848
861.786	18821
861.918	18886
862.05	18973
862.183	19004
862.315	18966
862.447	19027
862.58	18814
862.712	18753
862.844	18597
862.976	18688
863.108	18787
863.24	18985
863.372	18536
863.504	18593
863.636	18608
863.768	18688
863.9	18616
864.032	18540
864.164	18502
864.296	18665
864.428	18692
864.559	18639
864.691	18677
864.823	18650
864.954	18536
865.086	18658
865.217	18536
865.349	18551
865.48	18475
865.612	18528
865.743	18658
865.875	18502
866.006	18414
866.137	18479
866.269	18456
866.4	18544
866.531	18490
866.662	18433
866.793	18513
866.924	18445
867.055	18483
867.186	18597
867.317	18365
867.448	18338
867.579	18388
867.71	18361
867.841	18395
867.972	18426
868.103	18498
868.233	18502
868.364	18498
868.495	18585
868.625	18669
868.756	18897
868.886	18703
869.017	18791
869.147	18878
869.278	18859
869.408	18913
869.539	18821
869.669	18844
869.799	18764
869.929	18958
870.06	18966
870.19	19076
870.32	19118
870.45	19091
870.58	19244
870.71	19339
870.84	19225
870.97	19301
871.1	19190
871.23	19365
871.36	19457
871.489	19396
871.619	19434
871.749	19396
871.879	19525
872.008	19635
872.138	19533
872.267	19624
872.397	19381
872.526	19346
872.656	19384
872.785	19373
872.915	19639
873.044	19693
873.173	19556
873.303	19769
873.432	19742
873.561	19814
873.69	19704
873.819	19723
873.948	19791
874.077	19795
874.206	19769
874.335	19936
874.464	20062
874.593	20195
874.722	20012
874.851	20275
874.979	20248
875.108	20355
875.237	20267
875.365	20244
875.494	20225
875.623	20522
875.751	20476
875.88	20495
876.008	20644
876.136	20864
876.265	21013
876.393	21222
876.521	21233
876.65	21222
876.778	21218
876.906	21207
877.034	21321
877.162	21454
877.29	21454
877.418	21595
877.546	21720
877.674	21747
877.802	21842
877.93	22017
878.058	22261
878.185	22337
878.313	22653
878.441	22869
878.568	23193
878.696	23950
878.824	24745
878.951	25970
879.079	27485
879.206	29596
879.333	31734
879.461	33462
879.588	34508
879.715	34672
879.842	33564
879.97	31708
880.097	29577
880.224	27865
880.351	26598
880.478	25890
880.605	25240
880.732	24875
880.859	24768
880.986	24311
881.112	24251
881.239	24129
881.366	24041
881.493	23855
881.619	23783
881.746	23965
881.872	23954
881.999	23935
882.125	23992
882.252	24083
882.378	24064
882.505	24159
882.631	24136
882.757	23939
882.883	23980
883.01	23988
883.136	23859
883.262	23726
883.388	23737
883.514	23783
883.64	24026
883.766	23832
883.892	23707
884.018	23661
884.143	23836
884.269	23916
884.395	23687
884.52	23638
884.646	23661
884.772	23512
884.897	23421
885.023	23665
885.148	23729
885.274	23672
885.399	23459
885.524	23254
885.65	23147
885.775	23113
885.9	22999
886.025	22991
886.15	22710
886.275	22550
886.4	22265
886.525	22272
886.65	22017
886.775	21899
886.9	22078
887.025	21945
887.149	21717
887.274	21336
887.399	21260
887.523	21302
887.648	21123
887.773	20982
887.897	21268
888.021	20986
888.146	20792
888.27	20944
888.395	20762
888.519	20868
888.643	20686
888.767	20716
888.891	20438
889.015	20267
889.139	20347
889.263	20237
889.387	20317
889.511	20336
889.635	20324
889.759	20187
889.883	20115
890.006	20100
890.13	20027
890.254	19902
890.377	19852
890.501	19651
890.624	19712
890.748	19662
890.871	19510
890.995	19430
891.118	19297
891.241	19327
891.364	19358
891.488	19354
891.611	19308
891.734	19301
891.857	19240
891.98	19301
892.103	19232
892.226	19198
892.349	19099
892.471	18848
892.594	18947
892.717	19084
892.839	18989
892.962	19118
893.085	19042
893.207	18913
893.33	18688
893.452	18700
893.575	18886
893.697	18795
893.819	18814
893.941	18916
894.064	18719
894.186	18677
894.308	18623
894.43	18692
894.552	18772
894.674	18604
894.796	18528
894.918	18578
895.04	18471
895.161	18589
895.283	18574
895.405	18334
895.526	18467
895.648	18528
895.769	18448
895.891	18528
896.012	18547
896.134	18498
896.255	18509
896.376	18369
896.498	18467
896.619	18437
896.74	18456
896.861	18532
896.982	18700
897.103	18798
897.224	18620
897.345	18593
897.466	18521
897.587	18658
897.708	18692
897.828	18688
897.949	18494
898.07	18384
898.19	18437
898.311	18566
898.431	18578
898.552	18578
898.672	18540
898.792	18658
898.913	18490
899.033	18460
899.153	18414
899.273	18190
899.393	18308
899.513	18338
899.633	18380
899.753	18285
899.873	18353
899.993	18319
900.113	18201
900.232	18209
900.352	18251
900.472	18110
900.591	18098
900.711	18121
900.83	18136
900.95	18159
901.069	18216
901.189	18064
901.308	17866
901.427	17619
901.546	17619
901.665	17741
901.784	17619
901.904	17532
902.023	17452
902.141	17151
902.26	17170
902.379	17246
902.498	17140
902.617	17041
902.735	17094
902.854	17083
902.973	17071
903.091	16653
903.21	16797
903.328	16748
903.446	16649
903.565	16607
903.683	16607
903.801	16440
903.919	16497
904.038	16455
904.156	16268
904.274	16402
904.392	16322
904.51	16265
904.627	16242
904.745	16299
904.863	16371
904.981	16036
905.098	15876
905.216	15880
905.334	16025
905.451	15865
905.569	15956
905.686	15964
905.803	15991
905.921	15648
906.038	15823
906.155	15671
906.272	15599
906.389	15629
906.506	15462
906.623	15428
906.74	15420
906.857	15359
906.974	15397
907.091	15458
907.208	15595
907.324	15431
907.441	15351
907.557	15169
907.674	15150
907.79	15089
907.907	15089
908.023	15097
908.139	15081
908.256	15036
908.372	15070
908.488	15085
908.604	14830
908.72	14872
908.836	14845
908.952	14876
909.068	14842
909.184	14914
909.3	14842
909.415	14906
909.531	14880
909.647	14632
909.762	14579
909.878	14518
909.993	14575
910.108	14511
910.224	14552
910.339	14583
910.454	14377
910.57	14469
910.685	14275
910.8	14545
910.915	14579
911.03	14465
911.145	14259
911.259	14259
911.374	14336
911.489	14096
911.604	14077
911.718	13974
911.833	13928
911.947	13932
912.062	13772
912.176	13814
912.291	14031
912.405	13799
912.519	14168
912.633	14069
912.748	14020
912.862	13932
912.976	13746
913.09	13696
913.204	13826
913.318	13818
913.431	13818
913.545	13833
913.659	13883
913.772	13738
913.886	13616
914	13563
914.113	13765
914.226	13788
914.34	13765
914.453	13491
914.566	13696
914.68	13632
914.793	13533
914.906	13472
915.019	13312
915.132	13312
915.245	13266
915.358	13274
915.47	13316
915.583	13312
915.696	13384
915.809	13457
915.921	13411
916.034	13221
916.146	13293
916.259	13259
916.371	13346
916.483	13324
916.595	13213
916.708	13198
916.82	13270
916.932	13297
917.044	13255
917.156	13156
917.268	13129
917.38	13076
917.491	12985
917.603	13118
917.715	13129
917.826	13221
917.938	13038
918.049	12897
918.161	13053
918.272	13057
918.384	13110
918.495	13038
918.606	12882
918.717	12703
918.828	12913
918.939	12848
919.05	12772
919.161	12802
919.272	12597
919.383	12639
919.494	12787
919.604	13008
919.715	12745
919.826	12646
919.936	12776
920.047	12787
920.157	12646
920.267	12886
920.378	12719
920.488	12669
920.598	12894
920.708	13099
920.818	12939
920.928	12924
921.038	13038
921.148	13114
921.258	12696
921.368	12726
921.477	12563
921.587	12498
921.697	12395
921.806	12517
921.916	12418
922.025	12266
922.134	12155
922.244	12110
922.353	12239
922.462	12068
922.571	12060
922.68	11889
922.789	11783
922.898	11851
923.007	11752
923.116	11977
923.224	11904
923.333	11790
923.442	11688
923.55	11714
923.659	11668
923.767	11745
923.876	11665
923.984	11726
924.092	11554
924.201	11718
924.309	11646
924.417	11642
924.525	11592
924.633	11562
924.741	12441
924.849	11387
924.956	11459
925.064	11395
925.172	11201
925.279	11246
925.387	11318
925.494	11280
925.602	11406
925.709	11356
925.816	11269
925.924	11326
926.031	11463
926.138	11334
926.245	11261
926.352	11265
926.459	11368
926.566	11349
926.673	11235
926.779	11170
926.886	11193
926.993	11033
927.099	11003
927.206	10957
927.312	10938
927.419	11022
927.525	11014
927.631	10995
927.737	10908
927.843	10809
927.95	10736
928.056	10847
928.162	10866
928.267	10869
928.373	11406
928.479	10885
928.585	10767
928.69	10828
928.796	10824
928.901	10736
929.007	10580
929.112	10725
929.218	10672
929.323	10603
929.428	10519
929.533	10706
929.638	10569
929.743	10485
929.848	10626
929.953	10607
930.058	10386
930.163	10363
930.267	10417
930.372	10413
930.477	10371
930.581	10405
930.685	10409
930.79	10158
930.894	10223
930.998	10276
931.103	10386
931.207	10063
931.311	9922
931.415	9869
931.519	9660
931.623	9679
