Data from test_V78500241_2989.txt Node
Date: Fri Mar 25 14:54:31 CST 2022
User: usil
Spectrometer: V785-0024
Trigger mode: 0
Integration Time (sec): 4.000000E-1
Scans to average: 1
Nonlinearity correction enabled: false
Boxcar width: 0
Storing dark spectrum: false
XAxis mode: Wavelengths
Number of Pixels in Spectrum: 1024
>>>>>Begin Spectral Data<<<<<
801.071	22048
801.214	22044
801.356	21713
801.499	21625
801.641	21545
801.783	21443
801.926	21523
802.068	21389
802.211	21397
802.353	21283
802.496	21024
802.638	20990
802.78	20929
802.923	20842
803.065	20659
803.208	20716
803.35	20765
803.492	20918
803.635	20853
803.777	20746
803.919	20899
804.061	21165
804.204	20891
804.346	20708
804.488	20731
804.63	20906
804.773	20651
804.915	20758
805.057	20883
805.199	20632
805.341	20868
805.483	20773
805.626	20792
805.768	20716
805.91	20746
806.052	20693
806.194	20701
806.336	20842
806.478	20689
806.62	20720
806.762	20883
806.904	20880
807.046	21074
807.188	21123
807.33	20979
807.472	21089
807.614	21013
807.756	21009
807.898	20861
808.04	20807
808.182	20800
808.324	20849
808.465	20777
808.607	21005
808.749	21074
808.891	21260
809.033	21150
809.174	21077
809.316	21055
809.458	21039
809.6	21039
809.741	21131
809.883	21104
810.025	21218
810.166	21192
810.308	21272
810.45	21233
810.591	21119
810.733	20982
810.875	20899
811.016	20735
811.158	20788
811.299	20910
811.441	21036
811.582	21032
811.724	20918
811.865	20689
812.007	20876
812.148	20918
812.29	20895
812.431	21058
812.573	21173
812.714	21321
812.855	21397
812.997	21542
813.138	21690
813.279	21549
813.421	21279
813.562	21218
813.703	21074
813.845	20857
813.986	20655
814.127	20469
814.268	20549
814.41	20461
814.551	20476
814.692	20499
814.833	20332
814.974	20313
815.115	20305
815.256	20309
815.397	20259
815.539	20157
815.68	20081
815.821	20001
815.962	20183
816.103	20115
816.244	19898
816.385	19833
816.526	19818
816.666	19681
816.807	19483
816.948	19693
817.089	19597
817.23	19586
817.371	19514
817.512	19468
817.653	19457
817.793	19441
817.934	19521
818.075	19449
818.216	19556
818.356	19506
818.497	19407
818.638	19206
818.778	19198
818.919	19206
819.06	19228
819.2	19251
819.341	19426
819.481	19403
819.622	19575
819.762	19887
819.903	19708
820.043	19578
820.184	19487
820.324	19453
820.465	19594
820.605	19609
820.746	19388
820.886	19266
821.026	19590
821.167	19400
821.307	19499
821.447	19453
821.588	19331
821.728	19095
821.868	19008
822.008	18916
822.149	18840
822.289	18924
822.429	18669
822.569	18635
822.709	18608
822.849	18498
822.99	18479
823.13	18429
823.27	18277
823.41	18346
823.55	18163
823.69	18194
823.83	18296
823.97	17999
824.11	17897
824.25	18030
824.389	17893
824.529	18007
824.669	17870
824.809	18148
824.949	17980
825.089	17942
825.228	18015
825.368	17790
825.508	17691
825.648	17874
825.787	17805
825.927	17703
826.067	17710
826.206	17729
826.346	17836
826.485	17783
826.625	17786
826.765	17939
826.904	17714
827.044	17657
827.183	17512
827.323	17417
827.462	17585
827.601	17436
827.741	17471
827.88	17387
828.02	17318
828.159	17429
828.298	17379
828.437	17551
828.577	17402
828.716	17509
828.855	17280
828.994	17235
829.134	17239
829.273	17136
829.412	17143
829.551	17067
829.69	17193
829.829	17181
829.968	17307
830.107	17216
830.246	17223
830.385	17109
830.524	17045
830.663	17048
830.802	16934
830.941	16900
831.08	16767
831.219	16892
831.357	16877
831.496	17083
831.635	16809
831.774	16820
831.913	16729
832.051	16554
832.19	16569
832.329	16634
832.467	16523
832.606	16538
832.744	16455
832.883	16398
833.022	16478
833.16	16443
833.299	16546
833.437	16512
833.576	16516
833.714	16474
833.852	16565
833.991	16531
834.129	16611
834.267	16485
834.406	16519
834.544	16554
834.682	16546
834.821	16523
834.959	16577
835.097	16421
835.235	16531
835.373	16474
835.511	16481
835.65	16352
835.788	16352
835.926	16322
836.064	16226
836.202	16299
836.34	16451
836.478	16447
836.615	16333
836.753	16519
836.891	16527
837.029	16538
837.167	16523
837.305	16314
837.443	16299
837.58	16287
837.718	16375
837.856	16196
837.993	16276
838.131	16314
838.269	16147
838.406	16211
838.544	16109
838.681	16032
838.819	16082
838.956	15895
839.094	15819
839.231	16044
839.369	15956
839.506	16196
839.643	16029
839.781	15778
839.918	15827
840.055	15842
840.193	15816
840.33	15816
840.467	15880
840.604	15876
840.742	16090
840.879	15797
841.016	15778
841.153	15816
841.29	15975
841.427	15842
841.564	15926
841.701	15895
841.838	15793
841.975	15720
842.112	15679
842.249	15629
842.385	15641
842.522	15880
842.659	15743
842.796	15557
842.933	15625
843.069	15572
843.206	15686
843.343	15701
843.479	15625
843.616	15671
843.752	15424
843.889	15393
844.025	15507
844.162	15310
844.298	15469
844.435	15466
844.571	15317
844.708	15370
844.844	15492
844.98	15481
845.117	15431
845.253	15321
845.389	15211
845.525	15287
845.661	15287
845.798	15119
845.934	15275
846.07	15074
846.206	15195
846.342	15378
846.478	15116
846.614	14933
846.75	14937
846.886	14891
847.022	15062
847.158	14891
847.294	14998
847.429	14891
847.565	14990
847.701	15203
847.837	14644
847.972	14712
848.108	14842
848.244	14773
848.379	14522
848.515	14594
848.65	14450
848.786	14514
848.921	14705
849.057	14674
849.192	14617
849.328	14503
849.463	14533
849.598	14552
849.734	14461
849.869	14374
850.004	14358
850.14	14389
850.275	14298
850.41	14366
850.545	14244
850.68	14301
850.815	14370
850.95	14286
851.085	14511
851.22	14377
851.355	14358
851.49	14309
851.625	14290
851.76	14259
851.895	14240
852.03	14119
852.165	14244
852.299	14278
852.434	14438
852.569	14282
852.703	14351
852.838	14385
852.973	14514
853.107	14480
853.242	14313
853.376	14267
853.511	14001
853.645	14138
853.78	14240
853.914	14164
854.048	14077
854.183	14145
854.317	14278
854.451	14328
854.585	14176
854.72	14149
854.854	14206
854.988	14214
855.122	14221
855.256	14103
855.39	14157
855.524	14290
855.658	14229
855.792	14195
855.926	14256
856.06	14225
856.194	14256
856.327	14161
856.461	14130
856.595	14206
856.729	14256
856.862	14214
856.996	14206
857.13	14298
857.263	14343
857.397	14362
857.53	14244
857.664	14142
857.797	14267
857.931	14385
858.064	14225
858.197	14343
858.331	14172
858.464	14103
858.597	14058
858.731	14248
858.864	14263
858.997	14183
859.13	14187
859.263	14252
859.396	14263
859.529	14142
859.662	14199
859.795	14172
859.928	14275
860.061	14408
860.194	14438
860.327	14294
860.46	14210
860.592	14252
860.725	14252
860.858	14290
860.99	14119
861.123	14073
861.256	14092
861.388	14218
861.521	14887
861.653	14058
861.786	13940
861.918	13997
862.05	14103
862.183	14225
862.315	14214
862.447	14218
862.58	14138
862.712	13947
862.844	13921
862.976	14039
863.108	14024
863.24	14434
863.372	13849
863.504	13928
863.636	14012
863.768	14069
863.9	13947
864.032	13906
864.164	13913
864.296	14046
864.428	14058
864.559	14119
864.691	14058
864.823	14031
864.954	14039
865.086	13982
865.217	13993
865.349	13909
865.48	13921
865.612	14046
865.743	14088
865.875	13997
866.006	13883
866.137	13986
866.269	13970
866.4	13902
866.531	13803
866.662	13860
866.793	13898
866.924	13928
867.055	13963
867.186	13993
867.317	13944
867.448	13849
867.579	13868
867.71	13909
867.841	13986
867.972	13932
868.103	13925
868.233	13932
868.364	13921
868.495	13978
868.625	14199
868.756	14237
868.886	14134
869.017	14138
869.147	14313
869.278	14298
869.408	14332
869.539	14282
869.669	14320
869.799	14248
869.929	14336
870.06	14252
870.19	14537
870.32	14541
870.45	14530
870.58	14689
870.71	14716
870.84	14735
870.97	14613
871.1	14522
871.23	14701
871.36	14777
871.489	14754
871.619	14743
871.749	14705
871.879	14899
872.008	14956
872.138	14762
872.267	14754
872.397	14693
872.526	14541
872.656	14602
872.785	14720
872.915	14906
873.044	14906
873.173	14895
873.303	14956
873.432	14792
873.561	14925
873.69	14834
873.819	14864
873.948	14902
874.077	14872
874.206	14750
874.335	14849
874.464	14975
874.593	15112
874.722	15116
874.851	15188
874.979	15195
875.108	15241
875.237	15116
875.365	15013
875.494	15108
875.623	15237
875.751	15119
875.88	15165
876.008	15291
876.136	15408
876.265	15564
876.393	15648
876.521	15717
876.65	15724
876.778	15553
876.906	15633
877.034	15564
877.162	15622
877.29	15435
877.418	15576
877.546	15587
877.674	15545
877.802	15584
877.93	15530
878.058	15511
878.185	15500
878.313	15561
878.441	15652
878.568	15424
878.696	15553
878.824	15553
878.951	15682
879.079	15713
879.206	15861
879.333	15762
879.461	15720
879.588	15762
879.715	15789
879.842	15903
879.97	15610
880.097	15340
880.224	15382
880.351	15405
880.478	15496
880.605	15420
880.732	15310
880.859	15492
880.986	15450
881.112	15439
881.239	15363
881.366	15203
881.493	15165
881.619	15093
881.746	15051
881.872	15028
881.999	14982
882.125	14979
882.252	15077
882.378	15112
882.505	15317
882.631	14990
882.757	14975
882.883	14887
883.01	14891
883.136	14914
883.262	14769
883.388	14765
883.514	14941
883.64	14899
883.766	14891
883.892	14697
884.018	14762
884.143	14899
884.269	14944
884.395	14739
884.52	14617
884.646	14571
884.772	14526
884.897	14473
885.023	14602
885.148	14788
885.274	14887
885.399	14686
885.524	14613
885.65	14575
885.775	14667
885.9	14579
886.025	14712
886.15	14743
886.275	14579
886.4	14549
886.525	14617
886.65	14518
886.775	14552
886.9	14705
887.025	14788
887.149	14659
887.274	14480
887.399	14480
887.523	14366
887.648	14351
887.773	14267
887.897	14549
888.021	14499
888.146	14396
888.27	14541
888.395	14636
888.519	14522
888.643	14537
888.767	14499
888.891	14332
889.015	14313
889.139	14377
889.263	14305
889.387	14465
889.511	14473
889.635	14412
889.759	14267
889.883	14301
890.006	14336
890.13	14427
890.254	14199
890.377	14218
890.501	14115
890.624	14119
890.748	14248
890.871	14164
890.995	13925
891.118	13860
891.241	14062
891.364	14020
891.488	14191
891.611	14001
891.734	14035
891.857	14035
891.98	13967
892.103	14046
892.226	14016
892.349	13959
892.471	13833
892.594	13974
892.717	14024
892.839	13993
892.962	13982
893.085	14138
893.207	14073
893.33	13959
893.452	13989
893.575	14092
893.697	13997
893.819	14191
893.941	14195
894.064	14134
894.186	13955
894.308	14005
894.43	14210
894.552	14164
894.674	14206
894.796	14027
894.918	14016
895.04	14020
895.161	14149
895.283	14180
895.405	14123
895.526	14054
895.648	14084
895.769	14142
895.891	14168
896.012	14320
896.134	14290
896.255	14240
896.376	14081
896.498	14199
896.619	14275
896.74	14195
896.861	14320
896.982	14461
897.103	14564
897.224	14446
897.345	14579
897.466	14419
897.587	14389
897.708	14564
897.828	14625
897.949	14362
898.07	14404
898.19	14408
898.311	14522
898.431	14488
898.552	14518
898.672	14689
898.792	14640
898.913	14587
899.033	14423
899.153	14415
899.273	14313
899.393	14442
899.513	14370
899.633	14404
899.753	14450
899.873	14412
899.993	14366
900.113	14385
900.232	14465
900.352	14434
900.472	14233
900.591	14157
900.711	14385
900.83	14290
900.95	14400
901.069	14389
901.189	14233
901.308	14039
901.427	13856
901.546	13947
901.665	14008
901.784	13989
901.904	13902
902.023	13830
902.141	13628
902.26	13567
902.379	13441
902.498	13491
902.617	13472
902.735	13601
902.854	13495
902.973	13464
903.091	13297
903.21	13202
903.328	13293
903.446	13190
903.565	13160
903.683	13076
903.801	12981
903.919	13137
904.038	13122
904.156	12913
904.274	12977
904.392	12859
904.51	12886
904.627	12875
904.745	12932
904.863	13008
904.981	12741
905.098	12559
905.216	12635
905.334	12578
905.451	12525
905.569	12517
905.686	12604
905.803	12616
905.921	12448
906.038	12494
906.155	12403
906.272	12357
906.389	12292
906.506	12239
906.623	12148
906.74	12098
906.857	12011
906.974	12098
907.091	12292
907.208	12266
907.324	12224
907.441	12083
907.557	11882
907.674	11805
907.79	11836
907.907	11893
908.023	11961
908.139	11927
908.256	11870
908.372	11870
908.488	11920
908.604	11729
908.72	11638
908.836	11729
908.952	11592
909.068	11703
909.184	11733
909.3	11714
909.415	11760
909.531	11714
909.647	11455
909.762	11509
909.878	11379
909.993	11539
910.108	11402
910.224	11398
910.339	11501
910.454	11269
910.57	11231
910.685	11250
910.8	11528
910.915	11474
911.03	11341
911.145	11189
911.259	11079
911.374	11155
911.489	11128
911.604	11083
911.718	10896
911.833	11010
911.947	10790
912.062	10828
912.176	10866
912.291	10934
912.405	10961
912.519	11052
912.633	11098
912.748	10919
912.862	10900
912.976	10774
913.09	10694
913.204	10691
913.318	10752
913.431	10968
913.545	10805
913.659	10869
913.772	10824
913.886	10729
914	10630
914.113	10778
914.226	10854
914.34	10687
914.453	10550
914.566	10782
914.68	10649
914.793	10611
914.906	10455
915.019	10398
915.132	10295
915.245	10398
915.358	10462
915.47	10432
915.583	10497
915.696	10500
915.809	10584
915.921	10618
916.034	10386
916.146	10360
916.259	10405
916.371	10455
916.483	10371
916.595	10394
916.708	10341
916.82	10371
916.932	10367
917.044	10310
917.156	10295
917.268	10238
917.38	10341
917.491	10211
917.603	10360
917.715	10333
917.826	10386
917.938	10253
918.049	10154
918.161	10265
918.272	10386
918.384	10428
918.495	10322
918.606	10196
918.717	10048
918.828	10150
918.939	10112
919.05	10006
919.161	10139
919.272	9994
919.383	10067
919.494	10166
919.604	10398
919.715	10185
919.826	10093
919.936	10135
920.047	10238
920.157	10158
920.267	10443
920.378	10211
920.488	10147
920.598	10417
920.708	10485
920.818	10405
920.928	10341
921.038	10504
921.148	10474
921.258	10158
921.368	10158
921.477	10048
921.587	9975
921.697	9926
921.806	10036
921.916	9930
922.025	9751
922.134	9743
922.244	9679
922.353	9846
922.462	9667
922.571	9572
922.68	9435
922.789	9386
922.898	9431
923.007	9374
923.116	9439
923.224	9447
923.333	9291
923.442	9378
923.55	9287
923.659	9355
923.767	9348
923.876	9256
923.984	9397
924.092	9222
924.201	9287
924.309	9268
924.417	9291
924.525	9241
924.633	9211
924.741	10173
924.849	9051
924.956	9211
925.064	9097
925.172	8960
925.279	9024
925.387	9055
925.494	9100
925.602	9256
925.709	9173
925.816	8975
925.924	9062
926.031	9173
926.138	9093
926.245	9146
926.352	8986
926.459	9097
926.566	9169
926.673	9032
926.779	8982
926.886	8990
926.993	8830
927.099	8819
927.206	8792
927.312	8735
927.419	8815
927.525	8796
927.631	8883
927.737	8659
927.843	8720
927.95	8590
928.056	8648
928.162	8682
928.267	8701
928.373	9260
928.479	8857
928.585	8530
928.69	8670
928.796	8693
928.901	8632
929.007	8484
929.112	8655
929.218	8587
929.323	8583
929.428	8503
929.533	8606
929.638	8423
929.743	8495
929.848	8556
929.953	8446
930.058	8404
930.163	8301
930.267	8301
930.372	8404
930.477	8275
930.581	8480
930.685	8336
930.79	8339
930.894	8248
930.998	8206
931.103	8339
931.207	8031
931.311	7917
931.415	7860
931.519	7696
931.623	7719
