Data from test_V78500241_1782.txt Node
Date: Fri Mar 25 14:46:07 CST 2022
User: usil
Spectrometer: V785-0024
Trigger mode: 0
Integration Time (sec): 4.000000E-1
Scans to average: 1
Nonlinearity correction enabled: false
Boxcar width: 0
Storing dark spectrum: false
XAxis mode: Wavelengths
Number of Pixels in Spectrum: 1024
>>>>>Begin Spectral Data<<<<<
801.071	22097
801.214	22128
801.356	21850
801.499	21778
801.641	21576
801.783	21637
801.926	21614
802.068	21576
802.211	21466
802.353	21367
802.496	21116
802.638	20979
802.78	21104
802.923	20925
803.065	20849
803.208	20899
803.35	20887
803.492	20963
803.635	21089
803.777	20849
803.919	20967
804.061	21310
804.204	20921
804.346	20815
804.488	20823
804.63	20861
804.773	20739
804.915	20838
805.057	20975
805.199	20804
805.341	20773
805.483	20986
805.626	20811
805.768	20899
805.91	20826
806.052	20758
806.194	20834
806.336	20883
806.478	20727
806.62	20735
806.762	20864
806.904	20967
807.046	21306
807.188	21157
807.33	21214
807.472	21192
807.614	20967
807.756	21085
807.898	20967
808.04	20876
808.182	20933
808.324	21013
808.465	21028
808.607	21203
808.749	21218
808.891	21298
809.033	21325
809.174	21302
809.316	21268
809.458	21214
809.6	21123
809.741	21332
809.883	21348
810.025	21420
810.166	21523
810.308	21302
810.45	21351
810.591	21268
810.733	21032
810.875	21005
811.016	20823
811.158	20906
811.299	20914
811.441	21169
811.582	21157
811.724	20956
811.865	20975
812.007	20929
812.148	21001
812.29	21108
812.431	21218
812.573	21161
812.714	21382
812.855	21374
812.997	21629
813.138	21743
813.279	21610
813.421	21530
813.562	21545
813.703	21237
813.845	21169
813.986	20876
814.127	20716
814.268	20533
814.41	20564
814.551	20560
814.692	20522
814.833	20404
814.974	20526
815.115	20427
815.256	20278
815.397	20434
815.539	20301
815.68	20290
815.821	20240
815.962	20343
816.103	20286
816.244	20115
816.385	19894
816.526	19997
816.666	19864
816.807	19681
816.948	19651
817.089	19715
817.23	19772
817.371	19750
817.512	19708
817.653	19776
817.793	19742
817.934	19647
818.075	19567
818.216	19620
818.356	19548
818.497	19396
818.638	19301
818.778	19415
818.919	19236
819.06	19476
819.2	19453
819.341	19483
819.481	19441
819.622	19620
819.762	19830
819.903	19769
820.043	19712
820.184	19677
820.324	19624
820.465	19677
820.605	19677
820.746	19582
820.886	19362
821.026	19594
821.167	19628
821.307	19670
821.447	19510
821.588	19533
821.728	19369
821.868	19255
822.008	19008
822.149	19027
822.289	18993
822.429	18783
822.569	18764
822.709	18700
822.849	18616
822.99	18464
823.13	18677
823.27	18460
823.41	18289
823.55	18277
823.69	18289
823.83	18327
823.97	18289
824.11	18102
824.25	18045
824.389	18167
824.529	18220
824.669	18045
824.809	18224
824.949	18239
825.089	18163
825.228	18125
825.368	17874
825.508	17897
825.648	17908
825.787	17927
825.927	17874
826.067	17798
826.206	17767
826.346	17920
826.485	17954
826.625	17847
826.765	18019
826.904	17946
827.044	17634
827.183	17547
827.323	17627
827.462	17710
827.601	17604
827.741	17539
827.88	17566
828.02	17398
828.159	17596
828.298	17627
828.437	17608
828.577	17554
828.716	17592
828.855	17566
828.994	17349
829.134	17360
829.273	17410
829.412	17273
829.551	17326
829.69	17242
829.829	17337
829.968	17395
830.107	17353
830.246	17379
830.385	17395
830.524	17292
830.663	17086
830.802	17010
830.941	16972
831.08	16972
831.219	17014
831.357	17052
831.496	17094
831.635	16866
831.774	16900
831.913	16710
832.051	16763
832.19	16812
832.329	16710
832.467	16603
832.606	16649
832.744	16672
832.883	16561
833.022	16668
833.16	16649
833.299	16710
833.437	16691
833.576	16687
833.714	16748
833.852	16706
833.991	16816
834.129	16797
834.267	16706
834.406	16660
834.544	16816
834.682	16713
834.821	16679
834.959	16881
835.097	16687
835.235	16881
835.373	16683
835.511	16683
835.65	16694
835.788	16675
835.926	16447
836.064	16409
836.202	16565
836.34	16596
836.478	16740
836.615	16611
836.753	16755
836.891	16820
837.029	16573
837.167	16656
837.305	16542
837.443	16527
837.58	16375
837.718	16546
837.856	16538
837.993	16329
838.131	16504
838.269	16409
838.406	16360
838.544	16325
838.681	16230
838.819	16166
838.956	16025
839.094	16090
839.231	16029
839.369	16223
839.506	16462
839.643	16295
839.781	16044
839.918	16059
840.055	15998
840.193	16105
840.33	15972
840.467	15987
840.604	16059
840.742	16360
840.879	15861
841.016	15949
841.153	15892
841.29	16143
841.427	16055
841.564	16071
841.701	15934
841.838	16021
841.975	15991
842.112	15876
842.249	15774
842.385	15743
842.522	15979
842.659	15922
842.796	15762
842.933	15819
843.069	15751
843.206	15713
843.343	15941
843.479	15717
843.616	15876
843.752	15603
843.889	15542
844.025	15747
844.162	15591
844.298	15641
844.435	15610
844.571	15549
844.708	15720
844.844	15682
844.98	15797
845.117	15759
845.253	15584
845.389	15496
845.525	15416
845.661	15549
845.798	15389
845.934	15443
846.07	15329
846.206	15454
846.342	15572
846.478	15382
846.614	15252
846.75	15127
846.886	15138
847.022	15241
847.158	15138
847.294	15142
847.429	15116
847.565	15157
847.701	15306
847.837	14941
847.972	14838
848.108	15013
848.244	15039
848.379	14788
848.515	14598
848.65	14876
848.786	14746
848.921	14785
849.057	14872
849.192	14815
849.328	14826
849.463	14769
849.598	14712
849.734	14598
849.869	14655
850.004	14511
850.14	14621
850.275	14583
850.41	14568
850.545	14476
850.68	14575
850.815	14511
850.95	14473
851.085	14716
851.22	14587
851.355	14549
851.49	14507
851.625	14511
851.76	14522
851.895	14355
852.03	14457
852.165	14571
852.299	14610
852.434	14640
852.569	14495
852.703	14617
852.838	14560
852.973	14758
853.107	14617
853.242	14552
853.376	14389
853.511	14355
853.645	14412
853.78	14518
853.914	14351
854.048	14423
854.183	14305
854.317	14438
854.451	14606
854.585	14358
854.72	14351
854.854	14473
854.988	14309
855.122	14358
855.256	14339
855.39	14434
855.524	14419
855.658	14518
855.792	14438
855.926	14446
856.06	14408
856.194	14541
856.327	14484
856.461	14408
856.595	14339
856.729	14419
856.862	14545
856.996	14355
857.13	14552
857.263	14469
857.397	14503
857.53	14423
857.664	14381
857.797	14541
857.931	14511
858.064	14454
858.197	14480
858.331	14377
858.464	14358
858.597	14427
858.731	14461
858.864	14324
858.997	14343
859.13	14328
859.263	14431
859.396	14461
859.529	14366
859.662	14290
859.795	14328
859.928	14431
860.061	14495
860.194	14488
860.327	14473
860.46	14423
860.592	14579
860.725	14579
860.858	14476
860.99	14389
861.123	14347
861.256	14381
861.388	14358
861.521	15047
861.653	14259
861.786	14252
861.918	14240
862.05	14328
862.183	14351
862.315	14434
862.447	14442
862.58	14301
862.712	14164
862.844	14164
862.976	14358
863.108	14263
863.24	14564
863.372	14111
863.504	14244
863.636	14176
863.768	14252
863.9	14206
864.032	14024
864.164	14115
864.296	14161
864.428	14305
864.559	14271
864.691	14278
864.823	14191
864.954	14267
865.086	14103
865.217	14145
865.349	14043
865.48	14115
865.612	14252
865.743	14286
865.875	14157
866.006	14084
866.137	14130
866.269	14206
866.4	14092
866.531	14088
866.662	14058
866.793	14092
866.924	14043
867.055	14218
867.186	14096
867.317	14119
867.448	14130
867.579	14164
867.71	14058
867.841	14092
867.972	14183
868.103	14145
868.233	14126
868.364	14202
868.495	14244
868.625	14385
868.756	14552
868.886	14298
869.017	14423
869.147	14469
869.278	14488
869.408	14347
869.539	14389
869.669	14511
869.799	14465
869.929	14492
870.06	14469
870.19	14686
870.32	14689
870.45	14708
870.58	14785
870.71	14872
870.84	14921
870.97	14785
871.1	14739
871.23	14902
871.36	14975
871.489	14910
871.619	14982
871.749	14986
871.879	15013
872.008	15112
872.138	14990
872.267	14956
872.397	14792
872.526	14743
872.656	14891
872.785	14864
872.915	14933
873.044	15116
873.173	15066
873.303	15100
873.432	15085
873.561	15119
873.69	15005
873.819	15036
873.948	15142
874.077	15055
874.206	15070
874.335	15211
874.464	15226
874.593	15351
874.722	15310
874.851	15420
874.979	15374
875.108	15348
875.237	15351
875.365	15173
875.494	15351
875.623	15389
875.751	15264
875.88	15428
876.008	15568
876.136	15519
876.265	15713
876.393	15975
876.521	15945
876.65	15751
876.778	15808
876.906	15652
877.034	15747
877.162	15789
877.29	15709
877.418	15724
877.546	15759
877.674	15816
877.802	15797
877.93	15835
878.058	15641
878.185	15500
878.313	15770
878.441	15774
878.568	15564
878.696	15686
878.824	15770
878.951	15705
879.079	15869
879.206	16078
879.333	15831
879.461	15781
879.588	15930
879.715	15956
879.842	16025
879.97	15876
880.097	15606
880.224	15705
880.351	15663
880.478	15568
880.605	15545
880.732	15603
880.859	15854
880.986	15599
881.112	15587
881.239	15591
881.366	15355
881.493	15291
881.619	15325
881.746	15351
881.872	15268
881.999	15291
882.125	15142
882.252	15344
882.378	15252
882.505	15481
882.631	15233
882.757	15161
882.883	15104
883.01	15138
883.136	15017
883.262	14967
883.388	14902
883.514	15142
883.64	15081
883.766	15024
883.892	14929
884.018	14994
884.143	15100
884.269	15123
884.395	14864
884.52	14750
884.646	14864
884.772	14735
884.897	14724
885.023	14834
885.148	14876
885.274	14956
885.399	14845
885.524	14838
885.65	14857
885.775	14800
885.9	14823
886.025	14857
886.15	14754
886.275	14720
886.4	14655
886.525	14823
886.65	14716
886.775	14708
886.9	14963
887.025	15142
887.149	14811
887.274	14541
887.399	14617
887.523	14606
887.648	14579
887.773	14610
887.897	14693
888.021	14693
888.146	14606
888.27	14754
888.395	14750
888.519	14613
888.643	14689
888.767	14693
888.891	14514
889.015	14526
889.139	14552
889.263	14469
889.387	14682
889.511	14686
889.635	14693
889.759	14362
889.883	14492
890.006	14492
890.13	14629
890.254	14454
890.377	14393
890.501	14320
890.624	14290
890.748	14313
890.871	14240
890.995	14202
891.118	14161
891.241	14214
891.364	14202
891.488	14275
891.611	14180
891.734	14176
891.857	14221
891.98	14210
892.103	14267
892.226	14286
892.349	14172
892.471	14123
892.594	14119
892.717	14081
892.839	14077
892.962	14210
893.085	14240
893.207	14100
893.33	14024
893.452	14123
893.575	14134
893.697	14130
893.819	14218
893.941	14328
894.064	14271
894.186	14168
894.308	14138
894.43	14240
894.552	14423
894.674	14389
894.796	14195
894.918	14225
895.04	14252
895.161	14366
895.283	14221
895.405	14149
895.526	14275
895.648	14336
895.769	14404
895.891	14400
896.012	14446
896.134	14423
896.255	14358
896.376	14294
896.498	14385
896.619	14408
896.74	14400
896.861	14381
896.982	14594
897.103	14804
897.224	14648
897.345	14613
897.466	14556
897.587	14606
897.708	14785
897.828	14640
897.949	14530
898.07	14415
898.19	14514
898.311	14716
898.431	14701
898.552	14651
898.672	14842
898.792	14724
898.913	14781
899.033	14583
899.153	14495
899.273	14537
899.393	14499
899.513	14613
899.633	14644
899.753	14530
899.873	14583
899.993	14743
900.113	14552
900.232	14644
900.352	14587
900.472	14434
900.591	14301
900.711	14351
900.83	14415
900.95	14583
901.069	14587
901.189	14347
901.308	14183
901.427	14096
901.546	14012
901.665	14103
901.784	14142
901.904	13944
902.023	13890
902.141	13647
902.26	13636
902.379	13742
902.498	13685
902.617	13605
902.735	13666
902.854	13605
902.973	13571
903.091	13445
903.21	13392
903.328	13373
903.446	13343
903.565	13251
903.683	13225
903.801	13053
903.919	13244
904.038	13183
904.156	13042
904.274	13118
904.392	13019
904.51	12947
904.627	13000
904.745	13046
904.863	13149
904.981	12848
905.098	12692
905.216	12795
905.334	12673
905.451	12734
905.569	12700
905.686	12760
905.803	12795
905.921	12544
906.038	12722
906.155	12597
906.272	12433
906.389	12418
906.506	12330
906.623	12311
906.74	12308
906.857	12315
906.974	12273
907.091	12384
907.208	12502
907.324	12422
907.441	12273
907.557	12087
907.674	12140
907.79	12003
907.907	12038
908.023	12121
908.139	12095
908.256	11916
908.372	11927
908.488	12015
908.604	11821
908.72	11786
908.836	11851
908.952	11748
909.068	11855
909.184	11931
909.3	11870
909.415	11931
909.531	11851
909.647	11608
909.762	11619
909.878	11615
909.993	11672
910.108	11566
910.224	11562
910.339	11611
910.454	11509
910.57	11395
910.685	11303
910.8	11672
910.915	11638
911.03	11520
911.145	11330
911.259	11296
911.374	11345
911.489	11220
911.604	11216
911.718	11003
911.833	11117
911.947	10991
912.062	10930
912.176	10953
912.291	10984
912.405	10991
912.519	11212
912.633	11360
912.748	11140
912.862	11037
912.976	10949
913.09	10759
913.204	10858
913.318	10896
913.431	10949
913.545	10930
913.659	10946
913.772	10911
913.886	10774
914	10752
914.113	10793
914.226	10965
914.34	10927
914.453	10710
914.566	10889
914.68	10805
914.793	10733
914.906	10645
915.019	10538
915.132	10474
915.245	10500
915.358	10550
915.47	10519
915.583	10672
915.696	10622
915.809	10611
915.921	10721
916.034	10485
916.146	10512
916.259	10417
916.371	10523
916.483	10588
916.595	10497
916.708	10478
916.82	10508
916.932	10485
917.044	10470
917.156	10443
917.268	10249
917.38	10402
917.491	10352
917.603	10428
917.715	10508
917.826	10535
917.938	10363
918.049	10242
918.161	10394
918.272	10535
918.384	10542
918.495	10424
918.606	10162
918.717	10169
918.828	10265
918.939	10291
919.05	10211
919.161	10219
919.272	10036
919.383	10090
919.494	10329
919.604	10371
919.715	10272
919.826	10219
919.936	10246
920.047	10325
920.157	10303
920.267	10447
920.378	10299
920.488	10249
920.598	10493
920.708	10626
920.818	10500
920.928	10500
921.038	10592
921.148	10637
921.258	10333
921.368	10227
921.477	10029
921.587	10112
921.697	9964
921.806	10040
921.916	10059
922.025	9888
922.134	9842
922.244	9812
922.353	9846
922.462	9724
922.571	9637
922.68	9454
922.789	9428
922.898	9587
923.007	9473
923.116	9625
923.224	9599
923.333	9504
923.442	9374
923.55	9302
923.659	9428
923.767	9488
923.876	9348
923.984	9420
924.092	9378
924.201	9481
924.309	9351
924.417	9332
924.525	9325
924.633	9424
924.741	10325
924.849	9150
924.956	9283
925.064	9173
925.172	9077
925.279	9184
925.387	9157
925.494	9150
925.602	9321
925.709	9207
925.816	9123
925.924	9157
926.031	9253
926.138	9211
926.245	9173
926.352	9150
926.459	9249
926.566	9256
926.673	9123
926.779	9036
926.886	9051
926.993	8895
927.099	8864
927.206	8762
927.312	8899
927.419	8853
927.525	8891
927.631	8929
927.737	8781
927.843	8754
927.95	8689
928.056	8766
928.162	8800
928.267	8891
928.373	9382
928.479	8868
928.585	8651
928.69	8804
928.796	8830
928.901	8708
929.007	8507
929.112	8667
929.218	8720
929.323	8610
929.428	8571
929.533	8766
929.638	8503
929.743	8575
929.848	8610
929.953	8590
930.058	8541
930.163	8313
930.267	8377
930.372	8488
930.477	8332
930.581	8530
930.685	8415
930.79	8324
930.894	8404
930.998	8279
931.103	8465
931.207	8062
931.311	7993
931.415	7959
931.519	7750
931.623	7814
