Data from test_V78500241_718.txt Node
Date: Fri Mar 25 14:38:43 CST 2022
User: usil
Spectrometer: V785-0024
Trigger mode: 0
Integration Time (sec): 4.000000E-1
Scans to average: 1
Nonlinearity correction enabled: false
Boxcar width: 0
Storing dark spectrum: false
XAxis mode: Wavelengths
Number of Pixels in Spectrum: 1024
>>>>>Begin Spectral Data<<<<<
801.071	27637
801.214	27500
801.356	27275
801.499	27321
801.641	27005
801.783	26929
801.926	26853
802.068	26921
802.211	26769
802.353	26720
802.496	26514
802.638	26469
802.78	26457
802.923	26476
803.065	26396
803.208	26545
803.35	26674
803.492	26636
803.635	26670
803.777	26625
803.919	26796
804.061	26971
804.204	26746
804.346	26708
804.488	26697
804.63	26689
804.773	26651
804.915	26937
805.057	27058
805.199	27100
805.341	27055
805.483	27203
805.626	27317
805.768	27344
805.91	27439
806.052	27447
806.194	27553
806.336	28029
806.478	27934
806.62	28188
806.762	28489
806.904	28790
807.046	29364
807.188	29828
807.33	30064
807.472	30776
807.614	31358
807.756	32355
807.898	33481
808.04	34934
808.182	37148
808.324	39800
808.465	42783
808.607	46280
808.749	49255
808.891	51032
809.033	51313
809.174	49624
809.316	46508
809.458	43057
809.6	39561
809.741	36665
809.883	34409
810.025	33001
810.166	31788
810.308	30996
810.45	30342
810.591	29802
810.733	29174
810.875	28824
811.016	28504
811.158	28242
811.299	28284
811.441	28162
811.582	28055
811.724	27755
811.865	27618
812.007	27485
812.148	27458
812.29	27427
812.431	27340
812.573	27507
812.714	27386
812.855	27420
812.997	27679
813.138	27827
813.279	27625
813.421	27599
813.562	27405
813.703	27195
813.845	26948
813.986	26667
814.127	26290
814.268	26142
814.41	26336
814.551	26145
814.692	26256
814.833	26027
814.974	26119
815.115	25989
815.256	25803
815.397	25883
815.539	25772
815.68	25734
815.821	25609
815.962	25685
816.103	25704
816.244	25552
816.385	25438
816.526	25388
816.666	25213
816.807	25145
816.948	25023
817.089	25114
817.23	24996
817.371	24932
817.512	24996
817.653	24852
817.793	24760
817.934	24852
818.075	24954
818.216	24913
818.356	24966
818.497	24753
818.638	24673
818.778	24578
818.919	24635
819.06	24642
819.2	24776
819.341	24768
819.481	24741
819.622	24897
819.762	25057
819.903	25088
820.043	24863
820.184	24897
820.324	24856
820.465	24859
820.605	24837
820.746	24749
820.886	24467
821.026	24681
821.167	24616
821.307	24681
821.447	24574
821.588	24505
821.728	24456
821.868	24224
822.008	24049
822.149	24057
822.289	23939
822.429	23817
822.569	23646
822.709	23745
822.849	23345
822.99	23547
823.13	23433
823.27	23440
823.41	23170
823.55	23193
823.69	23204
823.83	23223
823.97	23128
824.11	22934
824.25	22889
824.389	23029
824.529	23193
824.669	22896
824.809	23132
824.949	23048
825.089	23105
825.228	23041
825.368	22778
825.508	22835
825.648	22809
825.787	22782
825.927	22866
826.067	22824
826.206	22854
826.346	22812
826.485	22869
826.625	22763
826.765	22946
826.904	22710
827.044	22554
827.183	22596
827.323	22459
827.462	22459
827.601	22379
827.741	22421
827.88	22443
828.02	22462
828.159	22341
828.298	22447
828.437	22424
828.577	22226
828.716	22527
828.855	22249
828.994	22185
829.134	22109
829.273	22238
829.412	22120
829.551	22036
829.69	22013
829.829	22021
829.968	22196
830.107	22192
830.246	22055
830.385	22029
830.524	21987
830.663	21918
830.802	21663
830.941	21739
831.08	21667
831.219	21884
831.357	21778
831.496	22036
831.635	21663
831.774	21633
831.913	21568
832.051	21500
832.19	21580
832.329	21622
832.467	21530
832.606	21481
832.744	21462
832.883	21530
833.022	21724
833.16	21751
833.299	21960
833.437	22124
833.576	22261
833.714	22375
833.852	22554
833.991	22637
834.129	22877
834.267	22748
834.406	22512
834.544	22626
834.682	22516
834.821	22337
834.959	22436
835.097	22070
835.235	21956
835.373	22029
835.511	21800
835.65	21504
835.788	21538
835.926	21272
836.064	21245
836.202	21150
836.34	21374
836.478	21325
836.615	21256
836.753	21241
836.891	21298
837.029	21355
837.167	21180
837.305	21093
837.443	21104
837.58	21028
837.718	21123
837.856	21070
837.993	20937
838.131	20952
838.269	20830
838.406	20899
838.544	20861
838.681	20617
838.819	20568
838.956	20545
839.094	20370
839.231	20389
839.369	20663
839.506	20872
839.643	20663
839.781	20522
839.918	20336
840.055	20590
840.193	20549
840.33	20305
840.467	20427
840.604	20358
840.742	20674
840.879	20328
841.016	20396
841.153	20332
841.29	20522
841.427	20476
841.564	20446
841.701	20442
841.838	20290
841.975	20381
842.112	20434
842.249	20290
842.385	20252
842.522	20434
842.659	20290
842.796	20275
842.933	20225
843.069	20134
843.206	20229
843.343	20495
843.479	20396
843.616	20404
843.752	20317
843.889	20218
844.025	20461
844.162	20450
844.298	20636
844.435	20625
844.571	20845
844.708	21176
844.844	21633
844.98	22059
845.117	22790
845.253	23748
845.389	25632
845.525	29391
845.661	35554
845.798	42547
845.934	47786
846.07	49506
846.206	47965
846.342	43198
846.478	36041
846.614	30110
846.75	26069
846.886	23783
847.022	22504
847.158	21591
847.294	21036
847.429	20716
847.565	20336
847.701	20412
847.837	19909
847.972	19666
848.108	19689
848.244	19639
848.379	19434
848.515	19316
848.65	19327
848.786	19217
848.921	19221
849.057	19335
849.192	19297
849.328	19247
849.463	19202
849.598	19152
849.734	19015
849.869	19000
850.004	18962
850.14	18840
850.275	18909
850.41	18753
850.545	18814
850.68	18783
850.815	18920
850.95	18692
851.085	18966
851.22	18916
851.355	18825
851.49	18795
851.625	18833
851.76	18787
851.895	18623
852.03	18764
852.165	18924
852.299	18905
852.434	19008
852.569	19034
852.703	18954
852.838	18970
852.973	19099
853.107	19031
853.242	18894
853.376	18909
853.511	18688
853.645	18890
853.78	19080
853.914	18985
854.048	19061
854.183	19008
854.317	19168
854.451	19285
854.585	19110
854.72	19053
854.854	19122
854.988	18970
855.122	18852
855.256	18859
855.39	18924
855.524	18970
855.658	18856
855.792	18776
855.926	18859
856.06	18783
856.194	18760
856.327	18726
856.461	18661
856.595	18612
856.729	18639
856.862	18677
856.996	18646
857.13	18833
857.263	18719
857.397	18696
857.53	18551
857.664	18654
857.797	18757
857.931	18745
858.064	18612
858.197	18779
858.331	18639
858.464	18597
858.597	18346
858.731	18608
858.864	18578
858.997	18506
859.13	18490
859.263	18486
859.396	18593
859.529	18448
859.662	18486
859.795	18414
859.928	18467
860.061	18669
860.194	18658
860.327	18388
860.46	18486
860.592	18601
860.725	18646
860.858	18627
860.99	18418
861.123	18395
861.256	18338
861.388	18414
861.521	19137
861.653	18338
861.786	18281
861.918	18330
862.05	18418
862.183	18388
862.315	18338
862.447	18437
862.58	18376
862.712	18163
862.844	18152
862.976	18285
863.108	18190
863.24	18570
863.372	18178
863.504	18251
863.636	18228
863.768	18213
863.9	18121
864.032	18098
864.164	18087
864.296	18125
864.428	18159
864.559	18152
864.691	18258
864.823	18167
864.954	18251
865.086	18095
865.217	17996
865.349	17958
865.48	18003
865.612	18083
865.743	18190
865.875	18038
866.006	18079
866.137	18049
866.269	18106
866.4	17958
866.531	18106
866.662	17961
866.793	17901
866.924	17912
867.055	18087
867.186	18026
867.317	17927
867.448	17878
867.579	17889
867.71	17908
867.841	18007
867.972	17992
868.103	18072
868.233	18064
868.364	18136
868.495	18068
868.625	18190
868.756	18289
868.886	18220
869.017	18254
869.147	18342
869.278	18437
869.408	18399
869.539	18167
869.669	18388
869.799	18456
869.929	18311
870.06	18357
870.19	18540
870.32	18585
870.45	18692
870.58	18814
870.71	18757
870.84	18863
870.97	18665
871.1	18787
871.23	19023
871.36	18981
871.489	18840
871.619	19038
871.749	18882
871.879	19046
872.008	19107
872.138	19008
872.267	19061
872.397	18913
872.526	18882
872.656	18863
872.785	18935
872.915	19019
873.044	19335
873.173	19118
873.303	19217
873.432	19202
873.561	19190
873.69	19369
873.819	19301
873.948	19335
874.077	19278
874.206	19312
874.335	19346
874.464	19487
874.593	19803
874.722	19616
874.851	19776
874.979	19875
875.108	19970
875.237	19761
875.365	19845
875.494	19871
875.623	20039
875.751	19936
875.88	20012
876.008	20358
876.136	20282
876.265	20560
876.393	20743
876.521	20762
876.65	20899
876.778	20796
876.906	20815
877.034	20868
877.162	21017
877.29	20937
877.418	21165
877.546	21207
877.674	21313
877.802	21428
877.93	21564
878.058	21686
878.185	21918
878.313	22246
878.441	22546
878.568	22889
878.696	23558
878.824	24422
878.951	25430
879.079	27233
879.206	29322
879.333	31274
879.461	33157
879.588	34299
879.715	34287
879.842	33393
879.97	31491
880.097	29223
880.224	27496
880.351	26461
880.478	25590
880.605	24886
880.732	24365
880.859	24460
880.986	23996
881.112	23996
881.239	23710
881.366	23653
881.493	23459
881.619	23497
881.746	23459
881.872	23661
881.999	23596
882.125	23516
882.252	23745
882.378	23661
882.505	23802
882.631	23531
882.757	23531
882.883	23611
883.01	23516
883.136	23554
883.262	23349
883.388	23402
883.514	23429
883.64	23436
883.766	23395
883.892	23269
884.018	23436
884.143	23467
884.269	23417
884.395	23299
884.52	23147
884.646	23261
884.772	23136
884.897	23204
885.023	23254
885.148	23440
885.274	23288
885.399	23143
885.524	23010
885.65	22847
885.775	22744
885.9	22679
886.025	22596
886.15	22447
886.275	22040
886.4	21937
886.525	21690
886.65	21633
886.775	21519
886.9	21641
887.025	21618
887.149	21344
887.274	21138
887.399	20948
887.523	20838
887.648	20678
887.773	20606
887.897	20716
888.021	20606
888.146	20347
888.27	20503
888.395	20480
888.519	20282
888.643	20309
888.767	20195
888.891	20119
889.015	19803
889.139	19963
889.263	19845
889.387	19970
889.511	19917
889.635	19906
889.759	19784
889.883	19647
890.006	19632
890.13	19780
890.254	19499
890.377	19483
890.501	19411
890.624	19259
890.748	19320
890.871	19110
890.995	18977
891.118	18973
891.241	19038
891.364	18932
891.488	19008
891.611	18871
891.734	18890
891.857	18844
891.98	18795
892.103	18867
892.226	18825
892.349	18646
892.471	18616
892.594	18601
892.717	18665
892.839	18471
892.962	18582
893.085	18623
893.207	18460
893.33	18399
893.452	18357
893.575	18437
893.697	18452
893.819	18502
893.941	18498
894.064	18456
894.186	18163
894.308	18213
894.43	18228
894.552	18334
894.674	18334
894.796	18057
894.918	18209
895.04	18114
895.161	18216
895.283	18079
895.405	18068
895.526	18110
895.648	18117
895.769	18117
895.891	18213
896.012	18095
896.134	18121
896.255	17984
896.376	18003
896.498	17912
896.619	18053
896.74	18019
896.861	18011
896.982	18292
897.103	18448
897.224	18235
897.345	18106
897.466	18079
897.587	18186
897.708	18277
897.828	18239
897.949	18235
898.07	17821
898.19	18133
898.311	18228
898.431	18140
898.552	18205
898.672	18289
898.792	18334
898.913	18159
899.033	18155
899.153	17992
899.273	17931
899.393	17961
899.513	17931
899.633	17992
899.753	17984
899.873	17870
899.993	18038
900.113	17870
900.232	17878
900.352	17935
900.472	17805
900.591	17779
900.711	17783
900.83	17707
900.95	17821
901.069	17901
901.189	17642
901.308	17436
901.427	17273
901.546	17429
901.665	17326
901.784	17334
901.904	17140
902.023	17075
902.141	16850
902.26	16831
902.379	16797
902.498	16691
902.617	16816
902.735	16793
902.854	16725
902.973	16660
903.091	16382
903.21	16436
903.328	16402
903.446	16276
903.565	16196
903.683	16238
903.801	16128
903.919	16131
904.038	16086
904.156	15865
904.274	16055
904.392	15975
904.51	15937
904.627	15930
904.745	16044
904.863	15930
904.981	15671
905.098	15538
905.216	15663
905.334	15675
905.451	15614
905.569	15538
905.686	15690
905.803	15466
905.921	15367
906.038	15397
906.155	15374
906.272	15310
906.389	15317
906.506	15142
906.623	15081
906.74	15070
906.857	14918
906.974	14956
907.091	15146
907.208	15161
907.324	15161
907.441	15024
907.557	14891
907.674	14762
907.79	14739
907.907	14735
908.023	14777
908.139	14792
908.256	14758
908.372	14667
908.488	14716
908.604	14590
908.72	14480
908.836	14469
908.952	14514
909.068	14457
909.184	14610
909.3	14427
909.415	14514
909.531	14507
909.647	14347
909.762	14218
909.878	14210
909.993	14187
910.108	14225
910.224	14195
910.339	14248
910.454	14168
910.57	14054
910.685	14046
910.8	14290
910.915	14248
911.03	14065
911.145	13974
911.259	13826
911.374	13909
911.489	13814
911.604	13784
911.718	13685
911.833	13723
911.947	13563
912.062	13480
912.176	13586
912.291	13655
912.405	13639
912.519	13803
912.633	13753
912.748	13750
912.862	13601
912.976	13510
913.09	13362
913.204	13434
913.318	13480
913.431	13651
913.545	13518
913.659	13563
913.772	13415
913.886	13346
914	13331
914.113	13472
914.226	13453
914.34	13449
914.453	13187
914.566	13297
914.68	13213
914.793	13228
914.906	13088
915.019	13000
915.132	12996
915.245	13004
915.358	13027
915.47	13107
915.583	13095
915.696	13091
915.809	13198
915.921	13179
916.034	13114
916.146	12958
916.259	12958
916.371	13069
916.483	13031
916.595	12916
916.708	13046
916.82	12943
916.932	12932
917.044	12993
917.156	12932
917.268	12856
917.38	12814
917.491	12757
917.603	12722
917.715	12802
917.826	12859
917.938	12753
918.049	12753
918.161	12684
918.272	12798
918.384	12920
918.495	12722
918.606	12528
918.717	12536
918.828	12601
918.939	12642
919.05	12467
919.161	12486
919.272	12323
919.383	12361
919.494	12521
919.604	12726
919.715	12544
919.826	12353
919.936	12483
920.047	12490
920.157	12612
920.267	12738
920.378	12555
920.488	12471
920.598	12654
920.708	12715
920.818	12669
920.928	12635
921.038	12798
921.148	12776
921.258	12456
921.368	12353
921.477	12254
921.587	12285
921.697	12106
921.806	12262
921.916	12083
922.025	11999
922.134	11980
922.244	11923
922.353	11935
922.462	11847
922.571	11733
922.68	11532
922.789	11577
922.898	11627
923.007	11608
923.116	11657
923.224	11543
923.333	11512
923.442	11440
923.55	11410
923.659	11383
923.767	11471
923.876	11433
923.984	11554
924.092	11345
924.201	11429
924.309	11425
924.417	11315
924.525	11315
924.633	11235
924.741	12281
924.849	11128
924.956	11288
925.064	11136
925.172	11010
925.279	11079
925.387	11155
925.494	11166
925.602	11254
925.709	11235
925.816	11003
925.924	11140
926.031	11174
926.138	11083
926.245	11136
926.352	10968
926.459	11181
926.566	11181
926.673	11014
926.779	10911
926.886	10881
926.993	10729
927.099	10736
927.206	10664
927.312	10668
927.419	10835
927.525	10748
927.631	10786
927.737	10691
927.843	10577
927.95	10516
928.056	10634
928.162	10634
928.267	10618
928.373	11181
928.479	10664
928.585	10436
928.69	10550
928.796	10580
928.901	10546
929.007	10348
929.112	10523
929.218	10497
929.323	10382
929.428	10371
929.533	10538
929.638	10352
929.743	10306
929.848	10367
929.953	10367
930.058	10257
930.163	10177
930.267	10150
930.372	10219
930.477	10097
930.581	10398
930.685	10188
930.79	10010
930.894	10097
930.998	10006
931.103	10097
931.207	9854
931.311	9804
931.415	9629
931.519	9530
931.623	9401
