Data from test_V78500241_77.txt Node
Date: Fri Mar 25 14:34:15 CST 2022
User: usil
Spectrometer: V785-0024
Trigger mode: 0
Integration Time (sec): 4.000000E-1
Scans to average: 1
Nonlinearity correction enabled: false
Boxcar width: 0
Storing dark spectrum: false
XAxis mode: Wavelengths
Number of Pixels in Spectrum: 1024
>>>>>Begin Spectral Data<<<<<
801.071	28946
801.214	28946
801.356	28668
801.499	28599
801.641	28497
801.783	28382
801.926	28523
802.068	28322
802.211	28386
802.353	28230
802.496	28150
802.638	28261
802.78	28044
802.923	28036
803.065	27899
803.208	27972
803.35	27975
803.492	28196
803.635	28166
803.777	27991
803.919	28006
804.061	28478
804.204	28128
804.346	27911
804.488	27945
804.63	27895
804.773	27816
804.915	27979
805.057	28055
805.199	27994
805.341	27930
805.483	28131
805.626	28150
805.768	28055
805.91	28112
806.052	28158
806.194	28070
806.336	28265
806.478	28158
806.62	28135
806.762	28363
806.904	28432
807.046	28611
807.188	28462
807.33	28329
807.472	28470
807.614	28333
807.756	28341
807.898	28253
808.04	28367
808.182	28253
808.324	28238
808.465	28238
808.607	28462
808.749	28580
808.891	28626
809.033	28694
809.174	28771
809.316	28637
809.458	28755
809.6	28653
809.741	28725
809.883	28691
810.025	28740
810.166	28908
810.308	28972
810.45	28793
810.591	28744
810.733	28683
810.875	28527
811.016	28504
811.158	28489
811.299	28588
811.441	28759
811.582	28512
811.724	28546
811.865	28531
812.007	28497
812.148	28519
812.29	28615
812.431	28618
812.573	28820
812.714	29094
812.855	29162
812.997	28995
813.138	29178
813.279	29189
813.421	29105
813.562	28999
813.703	28782
813.845	28790
813.986	28322
814.127	28158
814.268	28059
814.41	28246
814.551	28070
814.692	28280
814.833	28139
814.974	28181
815.115	28162
815.256	27991
815.397	28002
815.539	27964
815.68	27880
815.821	27720
815.962	27842
816.103	27785
816.244	27682
816.385	27778
816.526	27542
816.666	27344
816.807	27268
816.948	27370
817.089	27313
817.23	27256
817.371	27199
817.512	27313
817.653	27169
817.793	27241
817.934	27260
818.075	27123
818.216	27268
818.356	27176
818.497	26952
818.638	26944
818.778	26929
818.919	26815
819.06	27043
819.2	27085
819.341	27112
819.481	27211
819.622	27382
819.762	27492
819.903	27348
820.043	27218
820.184	27401
820.324	27325
820.465	27424
820.605	27176
820.746	27260
820.886	27100
821.026	27142
821.167	27062
821.307	27135
821.447	27047
821.588	27024
821.728	26792
821.868	26613
822.008	26499
822.149	26461
822.289	26374
822.429	26305
822.569	26153
822.709	26252
822.849	25906
822.99	25871
823.13	25955
823.27	25940
823.41	25822
823.55	25700
823.69	25784
823.83	25738
823.97	25704
824.11	25453
824.25	25514
824.389	25434
824.529	25647
824.669	25415
824.809	25567
824.949	25594
825.089	25571
825.228	25518
825.368	25403
825.508	25263
825.648	25441
825.787	25236
825.927	25403
826.067	25202
826.206	25339
826.346	25350
826.485	25411
826.625	25213
826.765	25297
826.904	25453
827.044	25145
827.183	25008
827.323	25084
827.462	25027
827.601	24977
827.741	24992
827.88	24947
828.02	24825
828.159	24943
828.298	25057
828.437	25080
828.577	24943
828.716	25038
828.855	24924
828.994	24711
829.134	24673
829.273	24665
829.412	24589
829.551	24597
829.69	24578
829.829	24684
829.968	24639
830.107	24525
830.246	24616
830.385	24551
830.524	24456
830.663	24452
830.802	24311
830.941	24133
831.08	24102
831.219	24281
831.357	24372
831.496	24456
831.635	24216
831.774	24030
831.913	24057
832.051	23969
832.19	23969
832.329	23977
832.467	23847
832.606	23859
832.744	23733
832.883	23851
833.022	23737
833.16	23752
833.299	23969
833.437	23805
833.576	23878
833.714	23771
833.852	23897
833.991	23923
834.129	23832
834.267	23931
834.406	23874
834.544	23931
834.682	23843
834.821	23771
834.959	24030
835.097	23676
835.235	23855
835.373	23600
835.511	23859
835.65	23668
835.788	23531
835.926	23474
836.064	23452
836.202	23467
836.34	23604
836.478	23756
836.615	23608
836.753	23596
836.891	23589
837.029	23627
837.167	23665
837.305	23539
837.443	23387
837.58	23471
837.718	23573
837.856	23642
837.993	23345
838.131	23482
838.269	23334
838.406	23414
838.544	23376
838.681	22995
838.819	23147
838.956	22824
839.094	22942
839.231	22942
839.369	23033
839.506	23254
839.643	23056
839.781	22828
839.918	22847
840.055	22805
840.193	22953
840.33	22687
840.467	22835
840.604	22763
840.742	22885
840.879	22561
841.016	22736
841.153	22702
841.29	22805
841.427	22660
841.564	22691
841.701	22634
841.838	22630
841.975	22603
842.112	22603
842.249	22538
842.385	22436
842.522	22622
842.659	22584
842.796	22519
842.933	22409
843.069	22352
843.206	22310
843.343	22436
843.479	22398
843.616	22443
843.752	22234
843.889	22265
844.025	22276
844.162	22143
844.298	22295
844.435	22219
844.571	22154
844.708	22173
844.844	22249
844.98	22310
845.117	22238
845.253	22131
845.389	22116
845.525	22006
845.661	21953
845.798	21747
845.934	21865
846.07	21785
846.206	21774
846.342	21892
846.478	21888
846.614	21660
846.75	21549
846.886	21694
847.022	21724
847.158	21648
847.294	21523
847.429	21656
847.565	21545
847.701	21903
847.837	21287
847.972	21424
848.108	21485
848.244	21386
848.379	21252
848.515	21157
848.65	21195
848.786	21104
848.921	21104
849.057	21302
849.192	21195
849.328	21161
849.463	21146
849.598	21127
849.734	20994
849.869	20982
850.004	20963
850.14	20914
850.275	20986
850.41	20754
850.545	20918
850.68	20838
850.815	20963
850.95	20853
851.085	21100
851.22	20929
851.355	20834
851.49	20777
851.625	20781
851.76	20792
851.895	20811
852.03	20765
852.165	20781
852.299	20853
852.434	20872
852.569	20807
852.703	20815
852.838	20861
852.973	20910
853.107	20937
853.242	20765
853.376	20746
853.511	20564
853.645	20617
853.78	20834
853.914	20743
854.048	20522
854.183	20617
854.317	20659
854.451	20872
854.585	20568
854.72	20609
854.854	20765
854.988	20575
855.122	20537
855.256	20648
855.39	20720
855.524	20693
855.658	20606
855.792	20697
855.926	20667
856.06	20689
856.194	20781
856.327	20598
856.461	20594
856.595	20564
856.729	20575
856.862	20762
856.996	20644
857.13	20667
857.263	20686
857.397	20716
857.53	20492
857.664	20629
857.797	20693
857.931	20804
858.064	20667
858.197	20823
858.331	20541
858.464	20617
858.597	20446
858.731	20655
858.864	20613
858.997	20606
859.13	20594
859.263	20655
859.396	20602
859.529	20606
859.662	20556
859.795	20465
859.928	20602
860.061	20716
860.194	20727
860.327	20674
860.46	20609
860.592	20689
860.725	20670
860.858	20697
860.99	20632
861.123	20393
861.256	20484
861.388	20541
861.521	21096
861.653	20427
861.786	20446
861.918	20492
862.05	20667
862.183	20739
862.315	20522
862.447	20579
862.58	20583
862.712	20465
862.844	20320
862.976	20507
863.108	20461
863.24	20678
863.372	20282
863.504	20290
863.636	20240
863.768	20282
863.9	20278
864.032	20221
864.164	20138
864.296	20248
864.428	20374
864.559	20275
864.691	20431
864.823	20237
864.954	20244
865.086	20294
865.217	20202
865.349	19993
865.48	20271
865.612	20199
865.743	20252
865.875	20153
866.006	20206
866.137	20164
866.269	20081
866.4	20191
866.531	20058
866.662	20103
866.793	20062
866.924	20119
867.055	20134
867.186	20020
867.317	20027
867.448	19974
867.579	20008
867.71	19875
867.841	19982
867.972	20050
868.103	20062
868.233	20142
868.364	20035
868.495	20252
868.625	20240
868.756	20495
868.886	20142
869.017	20309
869.147	20389
869.278	20511
869.408	20339
869.539	20286
869.669	20343
869.799	20393
869.929	20393
870.06	20370
870.19	20571
870.32	20522
870.45	20640
870.58	20727
870.71	20724
870.84	20758
870.97	20743
871.1	20693
871.23	20788
871.36	20868
871.489	20762
871.619	20849
871.749	20899
871.879	20998
872.008	21005
872.138	20910
872.267	20902
872.397	20754
872.526	20773
872.656	20651
872.785	20754
872.915	20857
873.044	21051
873.173	20861
873.303	21032
873.432	20990
873.561	21001
873.69	20906
873.819	20899
873.948	20918
874.077	21005
874.206	20883
874.335	20948
874.464	21104
874.593	21165
874.722	21085
874.851	21119
874.979	21119
875.108	21275
875.237	21066
875.365	21184
875.494	21074
875.623	21260
875.751	21096
875.88	21169
876.008	21199
876.136	21306
876.265	21633
876.393	21667
876.521	21591
876.65	21728
876.778	21656
876.906	21439
877.034	21663
877.162	21488
877.29	21492
877.418	21538
877.546	21576
877.674	21580
877.802	21568
877.93	21610
878.058	21519
878.185	21500
878.313	21374
878.441	21595
878.568	21374
878.696	21416
878.824	21603
878.951	21644
879.079	21686
879.206	21918
879.333	21724
879.461	21622
879.588	21728
879.715	21690
879.842	21793
879.97	21534
880.097	21363
880.224	21260
880.351	21298
880.478	21397
880.605	21279
880.732	21348
880.859	21515
880.986	21291
881.112	21431
881.239	21268
881.366	21176
881.493	20963
881.619	20982
881.746	20956
881.872	20899
881.999	20880
882.125	20944
882.252	20952
882.378	21009
882.505	20982
882.631	20933
882.757	20739
882.883	20842
883.01	20731
883.136	20765
883.262	20545
883.388	20659
883.514	20727
883.64	20655
883.766	20636
883.892	20514
884.018	20499
884.143	20682
884.269	20705
884.395	20339
884.52	20362
884.646	20313
884.772	20225
884.897	20225
885.023	20301
885.148	20366
885.274	20446
885.399	20454
885.524	20351
885.65	20233
885.775	20305
885.9	20282
886.025	20454
886.15	20332
886.275	20244
886.4	20138
886.525	20263
886.65	20176
886.775	20176
886.9	20309
887.025	20522
887.149	20202
887.274	20229
887.399	20081
887.523	20077
887.648	19917
887.773	19970
887.897	20168
888.021	20092
888.146	20084
888.27	20153
888.395	20096
888.519	20043
888.643	20119
888.767	20088
888.891	19883
889.015	20020
889.139	19913
889.263	19898
889.387	19974
889.511	19947
889.635	19875
889.759	19761
889.883	19841
890.006	19955
890.13	19906
890.254	19734
890.377	19750
890.501	19590
890.624	19525
890.748	19639
890.871	19445
890.995	19407
891.118	19377
891.241	19483
891.364	19449
891.488	19540
891.611	19419
891.734	19430
891.857	19578
891.98	19510
892.103	19540
892.226	19438
892.349	19422
892.471	19232
892.594	19411
892.717	19327
892.839	19202
892.962	19384
893.085	19270
893.207	19407
893.33	19377
893.452	19251
893.575	19392
893.697	19365
893.819	19468
893.941	19582
894.064	19434
894.186	19312
894.308	19308
894.43	19400
894.552	19460
894.674	19415
894.796	19331
894.918	19415
895.04	19285
895.161	19563
895.283	19422
895.405	19251
895.526	19343
895.648	19365
895.769	19392
895.891	19381
896.012	19415
896.134	19529
896.255	19400
896.376	19308
896.498	19457
896.619	19468
896.74	19365
896.861	19518
896.982	19677
897.103	19830
897.224	19727
897.345	19715
897.466	19537
897.587	19731
897.708	19769
897.828	19772
897.949	19639
898.07	19472
898.19	19544
898.311	19852
898.431	19616
898.552	19525
898.672	19609
898.792	19616
898.913	19655
899.033	19495
899.153	19403
899.273	19327
899.393	19400
899.513	19388
899.633	19396
899.753	19453
899.873	19285
899.993	19316
900.113	19293
900.232	19225
900.352	19289
900.472	19213
900.591	19099
900.711	19156
900.83	19289
900.95	19301
901.069	19312
901.189	19126
901.308	18833
901.427	18749
901.546	18791
901.665	18844
901.784	18814
901.904	18703
902.023	18456
902.141	18471
902.26	18361
902.379	18308
902.498	18224
902.617	18155
902.735	18346
902.854	18209
902.973	18171
903.091	17931
903.21	17980
903.328	17942
903.446	17760
903.565	17783
903.683	17832
903.801	17615
903.919	17676
904.038	17680
904.156	17501
904.274	17520
904.392	17532
904.51	17482
904.627	17334
904.745	17524
904.863	17566
904.981	17246
905.098	17121
905.216	17128
905.334	17200
905.451	17143
905.569	17052
905.686	17102
905.803	17166
905.921	16896
906.038	17025
906.155	16984
906.272	16740
906.389	16812
906.506	16672
906.623	16675
906.74	16641
906.857	16596
906.974	16672
907.091	16733
907.208	16706
907.324	16725
907.441	16546
907.557	16481
907.674	16215
907.79	16188
907.907	16363
908.023	16379
908.139	16371
908.256	16249
908.372	16223
908.488	16154
908.604	16013
908.72	16013
908.836	15998
908.952	16010
909.068	16048
909.184	16112
909.3	15895
909.415	16032
909.531	16105
909.647	15785
909.762	15701
909.878	15705
909.993	15774
910.108	15648
910.224	15663
910.339	15698
910.454	15644
910.57	15485
910.685	15431
910.8	15747
910.915	15679
911.03	15500
911.145	15420
911.259	15420
911.374	15294
911.489	15306
911.604	15119
911.718	15131
911.833	15077
911.947	14952
912.062	14845
912.176	15062
912.291	15146
912.405	15017
912.519	15317
912.633	15241
912.748	15009
912.862	15077
912.976	14952
913.09	14826
913.204	14845
913.318	14880
913.431	14971
913.545	14895
913.659	14948
913.772	14750
913.886	14674
914	14648
914.113	14724
914.226	14883
914.34	14758
914.453	14530
914.566	14716
914.68	14693
914.793	14552
914.906	14370
915.019	14347
915.132	14237
915.245	14225
915.358	14343
915.47	14248
915.583	14374
915.696	14377
915.809	14320
915.921	14343
916.034	14229
916.146	14210
916.259	14191
916.371	14256
916.483	14298
916.595	14088
916.708	14073
916.82	14157
916.932	14172
917.044	14153
917.156	14183
917.268	13959
917.38	13963
917.491	13921
917.603	14043
917.715	14092
917.826	14096
917.938	14012
918.049	13868
918.161	13993
918.272	14100
918.384	14039
918.495	13837
918.606	13772
918.717	13708
918.828	13784
918.939	13845
919.05	13708
919.161	13689
919.272	13518
919.383	13552
919.494	13776
919.604	13871
919.715	13757
919.826	13715
919.936	13636
920.047	13742
920.157	13712
920.267	13868
920.378	13715
920.488	13677
920.598	13807
920.708	13947
920.818	13822
920.928	13807
921.038	13906
921.148	13845
921.258	13689
921.368	13559
921.477	13483
921.587	13400
921.697	13346
921.806	13491
921.916	13270
922.025	13179
922.134	13084
922.244	12996
922.353	13091
922.462	12954
922.571	12817
922.68	12859
922.789	12722
922.898	12722
923.007	12650
923.116	12829
923.224	12734
923.333	12715
923.442	12559
923.55	12593
923.659	12604
923.767	12627
923.876	12528
923.984	12608
924.092	12407
924.201	12448
924.309	12445
924.417	12467
924.525	12467
924.633	12403
924.741	13099
924.849	12258
924.956	12418
925.064	12167
925.172	12163
925.279	12213
925.387	12205
925.494	12239
925.602	12327
925.709	12251
925.816	12106
925.924	12133
926.031	12270
926.138	12167
926.245	12095
926.352	12053
926.459	12155
926.566	12144
926.673	12064
926.779	11977
926.886	12003
926.993	11786
927.099	11847
927.206	11786
927.312	11836
927.419	11874
927.525	11771
927.631	11828
927.737	11581
927.843	11604
927.95	11592
928.056	11611
928.162	11551
928.267	11642
928.373	12213
928.479	11627
928.585	11486
928.69	11551
928.796	11585
928.901	11436
929.007	11444
929.112	11414
929.218	11326
929.323	11364
929.428	11220
929.533	11398
929.638	11277
929.743	11242
929.848	11379
929.953	11349
930.058	11166
930.163	10999
930.267	10995
930.372	11132
930.477	11006
930.581	11189
930.685	11052
930.79	10889
930.894	10968
930.998	10934
931.103	10934
931.207	10664
931.311	10615
931.415	10485
931.519	10310
931.623	10295
