Data from test_V78500241_3239.txt Node
Date: Fri Mar 25 14:56:16 CST 2022
User: usil
Spectrometer: V785-0024
Trigger mode: 0
Integration Time (sec): 4.000000E-1
Scans to average: 1
Nonlinearity correction enabled: false
Boxcar width: 0
Storing dark spectrum: false
XAxis mode: Wavelengths
Number of Pixels in Spectrum: 1024
>>>>>Begin Spectral Data<<<<<
801.071	22143
801.214	21934
801.356	21641
801.499	21625
801.641	21481
801.783	21294
801.926	21492
802.068	21363
802.211	21336
802.353	21218
802.496	21062
802.638	20880
802.78	20887
802.923	20769
803.065	20663
803.208	20632
803.35	20823
803.492	20800
803.635	20872
803.777	20743
803.919	20701
804.061	21077
804.204	20826
804.346	20712
804.488	20617
804.63	20781
804.773	20667
804.915	20594
805.057	20712
805.199	20613
805.341	20590
805.483	20807
805.626	20705
805.768	20514
805.91	20667
806.052	20636
806.194	20564
806.336	20765
806.478	20537
806.62	20461
806.762	20746
806.904	20743
807.046	21070
807.188	20902
807.33	21062
807.472	21009
807.614	20849
807.756	20804
807.898	20769
808.04	20644
808.182	20636
808.324	20777
808.465	20750
808.607	20883
808.749	20899
808.891	21123
809.033	21135
809.174	21028
809.316	21028
809.458	20868
809.6	20986
809.741	21047
809.883	21020
810.025	21135
810.166	21077
810.308	21154
810.45	21127
810.591	21001
810.733	20758
810.875	20758
811.016	20788
811.158	20533
811.299	20823
811.441	20743
811.582	20819
811.724	20849
811.865	20743
812.007	20659
812.148	20823
812.29	20762
812.431	20944
812.573	21051
812.714	21104
812.855	21112
812.997	21401
813.138	21568
813.279	21336
813.421	21310
813.562	21188
813.703	21039
813.845	20815
813.986	20640
814.127	20446
814.268	20286
814.41	20324
814.551	20183
814.692	20404
814.833	20172
814.974	20229
815.115	20393
815.256	20153
815.397	20195
815.539	20043
815.68	19959
815.821	19967
815.962	20031
816.103	19989
816.244	19940
816.385	19803
816.526	19693
816.666	19445
816.807	19480
816.948	19609
817.089	19727
817.23	19472
817.371	19434
817.512	19362
817.653	19369
817.793	19407
817.934	19331
818.075	19388
818.216	19388
818.356	19339
818.497	19198
818.638	19217
818.778	19126
818.919	19069
819.06	19091
819.2	19057
819.341	19301
819.481	19259
819.622	19369
819.762	19609
819.903	19575
820.043	19491
820.184	19335
820.324	19411
820.465	19483
820.605	19422
820.746	19327
820.886	19213
821.026	19460
821.167	19339
821.307	19426
821.447	19304
821.588	19274
821.728	19129
821.868	18977
822.008	18848
822.149	18757
822.289	18798
822.429	18631
822.569	18414
822.709	18544
822.849	18273
822.99	18319
823.13	18292
823.27	18251
823.41	18136
823.55	18019
823.69	18110
823.83	18178
823.97	18079
824.11	17916
824.25	17866
824.389	17946
824.529	17969
824.669	17832
824.809	18003
824.949	17939
825.089	17965
825.228	17866
825.368	17646
825.508	17558
825.648	17741
825.787	17798
825.927	17726
826.067	17592
826.206	17539
826.346	17707
826.485	17661
826.625	17642
826.765	17741
826.904	17657
827.044	17387
827.183	17452
827.323	17379
827.462	17341
827.601	17345
827.741	17303
827.88	17398
828.02	17220
828.159	17303
828.298	17311
828.437	17414
828.577	17246
828.716	17440
828.855	17356
828.994	17151
829.134	17037
829.273	17143
829.412	17033
829.551	16976
829.69	17113
829.829	17086
829.968	17246
830.107	17136
830.246	17124
830.385	17033
830.524	16984
830.663	16934
830.802	16862
830.941	16675
831.08	16687
831.219	16755
831.357	16816
831.496	16919
831.635	16740
831.774	16698
831.913	16565
832.051	16481
832.19	16443
832.329	16634
832.467	16398
832.606	16436
832.744	16443
832.883	16436
833.022	16386
833.16	16436
833.299	16398
833.437	16398
833.576	16440
833.714	16485
833.852	16588
833.991	16485
834.129	16527
834.267	16519
834.406	16615
834.544	16478
834.682	16569
834.821	16474
834.959	16618
835.097	16402
835.235	16565
835.373	16561
835.511	16554
835.65	16451
835.788	16367
835.926	16109
836.064	16154
836.202	16291
836.34	16493
836.478	16485
836.615	16348
836.753	16375
836.891	16443
837.029	16516
837.167	16394
837.305	16303
837.443	16223
837.58	16207
837.718	16329
837.856	16200
837.993	16162
838.131	16291
838.269	16265
838.406	16185
838.544	16090
838.681	15869
838.819	15922
838.956	15778
839.094	15861
839.231	15819
839.369	16021
839.506	16158
839.643	16055
839.781	15781
839.918	15774
840.055	15831
840.193	15842
840.33	15781
840.467	15743
840.604	15857
840.742	16086
840.879	15614
841.016	15762
841.153	15603
841.29	15915
841.427	15857
841.564	15876
841.701	15720
841.838	15732
841.975	15652
842.112	15682
842.249	15610
842.385	15557
842.522	15690
842.659	15622
842.796	15519
842.933	15526
843.069	15542
843.206	15549
843.343	15732
843.479	15545
843.616	15686
843.752	15374
843.889	15416
844.025	15614
844.162	15393
844.298	15405
844.435	15428
844.571	15245
844.708	15496
844.844	15564
844.98	15507
845.117	15481
845.253	15302
845.389	15302
845.525	15283
845.661	15355
845.798	15108
845.934	15287
846.07	15119
846.206	15161
846.342	15245
846.478	15138
846.614	15032
846.75	14845
846.886	14914
847.022	14963
847.158	14895
847.294	14937
847.429	14963
847.565	14895
847.701	15161
847.837	14724
847.972	14659
848.108	14830
848.244	14765
848.379	14549
848.515	14434
848.65	14526
848.786	14522
848.921	14610
849.057	14590
849.192	14655
849.328	14625
849.463	14659
849.598	14499
849.734	14518
849.869	14465
850.004	14305
850.14	14404
850.275	14309
850.41	14320
850.545	14248
850.68	14286
850.815	14328
850.95	14248
851.085	14457
851.22	14431
851.355	14423
851.49	14145
851.625	14336
851.76	14244
851.895	14191
852.03	14233
852.165	14290
852.299	14305
852.434	14317
852.569	14339
852.703	14339
852.838	14419
852.973	14499
853.107	14427
853.242	14324
853.376	14168
853.511	14073
853.645	14119
853.78	14256
853.914	14195
854.048	14084
854.183	14050
854.317	14202
854.451	14229
854.585	14134
854.72	14161
854.854	14180
854.988	14176
855.122	14191
855.256	13986
855.39	14180
855.524	14252
855.658	14221
855.792	14161
855.926	14286
856.06	14221
856.194	14282
856.327	14218
856.461	14157
856.595	14161
856.729	14123
856.862	14267
856.996	14252
857.13	14221
857.263	14252
857.397	14309
857.53	14191
857.664	14271
857.797	14218
857.931	14210
858.064	14259
858.197	14275
858.331	14142
858.464	14088
858.597	13982
858.731	14149
858.864	14218
858.997	14103
859.13	14176
859.263	14123
859.396	14259
859.529	14100
859.662	14187
859.795	14123
859.928	14115
860.061	14233
860.194	14370
860.327	14180
860.46	14161
860.592	14252
860.725	14370
860.858	14404
860.99	14180
861.123	14039
861.256	14115
861.388	14320
861.521	14876
861.653	14096
861.786	13947
861.918	13967
862.05	14084
862.183	14111
862.315	14065
862.447	14237
862.58	14096
862.712	13932
862.844	13822
862.976	13947
863.108	14039
863.24	14374
863.372	13883
863.504	14043
863.636	14012
863.768	13997
863.9	13921
864.032	13967
864.164	13879
864.296	14008
864.428	14031
864.559	13951
864.691	14020
864.823	14054
864.954	13959
865.086	14012
865.217	13944
865.349	13890
865.48	13913
865.612	13860
865.743	13986
865.875	13947
866.006	13845
866.137	13921
866.269	13894
866.4	13997
866.531	13902
866.662	13856
866.793	13909
866.924	13864
867.055	13951
867.186	13921
867.317	13883
867.448	13772
867.579	13917
867.71	13837
867.841	13803
867.972	13871
868.103	13917
868.233	13978
868.364	13947
868.495	14031
868.625	14176
868.756	14355
868.886	14069
869.017	14107
869.147	14271
869.278	14374
869.408	14199
869.539	14138
869.669	14286
869.799	14244
869.929	14431
870.06	14294
870.19	14518
870.32	14446
870.45	14522
870.58	14503
870.71	14773
870.84	14773
870.97	14667
871.1	14636
871.23	14724
871.36	14777
871.489	14735
871.619	14807
871.749	14792
871.879	14792
872.008	14876
872.138	14735
872.267	14727
872.397	14621
872.526	14651
872.656	14621
872.785	14644
872.915	14781
873.044	14918
873.173	14773
873.303	14819
873.432	14880
873.561	14937
873.69	14792
873.819	14861
873.948	14872
874.077	14872
874.206	14845
874.335	14876
874.464	15047
874.593	15100
874.722	14967
874.851	15066
874.979	15165
875.108	15245
875.237	15138
875.365	15081
875.494	15036
875.623	15237
875.751	15142
875.88	15173
876.008	15313
876.136	15401
876.265	15587
876.393	15720
876.521	15675
876.65	15648
876.778	15564
876.906	15473
877.034	15458
877.162	15652
877.29	15500
877.418	15618
877.546	15538
877.674	15622
877.802	15572
877.93	15629
878.058	15606
878.185	15469
878.313	15458
878.441	15690
878.568	15454
878.696	15523
878.824	15568
878.951	15698
879.079	15808
879.206	15861
879.333	15800
879.461	15557
879.588	15660
879.715	15759
879.842	15903
879.97	15587
880.097	15458
880.224	15408
880.351	15545
880.478	15477
880.605	15340
880.732	15431
880.859	15587
880.986	15458
881.112	15500
881.239	15306
881.366	15097
881.493	15146
881.619	15104
881.746	15123
881.872	15024
881.999	15104
882.125	15043
882.252	15013
882.378	15116
882.505	15283
882.631	15020
882.757	14876
882.883	14933
883.01	14948
883.136	14750
883.262	14785
883.388	14830
883.514	14998
883.64	14883
883.766	14891
883.892	14712
884.018	14891
884.143	14914
884.269	14967
884.395	14670
884.52	14625
884.646	14575
884.772	14499
884.897	14533
885.023	14617
885.148	14743
885.274	14739
885.399	14705
885.524	14613
885.65	14552
885.775	14571
885.9	14552
886.025	14788
886.15	14693
886.275	14514
886.4	14541
886.525	14674
886.65	14537
886.775	14537
886.9	14792
887.025	14857
887.149	14575
887.274	14499
887.399	14339
887.523	14415
887.648	14339
887.773	14355
887.897	14514
888.021	14514
888.146	14366
888.27	14545
888.395	14644
888.519	14514
888.643	14454
888.767	14541
888.891	14351
889.015	14309
889.139	14275
889.263	14286
889.387	14450
889.511	14541
889.635	14438
889.759	14252
889.883	14263
890.006	14370
890.13	14374
890.254	14286
890.377	14271
890.501	14134
890.624	14161
890.748	14145
890.871	14012
890.995	13913
891.118	13982
891.241	14031
891.364	13925
891.488	14027
891.611	13993
891.734	14046
891.857	14096
891.98	14008
892.103	14088
892.226	14073
892.349	13902
892.471	13856
892.594	13860
892.717	13906
892.839	13921
892.962	13986
893.085	14058
893.207	13963
893.33	13902
893.452	13871
893.575	14008
893.697	14081
893.819	14229
893.941	14187
894.064	14218
894.186	14046
894.308	13909
894.43	14100
894.552	14229
894.674	14157
894.796	14043
894.918	14046
895.04	14001
895.161	14164
895.283	14164
895.405	14084
895.526	14027
895.648	14134
895.769	14077
895.891	14202
896.012	14237
896.134	14183
896.255	14149
896.376	14092
896.498	14210
896.619	14240
896.74	14176
896.861	14317
896.982	14587
897.103	14693
897.224	14434
897.345	14385
897.466	14412
897.587	14484
897.708	14579
897.828	14476
897.949	14473
898.07	14221
898.19	14442
898.311	14568
898.431	14446
898.552	14511
898.672	14533
898.792	14625
898.913	14613
899.033	14457
899.153	14381
899.273	14229
899.393	14252
899.513	14412
899.633	14362
899.753	14469
899.873	14351
899.993	14431
900.113	14412
900.232	14404
900.352	14347
900.472	14294
900.591	14218
900.711	14225
900.83	14206
900.95	14343
901.069	14385
901.189	14149
901.308	13944
901.427	13947
901.546	13883
901.665	13879
901.784	13970
901.904	13845
902.023	13693
902.141	13537
902.26	13502
902.379	13616
902.498	13525
902.617	13377
902.735	13453
902.854	13514
902.973	13430
903.091	13316
903.21	13304
903.328	13221
903.446	13149
903.565	13114
903.683	13076
903.801	13034
903.919	13122
904.038	13091
904.156	12875
904.274	13046
904.392	12840
904.51	12806
904.627	12825
904.745	13004
904.863	12951
904.981	12627
905.098	12604
905.216	12635
905.334	12665
905.451	12536
905.569	12631
905.686	12593
905.803	12616
905.921	12338
906.038	12456
906.155	12426
906.272	12277
906.389	12178
906.506	12140
906.623	12140
906.74	12155
906.857	12125
906.974	12064
907.091	12235
907.208	12258
907.324	12243
907.441	12117
907.557	11958
907.674	11901
907.79	11866
907.907	11885
908.023	11942
908.139	11920
908.256	11923
908.372	11798
908.488	11737
908.604	11741
908.72	11623
908.836	11688
908.952	11668
909.068	11680
909.184	11809
909.3	11703
909.415	11707
909.531	11767
909.647	11448
909.762	11455
909.878	11379
909.993	11459
910.108	11478
910.224	11387
910.339	11360
910.454	11303
910.57	11212
910.685	11269
910.8	11478
910.915	11448
911.03	11292
911.145	11223
911.259	11170
911.374	11083
911.489	10968
911.604	11003
911.718	10961
911.833	10869
911.947	10839
912.062	10679
912.176	10873
912.291	10896
912.405	10915
912.519	11117
912.633	11105
912.748	10938
912.862	10949
912.976	10797
913.09	10626
913.204	10679
913.318	10759
913.431	10881
913.545	10816
913.659	10900
913.772	10782
913.886	10630
914	10694
914.113	10729
914.226	10774
914.34	10710
914.453	10656
914.566	10672
914.68	10622
914.793	10698
914.906	10459
915.019	10287
915.132	10348
915.245	10402
915.358	10390
915.47	10470
915.583	10398
915.696	10478
915.809	10607
915.921	10615
916.034	10318
916.146	10379
916.259	10284
916.371	10409
916.483	10398
916.595	10371
916.708	10299
916.82	10291
916.932	10325
917.044	10356
917.156	10344
917.268	10257
917.38	10242
917.491	10188
917.603	10219
917.715	10386
917.826	10318
917.938	10261
918.049	10143
918.161	10223
918.272	10382
918.384	10402
918.495	10295
918.606	10112
918.717	10101
918.828	10109
918.939	10093
919.05	10082
919.161	10090
919.272	9956
919.383	10051
919.494	10188
919.604	10291
919.715	10116
919.826	10010
919.936	10067
920.047	10249
920.157	10135
920.267	10474
920.378	10177
920.488	10139
920.598	10341
920.708	10535
920.818	10318
920.928	10398
921.038	10523
921.148	10443
921.258	10257
921.368	10131
921.477	10040
921.587	9930
921.697	9873
921.806	10078
921.916	9873
922.025	9759
922.134	9641
922.244	9713
922.353	9743
922.462	9663
922.571	9591
922.68	9477
922.789	9302
922.898	9386
923.007	9378
923.116	9507
923.224	9469
923.333	9389
923.442	9264
923.55	9355
923.659	9245
923.767	9348
923.876	9173
923.984	9317
924.092	9184
924.201	9287
924.309	9249
924.417	9226
924.525	9241
924.633	9260
924.741	10219
924.849	9028
924.956	9237
925.064	9043
925.172	8990
925.279	9009
925.387	9100
925.494	9051
925.602	9116
925.709	9085
925.816	8990
925.924	9055
926.031	9131
926.138	9070
926.245	9070
926.352	8971
926.459	9146
926.566	9195
926.673	8929
926.779	8967
926.886	8849
926.993	8834
927.099	8762
927.206	8712
927.312	8663
927.419	8864
927.525	8739
927.631	8849
927.737	8750
927.843	8587
927.95	8556
928.056	8659
928.162	8712
928.267	8773
928.373	9279
928.479	8762
928.585	8545
928.69	8659
928.796	8743
928.901	8598
929.007	8434
929.112	8613
929.218	8537
929.323	8473
929.428	8492
929.533	8632
929.638	8431
929.743	8473
929.848	8549
929.953	8541
930.058	8362
930.163	8237
930.267	8248
930.372	8412
930.477	8187
930.581	8469
930.685	8313
930.79	8244
930.894	8214
930.998	8233
931.103	8374
931.207	8054
931.311	8008
931.415	7868
931.519	7704
931.623	7693
