Data from test_V78500241_872.txt Node
Date: Fri Mar 25 14:39:47 CST 2022
User: usil
Spectrometer: V785-0024
Trigger mode: 0
Integration Time (sec): 4.000000E-1
Scans to average: 1
Nonlinearity correction enabled: false
Boxcar width: 0
Storing dark spectrum: false
XAxis mode: Wavelengths
Number of Pixels in Spectrum: 1024
>>>>>Begin Spectral Data<<<<<
801.071	25715
801.214	25457
801.356	25129
801.499	25095
801.641	24901
801.783	24951
801.926	24951
802.068	24817
802.211	24738
802.353	24582
802.496	24426
802.638	24403
802.78	24429
802.923	24330
803.065	24342
803.208	24292
803.35	24403
803.492	24407
803.635	24369
803.777	24270
803.919	24410
804.061	24711
804.204	24467
804.346	24334
804.488	24243
804.63	24376
804.773	24285
804.915	24372
805.057	24551
805.199	24486
805.341	24555
805.483	24509
805.626	24437
805.768	24582
805.91	24578
806.052	24585
806.194	24726
806.336	24981
806.478	24973
806.62	24844
806.762	24985
806.904	25270
807.046	25647
807.188	25795
807.33	26001
807.472	26050
807.614	26320
807.756	26651
807.898	27013
808.04	27382
808.182	28299
808.324	29391
808.465	30429
808.607	31620
808.749	32876
808.891	33382
809.033	33515
809.174	32788
809.316	31609
809.458	30407
809.6	29147
809.741	28238
809.883	27454
810.025	27116
810.166	26659
810.308	26229
810.45	26069
810.591	25750
810.733	25674
810.875	25278
811.016	25076
811.158	24920
811.299	25190
811.441	25247
811.582	25114
811.724	24875
811.865	24821
812.007	24772
812.148	24833
812.29	24932
812.431	25034
812.573	25046
812.714	25122
812.855	25228
812.997	25331
813.138	25449
813.279	25228
813.421	25225
813.562	25050
813.703	24897
813.845	24810
813.986	24456
814.127	24308
814.268	24148
814.41	24140
814.551	24091
814.692	24296
814.833	23992
814.974	24022
815.115	24106
815.256	23874
815.397	23961
815.539	23874
815.68	23707
815.821	23885
815.962	23901
816.103	23699
816.244	23741
816.385	23600
816.526	23429
816.666	23307
816.807	23151
816.948	23246
817.089	23227
817.23	23105
817.371	23102
817.512	23220
817.653	22942
817.793	22999
817.934	23174
818.075	23143
818.216	22991
818.356	23090
818.497	22991
818.638	22740
818.778	22725
818.919	22778
819.06	22759
819.2	22809
819.341	23041
819.481	22957
819.622	23064
819.762	23223
819.903	23140
820.043	22968
820.184	23033
820.324	23071
820.465	23246
820.605	22995
820.746	23037
820.886	22847
821.026	22927
821.167	22942
821.307	22946
821.447	22774
821.588	22790
821.728	22713
821.868	22421
822.008	22443
822.149	22421
822.289	22223
822.429	22021
822.569	21911
822.709	22048
822.849	21766
822.99	21675
823.13	21671
823.27	21774
823.41	21466
823.55	21454
823.69	21580
823.83	21580
823.97	21538
824.11	21340
824.25	21336
824.389	21325
824.529	21412
824.669	21329
824.809	21447
824.949	21393
825.089	21447
825.228	21424
825.368	21214
825.508	21077
825.648	21119
825.787	21233
825.927	21249
826.067	21211
826.206	21032
826.346	21207
826.485	21275
826.625	21180
826.765	21203
826.904	21169
827.044	20868
827.183	20861
827.323	20739
827.462	20880
827.601	20834
827.741	20689
827.88	20750
828.02	20640
828.159	20686
828.298	20830
828.437	20872
828.577	20720
828.716	20834
828.855	20629
828.994	20488
829.134	20484
829.273	20533
829.412	20503
829.551	20339
829.69	20404
829.829	20530
829.968	20457
830.107	20549
830.246	20514
830.385	20431
830.524	20389
830.663	20282
830.802	20054
830.941	20088
831.08	19986
831.219	20107
831.357	20122
831.496	20275
831.635	20107
831.774	19989
831.913	19982
832.051	19913
832.19	19791
832.329	19906
832.467	19841
832.606	19765
832.744	19822
832.883	19799
833.022	19776
833.16	19791
833.299	19890
833.437	19974
833.576	20073
833.714	20058
833.852	20111
833.991	20180
834.129	20298
834.267	20183
834.406	20161
834.544	20225
834.682	20191
834.821	20027
834.959	20103
835.097	19932
835.235	20111
835.373	19955
835.511	19898
835.65	19723
835.788	19628
835.926	19525
836.064	19521
836.202	19480
836.34	19700
836.478	19738
836.615	19620
836.753	19559
836.891	19723
837.029	19708
837.167	19514
837.305	19510
837.443	19358
837.58	19384
837.718	19472
837.856	19403
837.993	19324
838.131	19274
838.269	19255
838.406	19362
838.544	19217
838.681	19194
838.819	19091
838.956	18913
839.094	18909
839.231	18913
839.369	19088
839.506	19324
839.643	19122
839.781	18882
839.918	18859
840.055	18977
840.193	18810
840.33	18764
840.467	18787
840.604	18897
840.742	19057
840.879	18696
841.016	18734
841.153	18681
841.29	19061
841.427	18814
841.564	18840
841.701	18856
841.838	18715
841.975	18707
842.112	18749
842.249	18642
842.385	18585
842.522	18810
842.659	18688
842.796	18578
842.933	18658
843.069	18593
843.206	18570
843.343	18719
843.479	18601
843.616	18684
843.752	18441
843.889	18479
844.025	18703
844.162	18422
844.298	18631
844.435	18544
844.571	18547
844.708	18760
844.844	19088
844.98	19293
845.117	19400
845.253	19457
845.389	20100
845.525	21332
845.661	23307
845.798	25845
845.934	27865
846.07	28748
846.206	28265
846.342	26830
846.478	24395
846.614	21975
846.75	20370
846.886	19502
847.022	19065
847.158	18582
847.294	18426
847.429	18266
847.565	18213
847.701	18445
847.837	17885
847.972	17813
848.108	17790
848.244	17779
848.379	17608
848.515	17535
848.65	17543
848.786	17474
848.921	17524
849.057	17695
849.192	17630
849.328	17623
849.463	17493
849.598	17459
849.734	17455
849.869	17341
850.004	17311
850.14	17246
850.275	17254
850.41	17170
850.545	17105
850.68	17109
850.815	17303
850.95	17185
851.085	17425
851.22	17227
851.355	17143
851.49	17181
851.625	17151
851.76	17143
851.895	17113
852.03	17045
852.165	17220
852.299	17132
852.434	17349
852.569	17299
852.703	17212
852.838	17254
852.973	17398
853.107	17402
853.242	17178
853.376	17109
853.511	17086
853.645	17128
853.78	17216
853.914	17197
854.048	17155
854.183	17239
854.317	17239
854.451	17414
854.585	17102
854.72	17045
854.854	17242
854.988	17159
855.122	17033
855.256	16972
855.39	17151
855.524	17197
855.658	17170
855.792	17086
855.926	17064
856.06	17235
856.194	17170
856.327	17006
856.461	17056
856.595	17025
856.729	16999
856.862	17140
856.996	17079
857.13	17064
857.263	17140
857.397	17189
857.53	17003
857.664	17079
857.797	17143
857.931	17155
858.064	17033
858.197	17109
858.331	17018
858.464	16976
858.597	16904
858.731	16999
858.864	16896
858.997	16873
859.13	16961
859.263	17048
859.396	17041
859.529	16946
859.662	16961
859.795	16961
859.928	16953
860.061	17174
860.194	17178
860.327	16999
860.46	17022
860.592	17029
860.725	17132
860.858	17147
860.99	16972
861.123	16843
861.256	16889
861.388	16961
861.521	17699
861.653	16927
861.786	16839
861.918	16786
862.05	16961
862.183	16934
862.315	17006
862.447	16946
862.58	16908
862.712	16702
862.844	16645
862.976	16721
863.108	16733
863.24	16957
863.372	16687
863.504	16729
863.636	16687
863.768	16755
863.9	16759
864.032	16603
864.164	16691
864.296	16698
864.428	16733
864.559	16672
864.691	16702
864.823	16710
864.954	16721
865.086	16733
865.217	16706
865.349	16481
865.48	16527
865.612	16649
865.743	16755
865.875	16630
866.006	16569
866.137	16637
866.269	16694
866.4	16672
866.531	16611
866.662	16558
866.793	16538
866.924	16577
867.055	16630
867.186	16561
867.317	16565
867.448	16523
867.579	16569
867.71	16588
867.841	16535
867.972	16554
868.103	16535
868.233	16596
868.364	16634
868.495	16713
868.625	16812
868.756	17022
868.886	16687
869.017	16793
869.147	16862
869.278	16930
869.408	16904
869.539	16866
869.669	16896
869.799	16900
869.929	16984
870.06	16938
870.19	17147
870.32	17094
870.45	17181
870.58	17280
870.71	17364
870.84	17318
870.97	17181
871.1	17383
871.23	17463
871.36	17440
871.489	17425
871.619	17425
871.749	17471
871.879	17528
872.008	17653
872.138	17532
872.267	17425
872.397	17433
872.526	17414
872.656	17326
872.785	17231
872.915	17577
873.044	17687
873.173	17570
873.303	17589
873.432	17695
873.561	17657
873.69	17611
873.819	17646
873.948	17687
874.077	17661
874.206	17638
874.335	17630
874.464	17923
874.593	17977
874.722	17977
874.851	17988
874.979	18022
875.108	18019
875.237	17893
875.365	18053
875.494	17954
875.623	18148
875.751	17984
875.88	18121
876.008	18197
876.136	18304
876.265	18467
876.393	18684
876.521	18715
876.65	18696
876.778	18635
876.906	18551
877.034	18627
877.162	18650
877.29	18715
877.418	18745
877.546	18806
877.674	18802
877.802	18867
877.93	18863
878.058	18886
878.185	18852
878.313	19069
878.441	19259
878.568	19221
878.696	19556
878.824	19799
878.951	20332
879.079	20880
879.206	21884
879.333	22489
879.461	23189
879.588	23566
879.715	23684
879.842	23376
879.97	22531
880.097	21382
880.224	20914
880.351	20503
880.478	20202
880.605	19776
880.732	19742
880.859	19864
880.986	19727
881.112	19590
881.239	19438
881.366	19335
881.493	19331
881.619	19129
881.746	19198
881.872	19297
881.999	19225
882.125	19198
882.252	19343
882.378	19225
882.505	19343
882.631	19297
882.757	19076
882.883	19091
883.01	19129
883.136	18985
883.262	18932
883.388	18920
883.514	19137
883.64	19141
883.766	19095
883.892	18806
884.018	18932
884.143	19042
884.269	19187
884.395	18856
884.52	18753
884.646	18764
884.772	18734
884.897	18620
885.023	18719
885.148	18772
885.274	18806
885.399	18757
885.524	18696
885.65	18684
885.775	18639
885.9	18486
886.025	18593
886.15	18452
886.275	18388
886.4	18254
886.525	18262
886.65	18148
886.775	18095
886.9	18315
887.025	18391
887.149	18114
887.274	17961
887.399	17901
887.523	17828
887.648	17668
887.773	17695
887.897	17859
888.021	17703
888.146	17646
888.27	17813
888.395	17786
888.519	17752
888.643	17630
888.767	17657
888.891	17436
889.015	17474
889.139	17474
889.263	17417
889.387	17478
889.511	17532
889.635	17493
889.759	17368
889.883	17288
890.006	17341
890.13	17391
890.254	17227
890.377	17185
890.501	17025
890.624	16930
890.748	17067
890.871	16889
890.995	16908
891.118	16748
891.241	16873
891.364	16889
891.488	16896
891.611	16816
891.734	16771
891.857	16847
891.98	16759
892.103	16862
892.226	16771
892.349	16645
892.471	16618
892.594	16634
892.717	16759
892.839	16733
892.962	16641
893.085	16721
893.207	16596
893.33	16523
893.452	16535
893.575	16637
893.697	16588
893.819	16801
893.941	16725
894.064	16691
894.186	16531
894.308	16580
894.43	16653
894.552	16675
894.674	16713
894.796	16512
894.918	16588
895.04	16485
895.161	16626
895.283	16645
895.405	16550
895.526	16611
895.648	16641
895.769	16599
895.891	16694
896.012	16691
896.134	16607
896.255	16554
896.376	16497
896.498	16596
896.619	16641
896.74	16683
896.861	16691
896.982	16892
897.103	17181
897.224	16805
897.345	16831
897.466	16740
897.587	16900
897.708	16976
897.828	16908
897.949	16885
898.07	16634
898.19	16790
898.311	17006
898.431	16782
898.552	16835
898.672	16995
898.792	16915
898.913	16942
899.033	16801
899.153	16744
899.273	16664
899.393	16797
899.513	16801
899.633	16710
899.753	16713
899.873	16706
899.993	16778
900.113	16706
900.232	16736
900.352	16713
900.472	16618
900.591	16371
900.711	16603
900.83	16485
900.95	16596
901.069	16694
901.189	16474
901.308	16344
901.427	16246
901.546	16200
901.665	16169
901.784	16131
901.904	16048
902.023	15991
902.141	15781
902.26	15705
902.379	15842
902.498	15709
902.617	15656
902.735	15625
902.854	15667
902.973	15675
903.091	15355
903.21	15344
903.328	15283
903.446	15329
903.565	15169
903.683	15176
903.801	15100
903.919	15138
904.038	15199
904.156	15066
904.274	15051
904.392	14941
904.51	14906
904.627	14883
904.745	14933
904.863	14929
904.981	14708
905.098	14526
905.216	14617
905.334	14606
905.451	14663
905.569	14541
905.686	14617
905.803	14579
905.921	14339
906.038	14412
906.155	14385
906.272	14271
906.389	14218
906.506	14096
906.623	14119
906.74	14210
906.857	14039
906.974	14062
907.091	14180
907.208	14206
907.324	14096
907.441	14016
907.557	13868
907.674	13784
907.79	13757
907.907	13795
908.023	13856
908.139	13791
908.256	13753
908.372	13712
908.488	13715
908.604	13506
908.72	13567
908.836	13624
908.952	13499
909.068	13636
909.184	13700
909.3	13552
909.415	13628
909.531	13556
909.647	13324
909.762	13377
909.878	13289
909.993	13324
910.108	13266
910.224	13240
910.339	13316
910.454	13114
910.57	13228
910.685	12954
910.8	13381
910.915	13255
911.03	13110
911.145	12970
911.259	12932
911.374	12989
911.489	12859
911.604	12817
911.718	12662
911.833	12814
911.947	12563
912.062	12544
912.176	12692
912.291	12760
912.405	12669
912.519	12844
912.633	12844
912.748	12722
912.862	12787
912.976	12604
913.09	12445
913.204	12502
913.318	12544
913.431	12631
913.545	12654
913.659	12700
913.772	12559
913.886	12414
914	12388
914.113	12460
914.226	12536
914.34	12479
914.453	12342
914.566	12471
914.68	12357
914.793	12273
914.906	12125
915.019	12083
915.132	12015
915.245	12114
915.358	12041
915.47	12133
915.583	12125
915.696	12175
915.809	12251
915.921	12251
916.034	11996
916.146	12076
916.259	12045
916.371	12110
916.483	12152
916.595	12015
916.708	12011
916.82	11996
916.932	11973
917.044	12003
917.156	11916
917.268	11809
917.38	11927
917.491	11809
917.603	11866
917.715	12003
917.826	11973
917.938	11843
918.049	11771
918.161	11832
918.272	11908
918.384	11965
918.495	11908
918.606	11748
918.717	11630
918.828	11737
918.939	11710
919.05	11680
919.161	11661
919.272	11520
919.383	11558
919.494	11752
919.604	11904
919.715	11680
919.826	11611
919.936	11611
920.047	11786
920.157	11733
920.267	11847
920.378	11691
920.488	11688
920.598	11805
920.708	11969
920.818	11847
920.928	11878
921.038	11984
921.148	11939
921.258	11695
921.368	11649
921.477	11486
921.587	11471
921.697	11421
921.806	11512
921.916	11364
922.025	11235
922.134	11204
922.244	11140
922.353	11277
922.462	11136
922.571	11048
922.68	10873
922.789	10809
922.898	10949
923.007	10862
923.116	10892
923.224	10896
923.333	10858
923.442	10824
923.55	10714
923.659	10706
923.767	10877
923.876	10706
923.984	10668
924.092	10733
924.201	10675
924.309	10725
924.417	10683
924.525	10656
924.633	10744
924.741	11425
924.849	10485
924.956	10687
925.064	10531
925.172	10405
925.279	10512
925.387	10489
925.494	10443
925.602	10626
925.709	10523
925.816	10379
925.924	10447
926.031	10577
926.138	10489
926.245	10558
926.352	10402
926.459	10447
926.566	10535
926.673	10405
926.779	10299
926.886	10284
926.993	10185
927.099	10204
927.206	10097
927.312	10128
927.419	10287
927.525	10185
927.631	10116
927.737	10017
927.843	10013
927.95	9930
928.056	9888
928.162	9964
928.267	10040
928.373	10615
928.479	10128
928.585	9888
928.69	9964
928.796	9987
928.901	9934
929.007	9743
929.112	9907
929.218	9804
929.323	9838
929.428	9774
929.533	9861
929.638	9732
929.743	9781
929.848	9857
929.953	9789
930.058	9698
930.163	9584
930.267	9549
930.372	9660
930.477	9564
930.581	9793
930.685	9652
930.79	9492
930.894	9504
930.998	9412
931.103	9629
931.207	9184
931.311	9222
931.415	9108
931.519	8830
931.623	8872
