Data from test_V78500241_1493.txt Node
Date: Fri Mar 25 14:44:06 CST 2022
User: usil
Spectrometer: V785-0024
Trigger mode: 0
Integration Time (sec): 4.000000E-1
Scans to average: 1
Nonlinearity correction enabled: false
Boxcar width: 0
Storing dark spectrum: false
XAxis mode: Wavelengths
Number of Pixels in Spectrum: 1024
>>>>>Begin Spectral Data<<<<<
801.071	22440
801.214	22402
801.356	22226
801.499	21956
801.641	21899
801.783	21759
801.926	21759
802.068	21701
802.211	21694
802.353	21599
802.496	21412
802.638	21294
802.78	21351
802.923	21150
803.065	21192
803.208	21100
803.35	21112
803.492	21180
803.635	21169
803.777	21009
803.919	21336
804.061	21443
804.204	21180
804.346	20948
804.488	20986
804.63	21142
804.773	20952
804.915	21161
805.057	21245
805.199	21024
805.341	21279
805.483	21161
805.626	21226
805.768	20975
805.91	21017
806.052	21032
806.194	21017
806.336	21195
806.478	21138
806.62	20975
806.762	21074
806.904	21184
807.046	21382
807.188	21424
807.33	21500
807.472	21481
807.614	21393
807.756	21416
807.898	21355
808.04	21176
808.182	21203
808.324	21249
808.465	21279
808.607	21420
808.749	21701
808.891	21720
809.033	21876
809.174	21717
809.316	21549
809.458	21671
809.6	21526
809.741	21557
809.883	21496
810.025	21694
810.166	21587
810.308	21652
810.45	21568
810.591	21466
810.733	21469
810.875	21397
811.016	21116
811.158	21169
811.299	21408
811.441	21317
811.582	21378
811.724	21256
811.865	21161
812.007	21279
812.148	21161
812.29	21287
812.431	21329
812.573	21507
812.714	21504
812.855	21865
812.997	21857
813.138	21895
813.279	21797
813.421	21739
813.562	21812
813.703	21610
813.845	21496
813.986	21108
814.127	20921
814.268	20792
814.41	20834
814.551	20765
814.692	20830
814.833	20727
814.974	20735
815.115	20754
815.256	20636
815.397	20583
815.539	20575
815.68	20545
815.821	20480
815.962	20636
816.103	20412
816.244	20374
816.385	20233
816.526	20195
816.666	20130
816.807	20054
816.948	20069
817.089	20115
817.23	19963
817.371	19951
817.512	19902
817.653	19818
817.793	19826
817.934	20035
818.075	19909
818.216	19909
818.356	19856
818.497	19769
818.638	19559
818.778	19552
818.919	19563
819.06	19616
819.2	19776
819.341	19727
819.481	19700
819.622	19894
819.762	20180
819.903	20039
820.043	19936
820.184	19925
820.324	19936
820.465	19940
820.605	19864
820.746	19894
820.886	19757
821.026	19837
821.167	19909
821.307	19936
821.447	19898
821.588	19708
821.728	19521
821.868	19426
822.008	19327
822.149	19297
822.289	19263
822.429	19072
822.569	19012
822.709	19000
822.849	18787
822.99	18882
823.13	18787
823.27	18783
823.41	18547
823.55	18486
823.69	18551
823.83	18486
823.97	18456
824.11	18429
824.25	18350
824.389	18334
824.529	18376
824.669	18395
824.809	18479
824.949	18410
825.089	18308
825.228	18342
825.368	18026
825.508	18076
825.648	18251
825.787	18167
825.927	18220
826.067	18117
826.206	18159
826.346	18182
826.485	18095
826.625	18182
826.765	18190
826.904	18133
827.044	17969
827.183	17920
827.323	17843
827.462	18015
827.601	17878
827.741	17764
827.88	17813
828.02	17657
828.159	17794
828.298	17920
828.437	17836
828.577	17794
828.716	17916
828.855	17786
828.994	17684
829.134	17585
829.273	17623
829.412	17558
829.551	17547
829.69	17482
829.829	17585
829.968	17661
830.107	17554
830.246	17592
830.385	17448
830.524	17505
830.663	17448
830.802	17417
830.941	17166
831.08	17193
831.219	17258
831.357	17288
831.496	17406
831.635	17261
831.774	17056
831.913	17075
832.051	16915
832.19	16904
832.329	17045
832.467	16873
832.606	16835
832.744	16885
832.883	16915
833.022	16881
833.16	16873
833.299	16991
833.437	16896
833.576	16957
833.714	17022
833.852	17041
833.991	17029
834.129	17029
834.267	17045
834.406	16938
834.544	17014
834.682	16949
834.821	16968
834.959	17121
835.097	16843
835.235	17029
835.373	17048
835.511	16885
835.65	16877
835.788	16820
835.926	16611
836.064	16622
836.202	16656
836.34	16790
836.478	16919
836.615	16866
836.753	16869
836.891	16866
837.029	16908
837.167	16915
837.305	16691
837.443	16706
837.58	16698
837.718	16755
837.856	16786
837.993	16611
838.131	16687
838.269	16622
838.406	16615
838.544	16538
838.681	16333
838.819	16333
838.956	16230
839.094	16242
839.231	16310
839.369	16272
839.506	16592
839.643	16478
839.781	16162
839.918	16242
840.055	16265
840.193	16226
840.33	16173
840.467	16268
840.604	16344
840.742	16466
840.879	16082
841.016	16154
841.153	16135
841.29	16363
841.427	16230
841.564	16196
841.701	16265
841.838	16185
841.975	16116
842.112	16185
842.249	16059
842.385	15926
842.522	16188
842.659	16029
842.796	16025
842.933	16029
843.069	15949
843.206	15994
843.343	16135
843.479	15994
843.616	16048
843.752	15812
843.889	15819
844.025	15907
844.162	15766
844.298	15949
844.435	15884
844.571	15732
844.708	15781
844.844	15922
844.98	15930
845.117	15975
845.253	15755
845.389	15717
845.525	15816
845.661	15850
845.798	15720
845.934	15819
846.07	15835
846.206	15800
846.342	15873
846.478	15671
846.614	15584
846.75	15355
846.886	15374
847.022	15359
847.158	15439
847.294	15401
847.429	15374
847.565	15355
847.701	15557
847.837	15097
847.972	15051
848.108	15180
848.244	15252
848.379	15085
848.515	14906
848.65	14982
848.786	14925
848.921	14979
849.057	14963
849.192	15028
849.328	15009
849.463	14933
849.598	14986
849.734	14857
849.869	14902
850.004	14693
850.14	14811
850.275	14788
850.41	14602
850.545	14735
850.68	14743
850.815	14765
850.95	14651
851.085	14826
851.22	14800
851.355	14762
851.49	14708
851.625	14739
851.76	14579
851.895	14629
852.03	14549
852.165	14724
852.299	14769
852.434	14765
852.569	14708
852.703	14689
852.838	14777
852.973	14895
853.107	14826
853.242	14716
853.376	14503
853.511	14575
853.645	14484
853.78	14674
853.914	14511
854.048	14678
854.183	14625
854.317	14587
854.451	14746
854.585	14434
854.72	14549
854.854	14617
854.988	14442
855.122	14602
855.256	14419
855.39	14587
855.524	14648
855.658	14632
855.792	14636
855.926	14583
856.06	14663
856.194	14659
856.327	14526
856.461	14476
856.595	14476
856.729	14533
856.862	14678
856.996	14621
857.13	14712
857.263	14804
857.397	14800
857.53	14663
857.664	14636
857.797	14682
857.931	14663
858.064	14613
858.197	14720
858.331	14552
858.464	14533
858.597	14541
858.731	14556
858.864	14579
858.997	14560
859.13	14682
859.263	14610
859.396	14697
859.529	14556
859.662	14636
859.795	14533
859.928	14552
860.061	14743
860.194	14800
860.327	14571
860.46	14594
860.592	14686
860.725	14693
860.858	14678
860.99	14632
861.123	14499
861.256	14545
861.388	14552
861.521	15176
861.653	14530
861.786	14389
861.918	14351
862.05	14541
862.183	14514
862.315	14560
862.447	14606
862.58	14625
862.712	14381
862.844	14305
862.976	14434
863.108	14408
863.24	14739
863.372	14229
863.504	14256
863.636	14400
863.768	14385
863.9	14294
864.032	14256
864.164	14237
864.296	14370
864.428	14427
864.559	14533
864.691	14476
864.823	14313
864.954	14393
865.086	14347
865.217	14305
865.349	14259
865.48	14271
865.612	14336
865.743	14446
865.875	14225
866.006	14355
866.137	14381
866.269	14271
866.4	14320
866.531	14298
866.662	14267
866.793	14199
866.924	14290
867.055	14362
867.186	14301
867.317	14259
867.448	14183
867.579	14332
867.71	14294
867.841	14317
867.972	14343
868.103	14343
868.233	14385
868.364	14244
868.495	14358
868.625	14556
868.756	14693
868.886	14549
869.017	14526
869.147	14716
869.278	14575
869.408	14594
869.539	14606
869.669	14629
869.799	14644
869.929	14659
870.06	14697
870.19	14838
870.32	14823
870.45	14937
870.58	14956
870.71	15081
870.84	15146
870.97	14918
871.1	15001
871.23	15135
871.36	15176
871.489	15009
871.619	15051
871.749	15241
871.879	15249
872.008	15313
872.138	15214
872.267	15146
872.397	15074
872.526	15028
872.656	14910
872.785	14937
872.915	15287
873.044	15378
873.173	15184
873.303	15317
873.432	15233
873.561	15336
873.69	15249
873.819	15222
873.948	15351
874.077	15256
874.206	15287
874.335	15268
874.464	15473
874.593	15431
874.722	15466
874.851	15515
874.979	15561
875.108	15564
875.237	15420
875.365	15469
875.494	15614
875.623	15519
875.751	15469
875.88	15542
876.008	15793
876.136	15717
876.265	15907
876.393	16017
876.521	16010
876.65	16128
876.778	15915
876.906	15892
877.034	15865
877.162	15979
877.29	15968
877.418	16002
877.546	15991
877.674	15956
877.802	16063
877.93	15915
878.058	15953
878.185	15827
878.313	15975
878.441	15972
878.568	15854
878.696	15850
878.824	16006
878.951	16128
879.079	16124
879.206	16367
879.333	16287
879.461	16147
879.588	16116
879.715	16268
879.842	16265
879.97	16055
880.097	15884
880.224	15949
880.351	15873
880.478	15808
880.605	15778
880.732	15869
880.859	15949
880.986	15956
881.112	15956
881.239	15633
881.366	15614
881.493	15466
881.619	15420
881.746	15454
881.872	15408
881.999	15431
882.125	15485
882.252	15488
882.378	15549
882.505	15606
882.631	15439
882.757	15302
882.883	15363
883.01	15351
883.136	15275
883.262	15142
883.388	15214
883.514	15313
883.64	15283
883.766	15218
883.892	15127
884.018	15157
884.143	15344
884.269	15401
884.395	15039
884.52	15028
884.646	15020
884.772	14986
884.897	14929
885.023	14921
885.148	15077
885.274	15176
885.399	15180
885.524	14910
885.65	14948
885.775	15066
885.9	15017
886.025	15173
886.15	14971
886.275	14963
886.4	14948
886.525	14933
886.65	14921
886.775	14887
886.9	15043
887.025	15135
887.149	15047
887.274	14830
887.399	14830
887.523	14739
887.648	14804
887.773	14705
887.897	14842
888.021	14754
888.146	14743
888.27	14937
888.395	14918
888.519	14819
888.643	14861
888.767	14914
888.891	14686
889.015	14659
889.139	14701
889.263	14518
889.387	14701
889.511	14899
889.635	14731
889.759	14678
889.883	14674
890.006	14606
890.13	14769
890.254	14476
890.377	14545
890.501	14374
890.624	14385
890.748	14564
890.871	14484
890.995	14290
891.118	14278
891.241	14358
891.364	14351
891.488	14514
891.611	14305
891.734	14381
891.857	14389
891.98	14381
892.103	14446
892.226	14343
892.349	14305
892.471	14183
892.594	14282
892.717	14290
892.839	14358
892.962	14355
893.085	14412
893.207	14404
893.33	14183
893.452	14252
893.575	14408
893.697	14332
893.819	14434
893.941	14461
894.064	14415
894.186	14248
894.308	14301
894.43	14484
894.552	14419
894.674	14469
894.796	14381
894.918	14377
895.04	14404
895.161	14632
895.283	14533
895.405	14358
895.526	14385
895.648	14469
895.769	14514
895.891	14621
896.012	14571
896.134	14537
896.255	14446
896.376	14347
896.498	14530
896.619	14636
896.74	14492
896.861	14549
896.982	14899
897.103	15081
897.224	14754
897.345	14727
897.466	14720
897.587	14823
897.708	14864
897.828	14785
897.949	14788
898.07	14705
898.19	14765
898.311	14857
898.431	14796
898.552	14834
898.672	14975
898.792	14872
898.913	14895
899.033	14762
899.153	14762
899.273	14579
899.393	14724
899.513	14834
899.633	14686
899.753	14735
899.873	14636
899.993	14842
900.113	14758
900.232	14781
900.352	14743
900.472	14590
900.591	14575
900.711	14545
900.83	14518
900.95	14693
901.069	14522
901.189	14465
901.308	14271
901.427	14225
901.546	14294
901.665	14328
901.784	14214
901.904	14088
902.023	14103
902.141	13879
902.26	13883
902.379	13906
902.498	13761
902.617	13708
902.735	13791
902.854	13837
902.973	13734
903.091	13499
903.21	13548
903.328	13552
903.446	13480
903.565	13457
903.683	13358
903.801	13213
903.919	13350
904.038	13384
904.156	13304
904.274	13289
904.392	13175
904.51	13156
904.627	13175
904.745	13175
904.863	13217
904.981	13012
905.098	12920
905.216	12954
905.334	12909
905.451	12916
905.569	12852
905.686	13004
905.803	12905
905.921	12757
906.038	12753
906.155	12738
906.272	12597
906.389	12650
906.506	12494
906.623	12429
906.74	12544
906.857	12334
906.974	12334
907.091	12506
907.208	12506
907.324	12426
907.441	12353
907.557	12270
907.674	12182
907.79	12136
907.907	12095
908.023	12270
908.139	12182
908.256	12232
908.372	12136
908.488	12175
908.604	11988
908.72	11980
908.836	11965
908.952	11908
909.068	11988
909.184	12026
909.3	12003
909.415	12060
909.531	11923
909.647	11779
909.762	11760
909.878	11729
909.993	11657
910.108	11794
910.224	11817
910.339	11786
910.454	11634
910.57	11570
910.685	11539
910.8	11828
910.915	11771
911.03	11570
911.145	11455
911.259	11448
911.374	11398
911.489	11341
911.604	11277
911.718	11151
911.833	11220
911.947	11075
912.062	10862
912.176	11174
912.291	11185
912.405	11162
912.519	11387
912.633	11383
912.748	11341
912.862	11189
912.976	10946
913.09	11006
913.204	11006
913.318	11124
913.431	11193
913.545	11121
913.659	11227
913.772	11056
913.886	10980
914	10843
914.113	11045
914.226	11022
914.34	10976
914.453	10831
914.566	10980
914.68	10885
914.793	10862
914.906	10683
915.019	10672
915.132	10588
915.245	10660
915.358	10710
915.47	10706
915.583	10710
915.696	10736
915.809	10778
915.921	10896
916.034	10637
916.146	10596
916.259	10523
916.371	10752
916.483	10660
916.595	10626
916.708	10694
916.82	10550
916.932	10565
917.044	10626
917.156	10554
917.268	10455
917.38	10485
917.491	10451
917.603	10451
917.715	10679
917.826	10611
917.938	10584
918.049	10299
918.161	10497
918.272	10683
918.384	10618
918.495	10546
918.606	10390
918.717	10314
918.828	10390
918.939	10421
919.05	10276
919.161	10303
919.272	10158
919.383	10322
919.494	10344
919.604	10611
919.715	10413
919.826	10306
919.936	10394
920.047	10447
920.157	10440
920.267	10683
920.378	10500
920.488	10413
920.598	10516
920.708	10797
920.818	10653
920.928	10634
921.038	10763
921.148	10714
921.258	10371
921.368	10246
921.477	10257
921.587	10173
921.697	10128
921.806	10238
921.916	10067
922.025	9979
922.134	9945
922.244	9987
922.353	9930
922.462	9892
922.571	9755
922.68	9698
922.789	9618
922.898	9591
923.007	9564
923.116	9675
923.224	9728
923.333	9690
923.442	9454
923.55	9466
923.659	9530
923.767	9568
923.876	9500
923.984	9660
924.092	9397
924.201	9507
924.309	9504
924.417	9450
924.525	9386
924.633	9469
924.741	10421
924.849	9302
924.956	9526
925.064	9294
925.172	9226
925.279	9214
925.387	9340
925.494	9272
925.602	9439
925.709	9294
925.816	9173
925.924	9351
926.031	9321
926.138	9329
926.245	9367
926.352	9169
926.459	9378
926.566	9291
926.673	9218
926.779	9112
926.886	9135
926.993	9020
927.099	9005
927.206	8944
927.312	8948
927.419	9028
927.525	8982
927.631	9005
927.737	8952
927.843	8845
927.95	8766
928.056	8849
928.162	8861
928.267	8963
928.373	9553
928.479	8929
928.585	8739
928.69	8925
928.796	8910
928.901	8811
929.007	8663
929.112	8792
929.218	8819
929.323	8708
929.428	8636
929.533	8796
929.638	8606
929.743	8682
929.848	8735
929.953	8773
930.058	8587
930.163	8469
930.267	8419
930.372	8670
930.477	8355
930.581	8648
930.685	8594
930.79	8434
930.894	8404
930.998	8431
931.103	8457
931.207	8187
931.311	8138
931.415	8046
931.519	7898
931.623	7986
