Data from test_V78500241_3695.txt Node
Date: Fri Mar 25 14:59:26 CST 2022
User: usil
Spectrometer: V785-0024
Trigger mode: 0
Integration Time (sec): 4.000000E-1
Scans to average: 1
Nonlinearity correction enabled: false
Boxcar width: 0
Storing dark spectrum: false
XAxis mode: Wavelengths
Number of Pixels in Spectrum: 1024
>>>>>Begin Spectral Data<<<<<
801.071	21876
801.214	21846
801.356	21545
801.499	21340
801.641	21272
801.783	21241
801.926	21359
802.068	21214
802.211	21203
802.353	21154
802.496	20868
802.638	20701
802.78	20762
802.923	20636
803.065	20758
803.208	20507
803.35	20507
803.492	20640
803.635	20708
803.777	20659
803.919	20746
804.061	21036
804.204	20678
804.346	20518
804.488	20404
804.63	20556
804.773	20438
804.915	20518
805.057	20716
805.199	20442
805.341	20689
805.483	20507
805.626	20602
805.768	20495
805.91	20579
806.052	20492
806.194	20457
806.336	20648
806.478	20457
806.62	20499
806.762	20549
806.904	20571
807.046	20872
807.188	20895
807.33	20838
807.472	20819
807.614	20731
807.756	20727
807.898	20590
808.04	20530
808.182	20514
808.324	20541
808.465	20621
808.607	20830
808.749	20864
808.891	20982
809.033	21032
809.174	20921
809.316	20826
809.458	20758
809.6	20800
809.741	20845
809.883	20918
810.025	21051
810.166	20971
810.308	20956
810.45	20918
810.591	20895
810.733	20613
810.875	20659
811.016	20465
811.158	20514
811.299	20724
811.441	20830
811.582	20705
811.724	20659
811.865	20545
812.007	20537
812.148	20617
812.29	20598
812.431	20716
812.573	20963
812.714	20990
812.855	21188
812.997	21249
813.138	21355
813.279	21211
813.421	21135
813.562	21032
813.703	20872
813.845	20792
813.986	20476
814.127	20267
814.268	20218
814.41	20263
814.551	20092
814.692	20271
814.833	20088
814.974	20122
815.115	20153
815.256	19989
815.397	19944
815.539	20157
815.68	19989
815.821	19746
815.962	19822
816.103	19898
816.244	19738
816.385	19613
816.526	19635
816.666	19445
816.807	19217
816.948	19293
817.089	19438
817.23	19289
817.371	19247
817.512	19301
817.653	19187
817.793	19221
817.934	19209
818.075	19343
818.216	19240
818.356	19171
818.497	19126
818.638	18928
818.778	19000
818.919	18958
819.06	19061
819.2	19057
819.341	19148
819.481	19114
819.622	19331
819.762	19480
819.903	19480
820.043	19346
820.184	19282
820.324	19346
820.465	19285
820.605	19293
820.746	19270
820.886	19152
821.026	19244
821.167	19282
821.307	19270
821.447	19217
821.588	19171
821.728	18924
821.868	18859
822.008	18753
822.149	18760
822.289	18703
822.429	18509
822.569	18475
822.709	18448
822.849	18201
822.99	18167
823.13	18114
823.27	18197
823.41	18087
823.55	17999
823.69	17965
823.83	18114
823.97	17904
824.11	17771
824.25	17779
824.389	17726
824.529	17783
824.669	17699
824.809	17882
824.949	17851
825.089	17950
825.228	17805
825.368	17699
825.508	17577
825.648	17596
825.787	17630
825.927	17630
826.067	17509
826.206	17509
826.346	17566
826.485	17528
826.625	17566
826.765	17653
826.904	17611
827.044	17414
827.183	17269
827.323	17254
827.462	17429
827.601	17216
827.741	17166
827.88	17200
828.02	17227
828.159	17261
828.298	17227
828.437	17398
828.577	17212
828.716	17307
828.855	17208
828.994	17064
829.134	17064
829.273	17022
829.412	16877
829.551	16991
829.69	17075
829.829	17094
829.968	17132
830.107	17098
830.246	17124
830.385	16915
830.524	16923
830.663	16877
830.802	16797
830.941	16744
831.08	16626
831.219	16759
831.357	16702
831.496	16927
831.635	16622
831.774	16615
831.913	16504
832.051	16371
832.19	16447
832.329	16470
832.467	16325
832.606	16265
832.744	16348
832.883	16344
833.022	16363
833.16	16310
833.299	16447
833.437	16382
833.576	16367
833.714	16402
833.852	16363
833.991	16424
834.129	16459
834.267	16478
834.406	16314
834.544	16348
834.682	16318
834.821	16512
834.959	16641
835.097	16428
835.235	16443
835.373	16489
835.511	16455
835.65	16223
835.788	16344
835.926	16162
836.064	16150
836.202	16150
836.34	16314
836.478	16325
836.615	16303
836.753	16303
836.891	16341
837.029	16356
837.167	16192
837.305	16303
837.443	16204
837.58	16192
837.718	16242
837.856	16124
837.993	16223
838.131	16215
838.269	16048
838.406	16166
838.544	16112
838.681	15960
838.819	15869
838.956	15819
839.094	15831
839.231	15850
839.369	15915
839.506	16185
839.643	16048
839.781	15762
839.918	15751
840.055	15861
840.193	15766
840.33	15701
840.467	15759
840.604	15869
840.742	15873
840.879	15686
841.016	15610
841.153	15614
841.29	15808
841.427	15759
841.564	15747
841.701	15724
841.838	15633
841.975	15648
842.112	15682
842.249	15599
842.385	15378
842.522	15755
842.659	15595
842.796	15511
842.933	15606
843.069	15523
843.206	15431
843.343	15622
843.479	15511
843.616	15603
843.752	15310
843.889	15241
844.025	15374
844.162	15329
844.298	15454
844.435	15321
844.571	15256
844.708	15405
844.844	15519
844.98	15466
845.117	15431
845.253	15332
845.389	15207
845.525	15287
845.661	15272
845.798	15055
845.934	15252
846.07	15138
846.206	15203
846.342	15279
846.478	15150
846.614	14982
846.75	14838
846.886	14902
847.022	15005
847.158	14933
847.294	14857
847.429	14921
847.565	14857
847.701	15119
847.837	14632
847.972	14552
848.108	14868
848.244	14792
848.379	14568
848.515	14473
848.65	14480
848.786	14454
848.921	14518
849.057	14659
849.192	14655
849.328	14583
849.463	14556
849.598	14393
849.734	14374
849.869	14332
850.004	14256
850.14	14275
850.275	14332
850.41	14157
850.545	14294
850.68	14142
850.815	14294
850.95	14218
851.085	14522
851.22	14408
851.355	14355
851.49	14233
851.625	14240
851.76	14256
851.895	14210
852.03	14214
852.165	14290
852.299	14267
852.434	14309
852.569	14332
852.703	14248
852.838	14317
852.973	14495
853.107	14381
853.242	14263
853.376	14248
853.511	14073
853.645	13928
853.78	14164
853.914	14092
854.048	14172
854.183	14020
854.317	14183
854.451	14256
854.585	14092
854.72	14084
854.854	14256
854.988	14103
855.122	14153
855.256	13898
855.39	14142
855.524	14153
855.658	14157
855.792	14107
855.926	14119
856.06	14191
856.194	14248
856.327	14115
856.461	14065
856.595	14081
856.729	14081
856.862	14206
856.996	14157
857.13	14187
857.263	14267
857.397	14252
857.53	14119
857.664	14244
857.797	14218
857.931	14271
858.064	14149
858.197	14252
858.331	14035
858.464	14161
858.597	14142
858.731	14107
858.864	14157
858.997	14191
859.13	14191
859.263	14142
859.396	14221
859.529	14176
859.662	14134
859.795	14065
859.928	14271
860.061	14271
860.194	14412
860.327	14176
860.46	14069
860.592	14187
860.725	14267
860.858	14301
860.99	14206
861.123	14062
861.256	14058
861.388	14130
861.521	14883
861.653	13898
861.786	14001
861.918	13928
862.05	14054
862.183	14081
862.315	14100
862.447	14065
862.58	14092
862.712	13883
862.844	13841
862.976	14020
863.108	13940
863.24	14377
863.372	13879
863.504	13936
863.636	13879
863.768	14005
863.9	13921
864.032	13868
864.164	13951
864.296	13978
864.428	14020
864.559	13997
864.691	14065
864.823	13993
864.954	13997
865.086	13913
865.217	13822
865.349	13852
865.48	13871
865.612	13860
865.743	14073
865.875	13856
866.006	13769
866.137	13997
866.269	13940
866.4	13940
866.531	13887
866.662	13772
866.793	13875
866.924	13826
867.055	13913
867.186	13864
867.317	13818
867.448	13799
867.579	13811
867.71	13822
867.841	13799
867.972	13788
868.103	13879
868.233	13906
868.364	13925
868.495	13959
868.625	14149
868.756	14240
868.886	14043
869.017	13982
869.147	14237
869.278	14214
869.408	14180
869.539	14142
869.669	14157
869.799	14252
869.929	14332
870.06	14180
870.19	14431
870.32	14415
870.45	14590
870.58	14438
870.71	14701
870.84	14674
870.97	14545
871.1	14484
871.23	14720
871.36	14708
871.489	14670
871.619	14708
871.749	14765
871.879	14830
872.008	14861
872.138	14815
872.267	14754
872.397	14556
872.526	14533
872.656	14571
872.785	14499
872.915	14864
873.044	14826
873.173	14800
873.303	14796
873.432	14758
873.561	14921
873.69	14819
873.819	14868
873.948	14883
874.077	14773
874.206	14788
874.335	14804
874.464	15013
874.593	15036
874.722	15055
874.851	15195
874.979	15112
875.108	15173
875.237	15093
875.365	15028
875.494	15043
875.623	15211
875.751	15184
875.88	15108
876.008	15268
876.136	15359
876.265	15576
876.393	15686
876.521	15568
876.65	15656
876.778	15595
876.906	15412
877.034	15447
877.162	15572
877.29	15447
877.418	15515
877.546	15622
877.674	15500
877.802	15618
877.93	15648
878.058	15416
878.185	15462
878.313	15462
878.441	15545
878.568	15355
878.696	15481
878.824	15576
878.951	15545
879.079	15728
879.206	15835
879.333	15694
879.461	15629
879.588	15705
879.715	15701
879.842	15774
879.97	15580
880.097	15397
880.224	15306
880.351	15416
880.478	15397
880.605	15386
880.732	15382
880.859	15625
880.986	15450
881.112	15523
881.239	15367
881.366	15123
881.493	15036
881.619	15066
881.746	15043
881.872	15055
881.999	14914
882.125	14986
882.252	15039
882.378	15127
882.505	15131
882.631	15070
882.757	14781
882.883	14899
883.01	14853
883.136	14769
883.262	14743
883.388	14705
883.514	14880
883.64	14921
883.766	14800
883.892	14663
884.018	14674
884.143	14788
884.269	14925
884.395	14594
884.52	14571
884.646	14568
884.772	14522
884.897	14465
885.023	14549
885.148	14674
885.274	14788
885.399	14594
885.524	14575
885.65	14594
885.775	14602
885.9	14556
886.025	14674
886.15	14640
886.275	14545
886.4	14438
886.525	14606
886.65	14469
886.775	14560
886.9	14636
887.025	14746
887.149	14541
887.274	14469
887.399	14381
887.523	14355
887.648	14355
887.773	14332
887.897	14537
888.021	14404
888.146	14259
888.27	14545
888.395	14514
888.519	14438
888.643	14533
888.767	14469
888.891	14381
889.015	14248
889.139	14275
889.263	14229
889.387	14366
889.511	14587
889.635	14499
889.759	14237
889.883	14229
890.006	14305
890.13	14366
890.254	14237
890.377	14259
890.501	14115
890.624	13997
890.748	14081
890.871	14069
890.995	13989
891.118	13788
891.241	13944
891.364	13932
891.488	14031
891.611	14069
891.734	13959
891.857	13974
891.98	14005
892.103	14115
892.226	14039
892.349	13982
892.471	13814
892.594	14043
892.717	14035
892.839	13982
892.962	14005
893.085	14065
893.207	13928
893.33	13887
893.452	13947
893.575	14096
893.697	14001
893.819	14149
893.941	14199
894.064	14130
894.186	13890
894.308	14020
894.43	14134
894.552	14172
894.674	14172
894.796	14016
894.918	14005
895.04	13967
895.161	14107
895.283	14164
895.405	14046
895.526	14202
895.648	14187
895.769	14100
895.891	14153
896.012	14187
896.134	14206
896.255	14233
896.376	14062
896.498	14183
896.619	14168
896.74	14202
896.861	14153
896.982	14469
897.103	14594
897.224	14404
897.345	14427
897.466	14290
897.587	14427
897.708	14499
897.828	14499
897.949	14366
898.07	14324
898.19	14328
898.311	14564
898.431	14408
898.552	14381
898.672	14583
898.792	14613
898.913	14526
899.033	14358
899.153	14320
899.273	14248
899.393	14294
899.513	14332
899.633	14358
899.753	14324
899.873	14374
899.993	14374
900.113	14362
900.232	14381
900.352	14381
900.472	14347
900.591	14191
900.711	14214
900.83	14100
900.95	14358
901.069	14324
901.189	14157
901.308	13913
901.427	13833
901.546	13902
901.665	13845
901.784	13970
901.904	13708
902.023	13761
902.141	13575
902.26	13502
902.379	13556
902.498	13441
902.617	13457
902.735	13411
902.854	13419
902.973	13282
903.091	13232
903.21	13160
903.328	13217
903.446	13129
903.565	13038
903.683	13057
903.801	12943
903.919	12981
904.038	13046
904.156	12867
904.274	12939
904.392	12852
904.51	12833
904.627	12829
904.745	12829
904.863	12848
904.981	12753
905.098	12540
905.216	12509
905.334	12536
905.451	12559
905.569	12578
905.686	12483
905.803	12608
905.921	12407
906.038	12429
906.155	12365
906.272	12220
906.389	12308
906.506	12205
906.623	12201
906.74	12125
906.857	12045
906.974	12041
907.091	12175
907.208	12247
907.324	12140
907.441	12019
907.557	11912
907.674	11939
907.79	11802
907.907	11866
908.023	11863
908.139	11920
908.256	11786
908.372	11775
908.488	11741
908.604	11726
908.72	11581
908.836	11634
908.952	11600
909.068	11604
909.184	11840
909.3	11627
909.415	11752
909.531	11661
909.647	11486
909.762	11440
909.878	11353
909.993	11482
910.108	11398
910.224	11425
910.339	11440
910.454	11421
910.57	11273
910.685	11132
910.8	11425
910.915	11436
911.03	11299
911.145	11216
911.259	11132
911.374	11124
911.489	11060
911.604	11022
911.718	10892
911.833	10953
911.947	10797
912.062	10664
912.176	10812
912.291	10885
912.405	10828
912.519	11060
912.633	10961
912.748	11041
912.862	10869
912.976	10744
913.09	10645
913.204	10702
913.318	10778
913.431	10843
913.545	10812
913.659	10869
913.772	10702
913.886	10592
914	10672
914.113	10714
914.226	10759
914.34	10744
914.453	10580
914.566	10725
914.68	10634
914.793	10664
914.906	10341
915.019	10375
915.132	10314
915.245	10341
915.358	10424
915.47	10440
915.583	10424
915.696	10417
915.809	10588
915.921	10546
916.034	10432
916.146	10295
916.259	10344
916.371	10447
916.483	10360
916.595	10314
916.708	10337
916.82	10344
916.932	10337
917.044	10348
917.156	10287
917.268	10086
917.38	10223
917.491	10147
917.603	10287
917.715	10280
917.826	10268
917.938	10147
918.049	10082
918.161	10166
918.272	10428
918.384	10276
918.495	10242
918.606	10063
918.717	10067
918.828	10093
918.939	10071
919.05	10021
919.161	10128
919.272	9907
919.383	9998
919.494	10287
919.604	10333
919.715	10093
919.826	10078
919.936	10131
920.047	10158
920.157	10154
920.267	10356
920.378	10211
920.488	10109
920.598	10295
920.708	10447
920.818	10367
920.928	10379
921.038	10443
921.148	10421
921.258	10158
921.368	10067
921.477	9987
921.587	9968
921.697	9911
921.806	10010
921.916	9842
922.025	9694
922.134	9648
922.244	9686
922.353	9637
922.462	9557
922.571	9492
922.68	9450
922.789	9363
922.898	9408
923.007	9313
923.116	9420
923.224	9382
923.333	9374
923.442	9291
923.55	9249
923.659	9329
923.767	9268
923.876	9253
923.984	9283
924.092	9169
924.201	9253
924.309	9211
924.417	9268
924.525	9241
924.633	9226
924.741	9937
924.849	9017
924.956	9173
925.064	9017
925.172	8994
925.279	9017
925.387	9097
925.494	9077
925.602	9173
925.709	9180
925.816	9039
925.924	9093
926.031	9119
926.138	9062
926.245	9039
926.352	8975
926.459	9077
926.566	9150
926.673	9039
926.779	8925
926.886	8902
926.993	8731
927.099	8735
927.206	8686
927.312	8613
927.419	8861
927.525	8773
927.631	8838
927.737	8651
927.843	8655
927.95	8549
928.056	8712
928.162	8659
928.267	8720
928.373	9222
928.479	8655
928.585	8476
928.69	8594
928.796	8670
928.901	8610
929.007	8385
929.112	8564
929.218	8617
929.323	8461
929.428	8492
929.533	8587
929.638	8488
929.743	8480
929.848	8465
929.953	8423
930.058	8347
930.163	8168
930.267	8309
930.372	8419
930.477	8275
930.581	8370
930.685	8381
930.79	8191
930.894	8240
930.998	8130
931.103	8328
931.207	7944
931.311	7906
931.415	7864
931.519	7696
931.623	7727
