Data from test_V78500241_952.txt Node
Date: Fri Mar 25 14:40:20 CST 2022
User: usil
Spectrometer: V785-0024
Trigger mode: 0
Integration Time (sec): 4.000000E-1
Scans to average: 1
Nonlinearity correction enabled: false
Boxcar width: 0
Storing dark spectrum: false
XAxis mode: Wavelengths
Number of Pixels in Spectrum: 1024
>>>>>Begin Spectral Data<<<<<
801.071	23684
801.214	23535
801.356	23299
801.499	23170
801.641	23083
801.783	22965
801.926	23090
802.068	22911
802.211	22816
802.353	22588
802.496	22611
802.638	22489
802.78	22409
802.923	22253
803.065	22276
803.208	22280
803.35	22268
803.492	22466
803.635	22443
803.777	22337
803.919	22394
804.061	22702
804.204	22371
804.346	22276
804.488	22185
804.63	22310
804.773	22223
804.915	22181
805.057	22413
805.199	22291
805.341	22379
805.483	22447
805.626	22314
805.768	22333
805.91	22402
806.052	22398
806.194	22318
806.336	22504
806.478	22310
806.62	22508
806.762	22577
806.904	22691
807.046	22946
807.188	22778
807.33	23056
807.472	23056
807.614	23018
807.756	23174
807.898	23204
808.04	23216
808.182	23353
808.324	23627
808.465	23984
808.607	24490
808.749	24844
808.891	24977
809.033	25110
809.174	24924
809.316	24426
809.458	24117
809.6	23904
809.741	23512
809.883	23501
810.025	23376
810.166	23322
810.308	23254
810.45	22987
810.591	23098
810.733	22930
810.875	22733
811.016	22538
811.158	22641
811.299	22729
811.441	22748
811.582	22729
811.724	22592
811.865	22443
812.007	22618
812.148	22462
812.29	22634
812.431	22672
812.573	22835
812.714	23029
812.855	23022
812.997	23064
813.138	23227
813.279	23102
813.421	23102
813.562	22934
813.703	22790
813.845	22687
813.986	22409
814.127	22242
814.268	22154
814.41	22166
814.551	22105
814.692	22139
814.833	21994
814.974	21991
815.115	22097
815.256	21846
815.397	21895
815.539	21937
815.68	21850
815.821	21701
815.962	21800
816.103	21781
816.244	21660
816.385	21599
816.526	21473
816.666	21344
816.807	21195
816.948	21252
817.089	21340
817.23	21340
817.371	21241
817.512	21207
817.653	21222
817.793	21089
817.934	21279
818.075	21146
818.216	21222
818.356	21146
818.497	21055
818.638	20864
818.778	20830
818.919	20883
819.06	21043
819.2	21161
819.341	21024
819.481	21005
819.622	21146
819.762	21523
819.903	21298
820.043	21272
820.184	21237
820.324	21104
820.465	21188
820.605	21157
820.746	21146
820.886	21039
821.026	21047
821.167	21085
821.307	21199
821.447	21081
821.588	20956
821.728	20731
821.868	20731
822.008	20564
822.149	20560
822.289	20408
822.429	20301
822.569	20275
822.709	20218
822.849	19970
822.99	19955
823.13	20016
823.27	19917
823.41	19803
823.55	19727
823.69	19822
823.83	19746
823.97	19670
824.11	19734
824.25	19620
824.389	19651
824.529	19613
824.669	19533
824.809	19788
824.949	19696
825.089	19753
825.228	19662
825.368	19457
825.508	19415
825.648	19468
825.787	19373
825.927	19415
826.067	19263
826.206	19373
826.346	19575
826.485	19377
826.625	19263
826.765	19411
826.904	19438
827.044	19069
827.183	19202
827.323	19053
827.462	19076
827.601	19148
827.741	19053
827.88	19107
828.02	19015
828.159	18954
828.298	19057
828.437	19076
828.577	19046
828.716	19137
828.855	18943
828.994	18817
829.134	18787
829.273	18863
829.412	18787
829.551	18639
829.69	18730
829.829	18639
829.968	18749
830.107	18787
830.246	18791
830.385	18730
830.524	18665
830.663	18684
830.802	18456
830.941	18479
831.08	18395
831.219	18528
831.357	18544
831.496	18559
831.635	18429
831.774	18330
831.913	18334
832.051	18190
832.19	18201
832.329	18186
832.467	18114
832.606	18068
832.744	18091
832.883	18148
833.022	18011
833.16	18026
833.299	18216
833.437	18144
833.576	18273
833.714	18159
833.852	18205
833.991	18281
834.129	18315
834.267	18224
834.406	18167
834.544	18300
834.682	18186
834.821	18102
834.959	18311
835.097	18076
835.235	18251
835.373	18129
835.511	18117
835.65	18011
835.788	18060
835.926	17855
836.064	17699
836.202	17893
836.34	18140
836.478	18106
836.615	18007
836.753	18022
836.891	18026
837.029	18144
837.167	17946
837.305	17973
837.443	17927
837.58	17771
837.718	17889
837.856	17760
837.993	17794
838.131	17813
838.269	17748
838.406	17756
838.544	17665
838.681	17627
838.819	17467
838.956	17341
839.094	17353
839.231	17421
839.369	17539
839.506	17653
839.643	17589
839.781	17242
839.918	17265
840.055	17429
840.193	17315
840.33	17239
840.467	17315
840.604	17429
840.742	17436
840.879	17269
841.016	17200
841.153	17269
841.29	17448
841.427	17299
841.564	17349
841.701	17376
841.838	17284
841.975	17337
842.112	17140
842.249	17067
842.385	17010
842.522	17216
842.659	17159
842.796	17094
842.933	17056
843.069	17056
843.206	16984
843.343	17193
843.479	17075
843.616	17124
843.752	16930
843.889	16904
844.025	16968
844.162	16881
844.298	16923
844.435	16942
844.571	16854
844.708	17079
844.844	17223
844.98	17174
845.117	17151
845.253	17307
845.389	17197
845.525	17509
845.661	17992
845.798	18612
845.934	19198
846.07	19403
846.206	19362
846.342	18981
846.478	18243
846.614	17566
846.75	16965
846.886	16786
847.022	16843
847.158	16664
847.294	16500
847.429	16531
847.565	16405
847.701	16672
847.837	16253
847.972	16230
848.108	16284
848.244	16306
848.379	16116
848.515	16040
848.65	16002
848.786	15975
848.921	16055
849.057	16086
849.192	16078
849.328	16059
849.463	15934
849.598	15934
849.734	15937
849.869	15819
850.004	15770
850.14	15785
850.275	15842
850.41	15610
850.545	15694
850.68	15637
850.815	15622
850.95	15751
851.085	15888
851.22	15922
851.355	15835
851.49	15728
851.625	15679
851.76	15789
851.895	15660
852.03	15618
852.165	15755
852.299	15800
852.434	15838
852.569	15812
852.703	15861
852.838	15819
852.973	15827
853.107	15907
853.242	15652
853.376	15667
853.511	15443
853.645	15614
853.78	15846
853.914	15679
854.048	15549
854.183	15652
854.317	15675
854.451	15861
854.585	15580
854.72	15515
854.854	15701
854.988	15538
855.122	15660
855.256	15435
855.39	15553
855.524	15724
855.658	15568
855.792	15652
855.926	15660
856.06	15717
856.194	15724
856.327	15633
856.461	15542
856.595	15538
856.729	15580
856.862	15709
856.996	15614
857.13	15739
857.263	15713
857.397	15713
857.53	15526
857.664	15671
857.797	15629
857.931	15774
858.064	15603
858.197	15713
858.331	15557
858.464	15549
858.597	15462
858.731	15469
858.864	15496
858.997	15652
859.13	15606
859.263	15644
859.396	15728
859.529	15606
859.662	15515
859.795	15534
859.928	15568
860.061	15732
860.194	15778
860.327	15549
860.46	15519
860.592	15644
860.725	15831
860.858	15637
860.99	15637
861.123	15538
861.256	15591
861.388	15622
861.521	16162
861.653	15439
861.786	15462
861.918	15450
862.05	15511
862.183	15564
862.315	15606
862.447	15580
862.58	15481
862.712	15329
862.844	15374
862.976	15401
863.108	15401
863.24	15857
863.372	15325
863.504	15431
863.636	15287
863.768	15382
863.9	15370
864.032	15298
864.164	15249
864.296	15397
864.428	15458
864.559	15382
864.691	15507
864.823	15340
864.954	15447
865.086	15348
865.217	15393
865.349	15241
865.48	15249
865.612	15275
865.743	15416
865.875	15370
866.006	15138
866.137	15431
866.269	15317
866.4	15207
866.531	15359
866.662	15245
866.793	15249
866.924	15298
867.055	15351
867.186	15184
867.317	15207
867.448	15180
867.579	15199
867.71	15222
867.841	15074
867.972	15287
868.103	15214
868.233	15401
868.364	15294
868.495	15355
868.625	15473
868.756	15595
868.886	15561
869.017	15477
869.147	15629
869.278	15595
869.408	15507
869.539	15572
869.669	15663
869.799	15606
869.929	15720
870.06	15644
870.19	15884
870.32	15808
870.45	15838
870.58	15918
870.71	16006
870.84	16025
870.97	15945
871.1	15907
871.23	16044
871.36	16013
871.489	16059
871.619	16112
871.749	16109
871.879	16207
872.008	16234
872.138	16192
872.267	16196
872.397	16010
872.526	15937
872.656	15956
872.785	15983
872.915	16219
873.044	16211
873.173	16196
873.303	16101
873.432	16291
873.561	16325
873.69	16162
873.819	16192
873.948	16196
874.077	16249
874.206	16196
874.335	16284
874.464	16382
874.593	16504
874.722	16497
874.851	16542
874.979	16402
875.108	16664
875.237	16607
875.365	16493
875.494	16580
875.623	16675
875.751	16546
875.88	16527
876.008	16672
876.136	16854
876.265	16938
876.393	17174
876.521	16984
876.65	17079
876.778	17022
876.906	16999
877.034	16961
877.162	16946
877.29	17003
877.418	16881
877.546	17060
877.674	17022
877.802	17113
877.93	17071
878.058	17025
878.185	16987
878.313	17170
878.441	17136
878.568	17102
878.696	17315
878.824	17318
878.951	17512
879.079	17668
879.206	18053
879.333	18114
879.461	18182
879.588	18407
879.715	18441
879.842	18361
879.97	18091
880.097	17699
880.224	17436
880.351	17429
880.478	17364
880.605	17227
880.732	17235
880.859	17402
880.986	17235
881.112	17292
881.239	17102
881.366	16713
881.493	16771
881.619	16687
881.746	16805
881.872	16790
881.999	16839
882.125	16740
882.252	16801
882.378	16824
882.505	16877
882.631	16664
882.757	16641
882.883	16679
883.01	16504
883.136	16493
883.262	16508
883.388	16508
883.514	16634
883.64	16725
883.766	16561
883.892	16405
884.018	16417
884.143	16573
884.269	16649
884.395	16344
884.52	16185
884.646	16325
884.772	16238
884.897	16207
885.023	16344
885.148	16329
885.274	16367
885.399	16318
885.524	16257
885.65	16192
885.775	16261
885.9	16234
886.025	16329
886.15	16375
886.275	16139
886.4	15987
886.525	16128
886.65	16131
886.775	16101
886.9	16207
887.025	16360
887.149	16177
887.274	15918
887.399	15968
887.523	15983
887.648	15797
887.773	15831
887.897	15964
888.021	16017
888.146	15816
888.27	16017
888.395	15998
888.519	15972
888.643	15926
888.767	15895
888.891	15827
889.015	15682
889.139	15717
889.263	15793
889.387	15778
889.511	15842
889.635	15800
889.759	15675
889.883	15671
890.006	15603
890.13	15724
890.254	15652
890.377	15671
890.501	15530
890.624	15416
890.748	15504
890.871	15351
890.995	15321
891.118	15226
891.241	15336
891.364	15397
891.488	15450
891.611	15321
891.734	15389
891.857	15287
891.98	15348
892.103	15408
892.226	15321
892.349	15211
892.471	15119
892.594	15237
892.717	15355
892.839	15325
892.962	15310
893.085	15382
893.207	15386
893.33	15138
893.452	15184
893.575	15256
893.697	15195
893.819	15507
893.941	15492
894.064	15397
894.186	15233
894.308	15317
894.43	15359
894.552	15454
894.674	15367
894.796	15173
894.918	15325
895.04	15233
895.161	15264
895.283	15363
895.405	15275
895.526	15386
895.648	15283
895.769	15317
895.891	15420
896.012	15466
896.134	15405
896.255	15367
896.376	15382
896.498	15408
896.619	15435
896.74	15416
896.861	15477
896.982	15747
897.103	15808
897.224	15713
897.345	15606
897.466	15679
897.587	15584
897.708	15660
897.828	15686
897.949	15671
898.07	15447
898.19	15591
898.311	15819
898.431	15648
898.552	15759
898.672	15789
898.792	15747
898.913	15690
899.033	15694
899.153	15587
899.273	15530
899.393	15591
899.513	15584
899.633	15576
899.753	15606
899.873	15519
899.993	15625
900.113	15485
900.232	15591
900.352	15564
900.472	15515
900.591	15401
900.711	15488
900.83	15424
900.95	15564
901.069	15504
901.189	15416
901.308	15165
901.427	15184
901.546	15093
901.665	15093
901.784	15157
901.904	15032
902.023	14891
902.141	14735
902.26	14667
902.379	14693
902.498	14602
902.617	14552
902.735	14606
902.854	14617
902.973	14526
903.091	14332
903.21	14374
903.328	14404
903.446	14256
903.565	14119
903.683	14225
903.801	14107
903.919	14172
904.038	14157
904.156	13936
904.274	14027
904.392	13978
904.51	13940
904.627	13997
904.745	14027
904.863	13982
904.981	13784
905.098	13693
905.216	13597
905.334	13693
905.451	13552
905.569	13624
905.686	13708
905.803	13643
905.921	13392
906.038	13548
906.155	13453
906.272	13335
906.389	13301
906.506	13099
906.623	13312
906.74	13171
906.857	13149
906.974	13019
907.091	13213
907.208	13259
907.324	13278
907.441	13133
907.557	12928
907.674	12878
907.79	12825
907.907	12916
908.023	12909
908.139	12821
908.256	12935
908.372	12848
908.488	12840
908.604	12715
908.72	12669
908.836	12597
908.952	12631
909.068	12692
909.184	12738
909.3	12658
909.415	12662
909.531	12616
909.647	12486
909.762	12464
909.878	12258
909.993	12300
910.108	12445
910.224	12350
910.339	12441
910.454	12327
910.57	12281
910.685	12190
910.8	12563
910.915	12502
911.03	12289
911.145	12110
911.259	12076
911.374	12178
911.489	12038
911.604	11874
911.718	11893
911.833	11805
911.947	11676
912.062	11630
912.176	11745
912.291	11851
912.405	11729
912.519	12117
912.633	12011
912.748	11965
912.862	11889
912.976	11745
913.09	11570
913.204	11642
913.318	11737
913.431	11752
913.545	11737
913.659	11714
913.772	11710
913.886	11661
914	11520
914.113	11665
914.226	11649
914.34	11592
914.453	11512
914.566	11634
914.68	11474
914.793	11395
914.906	11288
915.019	11356
915.132	11174
915.245	11269
915.358	11318
915.47	11322
915.583	11235
915.696	11269
915.809	11463
915.921	11402
916.034	11303
916.146	11242
916.259	11204
916.371	11414
916.483	11242
916.595	11201
916.708	11181
916.82	11277
916.932	11174
917.044	11204
917.156	11102
917.268	11098
917.38	11090
917.491	11124
917.603	11124
917.715	11132
917.826	11170
917.938	11121
918.049	10984
918.161	11067
918.272	11216
918.384	11235
918.495	11079
918.606	10889
918.717	10885
918.828	11003
918.939	11033
919.05	10816
919.161	10927
919.272	10763
919.383	10797
919.494	11075
919.604	11117
919.715	10949
919.826	10854
919.936	10900
920.047	11029
920.157	10957
920.267	11048
920.378	10991
920.488	10866
920.598	11109
920.708	11326
920.818	11094
920.928	11132
921.038	11178
921.148	11250
921.258	11037
921.368	10835
921.477	10782
921.587	10752
921.697	10679
921.806	10824
921.916	10607
922.025	10516
922.134	10436
922.244	10451
922.353	10481
922.462	10409
922.571	10390
922.68	10169
922.789	10090
922.898	10207
923.007	10135
923.116	10166
923.224	10059
923.333	10128
923.442	10059
923.55	9994
923.659	9975
923.767	10059
923.876	9964
923.984	10101
924.092	9915
924.201	9998
924.309	9979
924.417	10040
924.525	9975
924.633	9869
924.741	10660
924.849	9751
924.956	9991
925.064	9755
925.172	9743
925.279	9766
925.387	9778
925.494	9762
925.602	9895
925.709	9774
925.816	9694
925.924	9717
926.031	9846
926.138	9766
926.245	9846
926.352	9675
926.459	9865
926.566	9842
926.673	9686
926.779	9610
926.886	9584
926.993	9507
927.099	9511
927.206	9416
927.312	9405
927.419	9504
927.525	9511
927.631	9576
927.737	9393
927.843	9317
927.95	9287
928.056	9287
928.162	9344
928.267	9420
928.373	9915
928.479	9450
928.585	9249
928.69	9245
928.796	9355
928.901	9310
929.007	9169
929.112	9230
929.218	9256
929.323	9176
929.428	9165
929.533	9256
929.638	9138
929.743	9142
929.848	9222
929.953	9127
930.058	9017
930.163	8868
930.267	8960
930.372	9066
930.477	8910
930.581	9116
930.685	9074
930.79	8815
930.894	8864
930.998	8895
931.103	8994
931.207	8545
931.311	8511
931.415	8533
931.519	8313
931.623	8294
