Data from test_V78500241_2397.txt Node
Date: Fri Mar 25 14:50:24 CST 2022
User: usil
Spectrometer: V785-0024
Trigger mode: 0
Integration Time (sec): 4.000000E-1
Scans to average: 1
Nonlinearity correction enabled: false
Boxcar width: 0
Storing dark spectrum: false
XAxis mode: Wavelengths
Number of Pixels in Spectrum: 1024
>>>>>Begin Spectral Data<<<<<
801.071	22082
801.214	21964
801.356	21679
801.499	21618
801.641	21606
801.783	21458
801.926	21523
802.068	21397
802.211	21291
802.353	21298
802.496	21055
802.638	20933
802.78	20891
802.923	20861
803.065	20735
803.208	20781
803.35	20849
803.492	20845
803.635	21020
803.777	20754
803.919	20834
804.061	21279
804.204	20830
804.346	20739
804.488	20651
804.63	20823
804.773	20735
804.915	20712
805.057	20864
805.199	20788
805.341	20727
805.483	20857
805.626	20952
805.768	20689
805.91	20765
806.052	20792
806.194	20549
806.336	20960
806.478	20621
806.62	20834
806.762	20762
806.904	20971
807.046	21142
807.188	21188
807.33	20982
807.472	21116
807.614	21039
807.756	21051
807.898	20842
808.04	20678
808.182	20807
808.324	20788
808.465	20857
808.607	21195
808.749	21047
808.891	21199
809.033	21233
809.174	21161
809.316	21017
809.458	21085
809.6	21074
809.741	21169
809.883	21207
810.025	21226
810.166	21291
810.308	21131
810.45	21249
810.591	21123
810.733	21036
810.875	20914
811.016	20773
811.158	20830
811.299	20906
811.441	21062
811.582	20979
811.724	20979
811.865	20861
812.007	20902
812.148	20880
812.29	20887
812.431	21017
812.573	21180
812.714	21355
812.855	21389
812.997	21595
813.138	21538
813.279	21477
813.421	21393
813.562	21325
813.703	21135
813.845	21051
813.986	20823
814.127	20564
814.268	20450
814.41	20446
814.551	20446
814.692	20564
814.833	20377
814.974	20313
815.115	20476
815.256	20221
815.397	20278
815.539	20271
815.68	20172
815.821	20103
815.962	20199
816.103	20161
816.244	20088
816.385	19890
816.526	19887
816.666	19845
816.807	19620
816.948	19655
817.089	19784
817.23	19556
817.371	19571
817.512	19578
817.653	19552
817.793	19506
817.934	19491
818.075	19563
818.216	19548
818.356	19537
818.497	19339
818.638	19293
818.778	19270
818.919	19099
819.06	19358
819.2	19346
819.341	19483
819.481	19529
819.622	19601
819.762	19769
819.903	19674
820.043	19624
820.184	19506
820.324	19468
820.465	19635
820.605	19514
820.746	19571
820.886	19285
821.026	19506
821.167	19419
821.307	19483
821.447	19537
821.588	19388
821.728	19343
821.868	19076
822.008	18878
822.149	18932
822.289	18951
822.429	18616
822.569	18635
822.709	18623
822.849	18509
822.99	18418
823.13	18372
823.27	18388
823.41	18254
823.55	18247
823.69	18308
823.83	18258
823.97	18117
824.11	18064
824.25	17992
824.389	18136
824.529	18121
824.669	17999
824.809	18049
824.949	18171
825.089	18186
825.228	17874
825.368	17859
825.508	17775
825.648	17836
825.787	17843
825.927	17805
826.067	17695
826.206	17737
826.346	17809
826.485	17771
826.625	17737
826.765	17855
826.904	17813
827.044	17516
827.183	17547
827.323	17467
827.462	17585
827.601	17520
827.741	17539
827.88	17566
828.02	17296
828.159	17395
828.298	17543
828.437	17436
828.577	17368
828.716	17680
828.855	17425
828.994	17254
829.134	17220
829.273	17261
829.412	17136
829.551	17121
829.69	17200
829.829	17151
829.968	17284
830.107	17326
830.246	17166
830.385	17159
830.524	17117
830.663	17121
830.802	16938
830.941	16786
831.08	16774
831.219	16828
831.357	16828
831.496	17022
831.635	16847
831.774	16626
831.913	16706
832.051	16577
832.19	16462
832.329	16641
832.467	16519
832.606	16394
832.744	16508
832.883	16481
833.022	16504
833.16	16569
833.299	16542
833.437	16478
833.576	16497
833.714	16504
833.852	16596
833.991	16611
834.129	16634
834.267	16592
834.406	16653
834.544	16599
834.682	16603
834.821	16618
834.959	16771
835.097	16535
835.235	16596
835.373	16607
835.511	16535
835.65	16481
835.788	16405
835.926	16394
836.064	16253
836.202	16226
836.34	16402
836.478	16592
836.615	16459
836.753	16413
836.891	16500
837.029	16554
837.167	16280
837.305	16417
837.443	16322
837.58	16299
837.718	16375
837.856	16337
837.993	16303
838.131	16344
838.269	16211
838.406	16265
838.544	16272
838.681	16048
838.819	16032
838.956	15953
839.094	15857
839.231	15915
839.369	16044
839.506	16215
839.643	16124
839.781	15941
839.918	15857
840.055	15873
840.193	15960
840.33	15884
840.467	15793
840.604	15838
840.742	16105
840.879	15800
841.016	15854
841.153	15785
841.29	15865
841.427	15876
841.564	15941
841.701	15842
841.838	15819
841.975	15831
842.112	15838
842.249	15709
842.385	15728
842.522	15835
842.659	15625
842.796	15610
842.933	15690
843.069	15644
843.206	15610
843.343	15724
843.479	15690
843.616	15656
843.752	15466
843.889	15393
844.025	15580
844.162	15439
844.298	15637
844.435	15466
844.571	15359
844.708	15473
844.844	15641
844.98	15534
845.117	15477
845.253	15458
845.389	15462
845.525	15348
845.661	15374
845.798	15359
845.934	15233
846.07	15169
846.206	15386
846.342	15317
846.478	15264
846.614	15100
846.75	14994
846.886	14933
847.022	15085
847.158	14986
847.294	15043
847.429	15032
847.565	14990
847.701	15256
847.837	14861
847.972	14583
848.108	14941
848.244	14785
848.379	14712
848.515	14610
848.65	14610
848.786	14689
848.921	14678
849.057	14743
849.192	14655
849.328	14682
849.463	14667
849.598	14465
849.734	14488
849.869	14454
850.004	14427
850.14	14332
850.275	14454
850.41	14358
850.545	14339
850.68	14385
850.815	14381
850.95	14366
851.085	14461
851.22	14461
851.355	14377
851.49	14408
851.625	14377
851.76	14362
851.895	14298
852.03	14290
852.165	14355
852.299	14495
852.434	14594
852.569	14442
852.703	14450
852.838	14518
852.973	14590
853.107	14533
853.242	14328
853.376	14271
853.511	14248
853.645	14172
853.78	14290
853.914	14294
854.048	14176
854.183	14191
854.317	14294
854.451	14438
854.585	14225
854.72	14214
854.854	14267
854.988	14176
855.122	14244
855.256	14046
855.39	14180
855.524	14400
855.658	14259
855.792	14301
855.926	14286
856.06	14271
856.194	14298
856.327	14221
856.461	14187
856.595	14313
856.729	14301
856.862	14298
856.996	14294
857.13	14343
857.263	14347
857.397	14438
857.53	14298
857.664	14362
857.797	14294
857.931	14377
858.064	14259
858.197	14320
858.331	14221
858.464	14237
858.597	14142
858.731	14214
858.864	14187
858.997	14176
859.13	14271
859.263	14286
859.396	14343
859.529	14210
859.662	14221
859.795	14294
859.928	14332
860.061	14423
860.194	14396
860.327	14320
860.46	14187
860.592	14332
860.725	14347
860.858	14366
860.99	14317
861.123	14123
861.256	14172
861.388	14202
861.521	14880
861.653	14191
861.786	14050
861.918	14134
862.05	14157
862.183	14298
862.315	14298
862.447	14275
862.58	14275
862.712	14039
862.844	13955
862.976	14054
863.108	14046
863.24	14351
863.372	13974
863.504	14092
863.636	14138
863.768	14046
863.9	14005
864.032	13879
864.164	14065
864.296	14058
864.428	14180
864.559	14058
864.691	14111
864.823	14180
864.954	14081
865.086	14062
865.217	14058
865.349	14016
865.48	14081
865.612	14050
865.743	14275
865.875	13982
866.006	13967
866.137	14001
866.269	14065
866.4	14039
866.531	14001
866.662	13883
866.793	13970
866.924	13944
867.055	14005
867.186	14001
867.317	14001
867.448	13890
867.579	13940
867.71	13925
867.841	13875
867.972	13871
868.103	14134
868.233	14073
868.364	14046
868.495	14096
868.625	14244
868.756	14358
868.886	14206
869.017	14339
869.147	14248
869.278	14377
869.408	14271
869.539	14309
869.669	14366
869.799	14351
869.929	14408
870.06	14351
870.19	14533
870.32	14537
870.45	14648
870.58	14678
870.71	14785
870.84	14758
870.97	14659
871.1	14663
871.23	14914
871.36	14906
871.489	14754
871.619	14785
871.749	14891
871.879	14921
872.008	14838
872.138	14857
872.267	14838
872.397	14686
872.526	14788
872.656	14663
872.785	14815
872.915	14929
873.044	14956
873.173	14948
873.303	14857
873.432	14902
873.561	14914
873.69	14910
873.819	14967
873.948	14902
874.077	14883
874.206	14956
874.335	15058
874.464	15127
874.593	15150
874.722	15161
874.851	15306
874.979	15233
875.108	15355
875.237	15108
875.365	15211
875.494	15150
875.623	15329
875.751	15161
875.88	15249
876.008	15355
876.136	15504
876.265	15641
876.393	15766
876.521	15797
876.65	15663
876.778	15663
876.906	15454
877.034	15542
877.162	15614
877.29	15629
877.418	15572
877.546	15717
877.674	15584
877.802	15667
877.93	15720
878.058	15568
878.185	15545
878.313	15557
878.441	15622
878.568	15492
878.696	15511
878.824	15675
878.951	15728
879.079	15831
879.206	15968
879.333	15884
879.461	15739
879.588	15808
879.715	15808
879.842	15911
879.97	15739
880.097	15538
880.224	15500
880.351	15534
880.478	15507
880.605	15530
880.732	15424
880.859	15724
880.986	15485
881.112	15530
881.239	15500
881.366	15310
881.493	15192
881.619	15131
881.746	15165
881.872	15085
881.999	15161
882.125	15127
882.252	15077
882.378	15397
882.505	15340
882.631	15146
882.757	14933
882.883	15013
883.01	15074
883.136	14941
883.262	14887
883.388	14796
883.514	15020
883.64	15104
883.766	15058
883.892	14781
884.018	14849
884.143	14891
884.269	14990
884.395	14777
884.52	14659
884.646	14640
884.772	14621
884.897	14545
885.023	14655
885.148	14754
885.274	14807
885.399	14743
885.524	14674
885.65	14735
885.775	14754
885.9	14682
886.025	14796
886.15	14796
886.275	14617
886.4	14598
886.525	14659
886.65	14606
886.775	14632
886.9	14735
887.025	14868
887.149	14659
887.274	14495
887.399	14454
887.523	14507
887.648	14446
887.773	14431
887.897	14568
888.021	14682
888.146	14492
888.27	14625
888.395	14602
888.519	14549
888.643	14556
888.767	14575
888.891	14511
889.015	14412
889.139	14400
889.263	14358
889.387	14454
889.511	14541
889.635	14423
889.759	14339
889.883	14431
890.006	14347
890.13	14374
890.254	14347
890.377	14317
890.501	14153
890.624	14119
890.748	14282
890.871	14081
890.995	14126
891.118	14050
891.241	13978
891.364	14039
891.488	14130
891.611	14065
891.734	14050
891.857	14206
891.98	14103
892.103	14100
892.226	14153
892.349	14153
892.471	13944
892.594	14119
892.717	14107
892.839	14111
892.962	14115
893.085	14134
893.207	14084
893.33	13989
893.452	13955
893.575	14164
893.697	14100
893.819	14210
893.941	14240
894.064	14187
894.186	14115
894.308	13932
894.43	14115
894.552	14259
894.674	14233
894.796	14107
894.918	14187
895.04	14153
895.161	14126
895.283	14183
895.405	14145
895.526	14183
895.648	14164
895.769	14195
895.891	14282
896.012	14187
896.134	14343
896.255	14180
896.376	14218
896.498	14221
896.619	14256
896.74	14244
896.861	14248
896.982	14568
897.103	14724
897.224	14549
897.345	14564
897.466	14408
897.587	14564
897.708	14606
897.828	14617
897.949	14507
898.07	14393
898.19	14431
898.311	14705
898.431	14518
898.552	14579
898.672	14708
898.792	14674
898.913	14613
899.033	14518
899.153	14328
899.273	14339
899.393	14476
899.513	14492
899.633	14446
899.753	14552
899.873	14408
899.993	14454
900.113	14476
900.232	14480
900.352	14476
900.472	14324
900.591	14256
900.711	14328
900.83	14263
900.95	14328
901.069	14450
901.189	14275
901.308	14031
901.427	13940
901.546	14027
901.665	14001
901.784	14039
901.904	13837
902.023	13811
902.141	13624
902.26	13506
902.379	13594
902.498	13506
902.617	13464
902.735	13552
902.854	13552
902.973	13476
903.091	13308
903.21	13289
903.328	13285
903.446	13217
903.565	13171
903.683	13194
903.801	13023
903.919	13061
904.038	13061
904.156	12970
904.274	13019
904.392	12894
904.51	13034
904.627	12863
904.745	13027
904.863	12962
904.981	12753
905.098	12631
905.216	12715
905.334	12620
905.451	12555
905.569	12570
905.686	12612
905.803	12608
905.921	12502
906.038	12475
906.155	12467
906.272	12323
906.389	12399
906.506	12353
906.623	12266
906.74	12178
906.857	12079
906.974	12190
907.091	12292
907.208	12429
907.324	12235
907.441	12163
907.557	11920
907.674	11923
907.79	11874
907.907	11946
908.023	11980
908.139	11958
908.256	11916
908.372	11885
908.488	11904
908.604	11783
908.72	11661
908.836	11783
908.952	11707
909.068	11756
909.184	11840
909.3	11688
909.415	11790
909.531	11745
909.647	11497
909.762	11562
909.878	11452
909.993	11509
910.108	11490
910.224	11459
910.339	11596
910.454	11448
910.57	11353
910.685	11223
910.8	11608
910.915	11490
911.03	11379
911.145	11220
911.259	11204
911.374	11193
911.489	11193
911.604	11071
911.718	10972
911.833	10946
911.947	10889
912.062	10831
912.176	10976
912.291	10995
912.405	10900
912.519	11185
912.633	11231
912.748	11033
912.862	11037
912.976	10839
913.09	10694
913.204	10850
913.318	10892
913.431	10911
913.545	10927
913.659	10934
913.772	10816
913.886	10706
914	10691
914.113	10847
914.226	10820
914.34	10782
914.453	10679
914.566	10816
914.68	10702
914.793	10637
914.906	10573
915.019	10443
915.132	10379
915.245	10451
915.358	10413
915.47	10432
915.583	10443
915.696	10466
915.809	10599
915.921	10611
916.034	10485
916.146	10451
916.259	10386
916.371	10538
916.483	10443
916.595	10318
916.708	10402
916.82	10363
916.932	10367
917.044	10325
917.156	10363
917.268	10257
917.38	10306
917.491	10318
917.603	10325
917.715	10348
917.826	10360
917.938	10371
918.049	10147
918.161	10318
918.272	10485
918.384	10470
918.495	10322
918.606	10211
918.717	10006
918.828	10192
918.939	10238
919.05	10082
919.161	10177
919.272	9930
919.383	10002
919.494	10207
919.604	10474
919.715	10200
919.826	10097
919.936	10238
920.047	10257
920.157	10211
920.267	10424
920.378	10257
920.488	10249
920.598	10394
920.708	10535
920.818	10375
920.928	10417
921.038	10626
921.148	10500
921.258	10242
921.368	10177
921.477	10055
921.587	10093
921.697	9968
921.806	10112
921.916	9884
922.025	9804
922.134	9835
922.244	9728
922.353	9823
922.462	9637
922.571	9538
922.68	9443
922.789	9420
922.898	9374
923.007	9412
923.116	9515
923.224	9405
923.333	9450
923.442	9340
923.55	9321
923.659	9374
923.767	9428
923.876	9401
923.984	9351
924.092	9294
924.201	9393
924.309	9424
924.417	9336
924.525	9157
924.633	9256
924.741	10055
924.849	9112
924.956	9329
925.064	9085
925.172	8971
925.279	9020
925.387	9055
925.494	9028
925.602	9302
925.709	9203
925.816	9032
925.924	9112
926.031	9214
926.138	9138
926.245	9123
926.352	9013
926.459	9150
926.566	9188
926.673	9116
926.779	8948
926.886	8956
926.993	8796
927.099	8849
927.206	8857
927.312	8754
927.419	8887
927.525	8861
927.631	8899
927.737	8689
927.843	8758
927.95	8655
928.056	8667
928.162	8712
928.267	8819
928.373	9336
928.479	8857
928.585	8579
928.69	8670
928.796	8815
928.901	8655
929.007	8484
929.112	8644
929.218	8644
929.323	8667
929.428	8549
929.533	8667
929.638	8552
929.743	8518
929.848	8579
929.953	8560
930.058	8469
930.163	8252
930.267	8282
930.372	8469
930.477	8290
930.581	8541
930.685	8374
930.79	8206
930.894	8256
930.998	8263
931.103	8320
931.207	8084
931.311	8073
931.415	7928
931.519	7700
931.623	7715
