Data from test_V78500241_1741.txt Node
Date: Fri Mar 25 14:45:50 CST 2022
User: usil
Spectrometer: V785-0024
Trigger mode: 0
Integration Time (sec): 4.000000E-1
Scans to average: 1
Nonlinearity correction enabled: false
Boxcar width: 0
Storing dark spectrum: false
XAxis mode: Wavelengths
Number of Pixels in Spectrum: 1024
>>>>>Begin Spectral Data<<<<<
801.071	22230
801.214	22139
801.356	21907
801.499	21781
801.641	21572
801.783	21599
801.926	21599
802.068	21447
802.211	21485
802.353	21340
802.496	21203
802.638	21157
802.78	20967
802.923	20982
803.065	20963
803.208	20853
803.35	20948
803.492	21077
803.635	20990
803.777	20849
803.919	21093
804.061	21336
804.204	20967
804.346	20967
804.488	20807
804.63	20902
804.773	20686
804.915	20910
805.057	20895
805.199	20845
805.341	20960
805.483	21017
805.626	20891
805.768	20781
805.91	20811
806.052	20758
806.194	20754
806.336	21009
806.478	20777
806.62	20804
806.762	20933
806.904	21062
807.046	21287
807.188	21150
807.33	21112
807.472	21135
807.614	21112
807.756	21077
807.898	20944
808.04	20899
808.182	21001
808.324	21108
808.465	20975
808.607	20990
808.749	21264
808.891	21382
809.033	21298
809.174	21336
809.316	21169
809.458	21313
809.6	21154
809.741	21260
809.883	21424
810.025	21431
810.166	21450
810.308	21302
810.45	21199
810.591	21241
810.733	21135
810.875	21032
811.016	20906
811.158	20895
811.299	21005
811.441	21062
811.582	21112
811.724	21005
811.865	21005
812.007	20937
812.148	20956
812.29	21043
812.431	21195
812.573	21306
812.714	21530
812.855	21568
812.997	21583
813.138	21641
813.279	21542
813.421	21477
813.562	21443
813.703	21344
813.845	21157
813.986	20876
814.127	20777
814.268	20625
814.41	20708
814.551	20568
814.692	20617
814.833	20408
814.974	20484
815.115	20518
815.256	20396
815.397	20438
815.539	20492
815.68	20180
815.821	20256
815.962	20240
816.103	20218
816.244	20062
816.385	20149
816.526	19947
816.666	19864
816.807	19681
816.948	19799
817.089	19769
817.23	19689
817.371	19738
817.512	19803
817.653	19693
817.793	19662
817.934	19734
818.075	19651
818.216	19738
818.356	19643
818.497	19502
818.638	19453
818.778	19434
818.919	19289
819.06	19350
819.2	19483
819.341	19670
819.481	19537
819.622	19803
819.762	19833
819.903	19784
820.043	19727
820.184	19727
820.324	19757
820.465	19750
820.605	19605
820.746	19681
820.886	19510
821.026	19559
821.167	19651
821.307	19681
821.447	19693
821.588	19518
821.728	19369
821.868	19080
822.008	19114
822.149	19137
822.289	19000
822.429	18859
822.569	18806
822.709	18875
822.849	18597
822.99	18494
823.13	18578
823.27	18639
823.41	18369
823.55	18350
823.69	18437
823.83	18395
823.97	18273
824.11	18098
824.25	18038
824.389	18201
824.529	18190
824.669	18190
824.809	18216
824.949	18197
825.089	18152
825.228	18144
825.368	17920
825.508	17980
825.648	17912
825.787	17961
825.927	18095
826.067	17870
826.206	17893
826.346	17920
826.485	17969
826.625	17859
826.765	18098
826.904	17984
827.044	17627
827.183	17634
827.323	17623
827.462	17684
827.601	17634
827.741	17596
827.88	17558
828.02	17543
828.159	17608
828.298	17729
828.437	17661
828.577	17585
828.716	17729
828.855	17509
828.994	17368
829.134	17376
829.273	17471
829.412	17398
829.551	17471
829.69	17353
829.829	17383
829.968	17471
830.107	17387
830.246	17391
830.385	17239
830.524	17189
830.663	17208
830.802	17170
830.941	16881
831.08	16953
831.219	16999
831.357	17075
831.496	17174
831.635	16980
831.774	16911
831.913	16915
832.051	16763
832.19	16809
832.329	16786
832.467	16729
832.606	16668
832.744	16618
832.883	16653
833.022	16672
833.16	16687
833.299	16607
833.437	16649
833.576	16668
833.714	16786
833.852	16824
833.991	16694
834.129	16687
834.267	16771
834.406	16755
834.544	16744
834.682	16729
834.821	16691
834.959	16908
835.097	16778
835.235	16717
835.373	16694
835.511	16771
835.65	16740
835.788	16615
835.926	16493
836.064	16424
836.202	16577
836.34	16656
836.478	16664
836.615	16550
836.753	16729
836.891	16691
837.029	16615
837.167	16637
837.305	16508
837.443	16523
837.58	16481
837.718	16573
837.856	16561
837.993	16379
838.131	16485
838.269	16447
838.406	16413
838.544	16379
838.681	16246
838.819	16211
838.956	16036
839.094	16021
839.231	15998
839.369	16238
839.506	16466
839.643	16257
839.781	16093
839.918	15922
840.055	16071
840.193	16013
840.33	16002
840.467	16059
840.604	15983
840.742	16284
840.879	15960
841.016	16017
841.153	15911
841.29	16048
841.427	15979
841.564	16090
841.701	16101
841.838	16021
841.975	15983
842.112	16025
842.249	15774
842.385	15797
842.522	15983
842.659	15857
842.796	15808
842.933	15762
843.069	15785
843.206	15793
843.343	15918
843.479	15789
843.616	15819
843.752	15637
843.889	15564
844.025	15762
844.162	15606
844.298	15732
844.435	15618
844.571	15568
844.708	15671
844.844	15808
844.98	15720
845.117	15660
845.253	15542
845.389	15584
845.525	15534
845.661	15447
845.798	15412
845.934	15386
846.07	15298
846.206	15382
846.342	15622
846.478	15313
846.614	15165
846.75	15138
846.886	15173
847.022	15275
847.158	15138
847.294	15226
847.429	15142
847.565	15108
847.701	15466
847.837	14868
847.972	14845
848.108	15058
848.244	14918
848.379	14838
848.515	14663
848.65	14773
848.786	14861
848.921	14868
849.057	14937
849.192	14845
849.328	14891
849.463	14815
849.598	14731
849.734	14762
849.869	14610
850.004	14541
850.14	14644
850.275	14583
850.41	14484
850.545	14473
850.68	14575
850.815	14533
850.95	14590
851.085	14686
851.22	14541
851.355	14583
851.49	14533
851.625	14492
851.76	14492
851.895	14412
852.03	14374
852.165	14476
852.299	14552
852.434	14648
852.569	14594
852.703	14579
852.838	14590
852.973	14727
853.107	14659
853.242	14530
853.376	14431
853.511	14202
853.645	14370
853.78	14450
853.914	14457
854.048	14408
854.183	14446
854.317	14495
854.451	14533
854.585	14393
854.72	14385
854.854	14476
854.988	14377
855.122	14389
855.256	14240
855.39	14278
855.524	14473
855.658	14473
855.792	14457
855.926	14434
856.06	14484
856.194	14564
856.327	14404
856.461	14366
856.595	14408
856.729	14404
856.862	14518
856.996	14385
857.13	14431
857.263	14522
857.397	14492
857.53	14419
857.664	14412
857.797	14374
857.931	14499
858.064	14495
858.197	14469
858.331	14412
858.464	14476
858.597	14347
858.731	14415
858.864	14366
858.997	14377
859.13	14290
859.263	14423
859.396	14450
859.529	14324
859.662	14374
859.795	14309
859.928	14473
860.061	14469
860.194	14640
860.327	14469
860.46	14396
860.592	14583
860.725	14560
860.858	14507
860.99	14404
861.123	14385
861.256	14362
861.388	14393
861.521	15214
861.653	14248
861.786	14332
861.918	14221
862.05	14324
862.183	14377
862.315	14454
862.447	14442
862.58	14454
862.712	14142
862.844	14138
862.976	14210
863.108	14191
863.24	14632
863.372	14119
863.504	14161
863.636	14164
863.768	14187
863.9	14385
864.032	14145
864.164	14107
864.296	14328
864.428	14290
864.559	14252
864.691	14328
864.823	14191
864.954	14278
865.086	14199
865.217	14286
865.349	14119
865.48	14100
865.612	14225
865.743	14286
865.875	14252
866.006	14157
866.137	14134
866.269	14252
866.4	14138
866.531	14157
866.662	14145
866.793	14145
866.924	14134
867.055	14195
867.186	14237
867.317	14130
867.448	14031
867.579	14096
867.71	14008
867.841	14149
867.972	14206
868.103	14157
868.233	14153
868.364	14138
868.495	14126
868.625	14396
868.756	14594
868.886	14290
869.017	14396
869.147	14450
869.278	14571
869.408	14495
869.539	14412
869.669	14492
869.799	14393
869.929	14568
870.06	14469
870.19	14705
870.32	14724
870.45	14670
870.58	14849
870.71	14887
870.84	14853
870.97	14811
871.1	14823
871.23	14986
871.36	14921
871.489	14941
871.619	14975
871.749	14990
871.879	15009
872.008	15097
872.138	15093
872.267	15085
872.397	14887
872.526	14868
872.656	14887
872.785	14880
872.915	15097
873.044	15131
873.173	15062
873.303	15123
873.432	15123
873.561	15097
873.69	15161
873.819	15066
873.948	15070
874.077	15062
874.206	15097
874.335	15070
874.464	15203
874.593	15374
874.722	15351
874.851	15378
874.979	15351
875.108	15473
875.237	15249
875.365	15230
875.494	15291
875.623	15542
875.751	15313
875.88	15325
876.008	15576
876.136	15641
876.265	15713
876.393	15899
876.521	15888
876.65	15876
876.778	15759
876.906	15755
877.034	15614
877.162	15759
877.29	15728
877.418	15812
877.546	15751
877.674	15671
877.802	15778
877.93	15835
878.058	15641
878.185	15591
878.313	15827
878.441	15762
878.568	15603
878.696	15800
878.824	15819
878.951	15861
879.079	15998
879.206	16116
879.333	15865
879.461	15838
879.588	15899
879.715	15926
879.842	16101
879.97	15819
880.097	15568
880.224	15603
880.351	15564
880.478	15663
880.605	15614
880.732	15572
880.859	15876
880.986	15656
881.112	15641
881.239	15504
881.366	15477
881.493	15405
881.619	15252
881.746	15287
881.872	15260
881.999	15317
882.125	15313
882.252	15359
882.378	15272
882.505	15401
882.631	15264
882.757	15116
882.883	15112
883.01	15146
883.136	15157
883.262	14941
883.388	15055
883.514	15108
883.64	15176
883.766	15097
883.892	14918
884.018	14937
884.143	15108
884.269	15226
884.395	14887
884.52	14720
884.646	14792
884.772	14796
884.897	14800
885.023	14861
885.148	14895
885.274	15005
885.399	14941
885.524	14762
885.65	14845
885.775	14902
885.9	14857
886.025	14887
886.15	14830
886.275	14823
886.4	14746
886.525	14773
886.65	14815
886.775	14792
886.9	14929
887.025	15085
887.149	14842
887.274	14610
887.399	14720
887.523	14697
887.648	14568
887.773	14499
887.897	14686
888.021	14705
888.146	14575
888.27	14663
888.395	14842
888.519	14834
888.643	14735
888.767	14678
888.891	14545
889.015	14537
889.139	14545
889.263	14442
889.387	14644
889.511	14750
889.635	14590
889.759	14427
889.883	14545
890.006	14533
890.13	14552
890.254	14499
890.377	14450
890.501	14366
890.624	14324
890.748	14385
890.871	14286
890.995	14138
891.118	14100
891.241	14244
891.364	14313
891.488	14374
891.611	14161
891.734	14183
891.857	14294
891.98	14168
892.103	14271
892.226	14252
892.349	14092
892.471	14020
892.594	14111
892.717	14138
892.839	14240
892.962	14202
893.085	14309
893.207	14115
893.33	14107
893.452	14138
893.575	14282
893.697	14187
893.819	14366
893.941	14404
894.064	14218
894.186	14092
894.308	14164
894.43	14343
894.552	14374
894.674	14434
894.796	14191
894.918	14271
895.04	14259
895.161	14305
895.283	14267
895.405	14142
895.526	14317
895.648	14351
895.769	14381
895.891	14282
896.012	14351
896.134	14518
896.255	14419
896.376	14263
896.498	14328
896.619	14412
896.74	14324
896.861	14442
896.982	14781
897.103	14819
897.224	14579
897.345	14617
897.466	14659
897.587	14610
897.708	14727
897.828	14636
897.949	14511
898.07	14583
898.19	14564
898.311	14788
898.431	14678
898.552	14651
898.672	14720
898.792	14758
898.913	14678
899.033	14610
899.153	14522
899.273	14473
899.393	14457
899.513	14507
899.633	14590
899.753	14514
899.873	14454
899.993	14716
900.113	14507
900.232	14693
900.352	14514
900.472	14404
900.591	14404
900.711	14469
900.83	14393
900.95	14602
901.069	14412
901.189	14427
901.308	14100
901.427	14115
901.546	14096
901.665	14199
901.784	14107
901.904	13997
902.023	13879
902.141	13731
902.26	13677
902.379	13852
902.498	13757
902.617	13620
902.735	13685
902.854	13696
902.973	13658
903.091	13365
903.21	13453
903.328	13388
903.446	13327
903.565	13278
903.683	13247
903.801	13183
903.919	13194
904.038	13236
904.156	13110
904.274	13084
904.392	13038
904.51	13133
904.627	13050
904.745	13091
904.863	13202
904.981	12901
905.098	12745
905.216	12722
905.334	12791
905.451	12707
905.569	12722
905.686	12783
905.803	12779
905.921	12589
906.038	12616
906.155	12582
906.272	12528
906.389	12483
906.506	12334
906.623	12330
906.74	12311
906.857	12190
906.974	12220
907.091	12395
907.208	12490
907.324	12410
907.441	12251
907.557	12140
907.674	12019
907.79	12019
907.907	12079
908.023	12079
908.139	12011
908.256	12034
908.372	11996
908.488	12007
908.604	11901
908.72	11817
908.836	11840
908.952	11779
909.068	11805
909.184	11935
909.3	11828
909.415	11836
909.531	11878
909.647	11600
909.762	11646
909.878	11562
909.993	11634
910.108	11581
910.224	11585
910.339	11630
910.454	11493
910.57	11490
910.685	11395
910.8	11710
910.915	11653
911.03	11463
911.145	11368
911.259	11303
911.374	11269
911.489	11193
911.604	11181
911.718	11071
911.833	11102
911.947	10930
912.062	10835
912.176	10999
912.291	11086
912.405	11018
912.519	11265
912.633	11284
912.748	11090
912.862	11071
912.976	11067
913.09	10892
913.204	10843
913.318	10946
913.431	10984
913.545	11010
913.659	11071
913.772	10934
913.886	10850
914	10824
914.113	10900
914.226	10915
914.34	10862
914.453	10729
914.566	10828
914.68	10767
914.793	10679
914.906	10561
915.019	10455
915.132	10504
915.245	10603
915.358	10637
915.47	10592
915.583	10660
915.696	10580
915.809	10748
915.921	10702
916.034	10558
916.146	10504
916.259	10508
916.371	10592
916.483	10649
916.595	10432
916.708	10489
916.82	10565
916.932	10455
917.044	10512
917.156	10466
917.268	10398
917.38	10402
917.491	10409
917.603	10379
917.715	10519
917.826	10493
917.938	10421
918.049	10337
918.161	10398
918.272	10519
918.384	10554
918.495	10394
918.606	10356
918.717	10284
918.828	10291
918.939	10303
919.05	10249
919.161	10196
919.272	10055
919.383	10147
919.494	10268
919.604	10466
919.715	10306
919.826	10192
919.936	10204
920.047	10356
920.157	10314
920.267	10500
920.378	10352
920.488	10246
920.598	10417
920.708	10592
920.818	10474
920.928	10508
921.038	10611
921.148	10618
921.258	10322
921.368	10287
921.477	10124
921.587	10131
921.697	10044
921.806	10139
921.916	10013
922.025	9873
922.134	9888
922.244	9800
922.353	9865
922.462	9701
922.571	9698
922.68	9530
922.789	9526
922.898	9564
923.007	9492
923.116	9679
923.224	9557
923.333	9519
923.442	9405
923.55	9439
923.659	9534
923.767	9469
923.876	9344
923.984	9504
924.092	9397
924.201	9336
924.309	9458
924.417	9405
924.525	9344
924.633	9382
924.741	10299
924.849	9180
924.956	9351
925.064	9146
925.172	9195
925.279	9169
925.387	9195
925.494	9226
925.602	9336
925.709	9329
925.816	9127
925.924	9268
926.031	9233
926.138	9218
926.245	9222
926.352	9119
926.459	9237
926.566	9325
926.673	9180
926.779	9074
926.886	9070
926.993	8952
927.099	8845
927.206	8891
927.312	8937
927.419	8925
927.525	8979
927.631	9043
927.737	8921
927.843	8811
927.95	8720
928.056	8823
928.162	8796
928.267	8906
928.373	9542
928.479	8887
928.585	8674
928.69	8785
928.796	8880
928.901	8766
929.007	8655
929.112	8712
929.218	8766
929.323	8705
929.428	8575
929.533	8788
929.638	8568
929.743	8670
929.848	8712
929.953	8621
930.058	8575
930.163	8446
930.267	8389
930.372	8568
930.477	8438
930.581	8648
930.685	8571
930.79	8427
930.894	8389
930.998	8385
931.103	8541
931.207	8157
931.311	8100
931.415	8001
931.519	7913
931.623	7890
