Data from test_V78500241_3547.txt Node
Date: Fri Mar 25 14:58:24 CST 2022
User: usil
Spectrometer: V785-0024
Trigger mode: 0
Integration Time (sec): 4.000000E-1
Scans to average: 1
Nonlinearity correction enabled: false
Boxcar width: 0
Storing dark spectrum: false
XAxis mode: Wavelengths
Number of Pixels in Spectrum: 1024
>>>>>Begin Spectral Data<<<<<
801.071	21934
801.214	21819
801.356	21431
801.499	21466
801.641	21302
801.783	21264
801.926	21386
802.068	21169
802.211	21184
802.353	21096
802.496	20952
802.638	20834
802.78	20762
802.923	20674
803.065	20594
803.208	20552
803.35	20667
803.492	20670
803.635	20727
803.777	20629
803.919	20720
804.061	20967
804.204	20625
804.346	20587
804.488	20526
804.63	20556
804.773	20408
804.915	20533
805.057	20621
805.199	20465
805.341	20568
805.483	20670
805.626	20743
805.768	20412
805.91	20419
806.052	20522
806.194	20431
806.336	20716
806.478	20511
806.62	20419
806.762	20564
806.904	20716
807.046	20899
807.188	20815
807.33	20815
807.472	20891
807.614	20743
807.756	20743
807.898	20655
808.04	20469
808.182	20537
808.324	20575
808.465	20651
808.607	20765
808.749	20880
808.891	20971
809.033	21032
809.174	20937
809.316	20941
809.458	20948
809.6	20819
809.741	20792
809.883	21047
810.025	21116
810.166	20986
810.308	20956
810.45	20967
810.591	20845
810.733	20720
810.875	20659
811.016	20617
811.158	20518
811.299	20689
811.441	20701
811.582	20708
811.724	20686
811.865	20613
812.007	20636
812.148	20594
812.29	20598
812.431	20750
812.573	20982
812.714	21032
812.855	21070
812.997	21207
813.138	21336
813.279	21241
813.421	21051
813.562	21116
813.703	20792
813.845	20895
813.986	20457
814.127	20358
814.268	20301
814.41	20153
814.551	20191
814.692	20210
814.833	20153
814.974	20107
815.115	20115
815.256	19967
815.397	20081
815.539	20046
815.68	19879
815.821	19871
815.962	19913
816.103	19822
816.244	19704
816.385	19571
816.526	19586
816.666	19381
816.807	19175
816.948	19392
817.089	19502
817.23	19274
817.371	19114
817.512	19320
817.653	19278
817.793	19183
817.934	19164
818.075	19228
818.216	19297
818.356	19350
818.497	19095
818.638	18901
818.778	18935
818.919	18966
819.06	18932
819.2	19042
819.341	19278
819.481	19247
819.622	19384
819.762	19487
819.903	19491
820.043	19388
820.184	19240
820.324	19324
820.465	19209
820.605	19266
820.746	19278
820.886	19034
821.026	19190
821.167	19339
821.307	19354
821.447	19259
821.588	19061
821.728	18996
821.868	18863
822.008	18787
822.149	18642
822.289	18654
822.429	18521
822.569	18403
822.709	18422
822.849	18216
822.99	18228
823.13	18292
823.27	18239
823.41	18057
823.55	18003
823.69	18045
823.83	18072
823.97	17965
824.11	17665
824.25	17718
824.389	17771
824.529	17904
824.669	17783
824.809	17821
824.949	17874
825.089	17912
825.228	17794
825.368	17566
825.508	17585
825.648	17615
825.787	17600
825.927	17672
826.067	17512
826.206	17474
826.346	17703
826.485	17657
826.625	17573
826.765	17649
826.904	17672
827.044	17379
827.183	17303
827.323	17246
827.462	17315
827.601	17235
827.741	17128
827.88	17296
828.02	17193
828.159	17151
828.298	17273
828.437	17398
828.577	17303
828.716	17402
828.855	17250
828.994	17029
829.134	17006
829.273	17048
829.412	16999
829.551	17041
829.69	17060
829.829	17014
829.968	17048
830.107	17071
830.246	17102
830.385	16904
830.524	16953
830.663	16953
830.802	16774
830.941	16679
831.08	16611
831.219	16626
831.357	16778
831.496	16896
831.635	16725
831.774	16630
831.913	16584
832.051	16485
832.19	16485
832.329	16554
832.467	16386
832.606	16379
832.744	16402
832.883	16417
833.022	16394
833.16	16356
833.299	16432
833.437	16337
833.576	16390
833.714	16428
833.852	16474
833.991	16485
834.129	16538
834.267	16485
834.406	16432
834.544	16459
834.682	16546
834.821	16424
834.959	16592
835.097	16268
835.235	16470
835.373	16481
835.511	16421
835.65	16215
835.788	16356
835.926	16246
836.064	16188
836.202	16215
836.34	16299
836.478	16466
836.615	16246
836.753	16436
836.891	16405
837.029	16356
837.167	16295
837.305	16295
837.443	16284
837.58	16181
837.718	16352
837.856	16177
837.993	16185
838.131	16299
838.269	16139
838.406	16002
838.544	16029
838.681	15964
838.819	15873
838.956	15804
839.094	15857
839.231	15819
839.369	15953
839.506	16097
839.643	15941
839.781	15755
839.918	15644
840.055	15736
840.193	15701
840.33	15804
840.467	15743
840.604	15781
840.742	16071
840.879	15553
841.016	15633
841.153	15652
841.29	15755
841.427	15713
841.564	15926
841.701	15781
841.838	15720
841.975	15622
842.112	15622
842.249	15561
842.385	15652
842.522	15728
842.659	15622
842.796	15545
842.933	15534
843.069	15500
843.206	15504
843.343	15709
843.479	15690
843.616	15671
843.752	15340
843.889	15408
844.025	15412
844.162	15264
844.298	15519
844.435	15321
844.571	15317
844.708	15279
844.844	15557
844.98	15481
845.117	15504
845.253	15306
845.389	15382
845.525	15203
845.661	15260
845.798	15077
845.934	15249
846.07	15127
846.206	15173
846.342	15188
846.478	15233
846.614	14963
846.75	14914
846.886	14853
847.022	14982
847.158	14853
847.294	14857
847.429	14956
847.565	14941
847.701	15199
847.837	14693
847.972	14560
848.108	14739
848.244	14731
848.379	14556
848.515	14461
848.65	14503
848.786	14575
848.921	14530
849.057	14571
849.192	14651
849.328	14579
849.463	14575
849.598	14495
849.734	14533
849.869	14423
850.004	14336
850.14	14301
850.275	14275
850.41	14176
850.545	14252
850.68	14138
850.815	14358
850.95	14180
851.085	14495
851.22	14343
851.355	14347
851.49	14183
851.625	14248
851.76	14324
851.895	14164
852.03	14088
852.165	14233
852.299	14229
852.434	14408
852.569	14263
852.703	14278
852.838	14358
852.973	14374
853.107	14434
853.242	14240
853.376	14126
853.511	14050
853.645	14058
853.78	14259
853.914	14126
854.048	14180
854.183	14062
854.317	14187
854.451	14370
854.585	14134
854.72	14130
854.854	14233
854.988	14145
855.122	14225
855.256	13928
855.39	14050
855.524	14221
855.658	14199
855.792	14100
855.926	14130
856.06	14142
856.194	14240
856.327	14142
856.461	14092
856.595	14123
856.729	14145
856.862	14195
856.996	14267
857.13	14149
857.263	14259
857.397	14271
857.53	14164
857.664	14237
857.797	14199
857.931	14396
858.064	14210
858.197	14153
858.331	14172
858.464	14020
858.597	14062
858.731	14168
858.864	14123
858.997	14107
859.13	14111
859.263	14119
859.396	14206
859.529	14062
859.662	14115
859.795	14157
859.928	14153
860.061	14412
860.194	14347
860.327	14172
860.46	14153
860.592	14202
860.725	14244
860.858	14328
860.99	14138
861.123	14077
861.256	14134
861.388	14187
861.521	14921
861.653	14100
861.786	13936
861.918	14035
862.05	14081
862.183	14103
862.315	14153
862.447	14252
862.58	14027
862.712	13925
862.844	13879
862.976	14027
863.108	14058
863.24	14324
863.372	13814
863.504	13921
863.636	13936
863.768	14050
863.9	13963
864.032	13864
864.164	13940
864.296	13932
864.428	14050
864.559	14069
864.691	14035
864.823	13925
864.954	13940
865.086	13955
865.217	13932
865.349	13925
865.48	13887
865.612	13989
865.743	14024
865.875	13921
866.006	13959
866.137	13887
866.269	13906
866.4	13928
866.531	13928
866.662	13826
866.793	13814
866.924	13921
867.055	13947
867.186	13887
867.317	13909
867.448	13807
867.579	13856
867.71	13780
867.841	13662
867.972	13883
868.103	13860
868.233	13833
868.364	13974
868.495	13940
868.625	14126
868.756	14301
868.886	14050
869.017	14100
869.147	14362
869.278	14305
869.408	14115
869.539	14103
869.669	14275
869.799	14225
869.929	14317
870.06	14214
870.19	14469
870.32	14419
870.45	14564
870.58	14537
870.71	14648
870.84	14640
870.97	14560
871.1	14602
871.23	14823
871.36	14731
871.489	14697
871.619	14720
871.749	14788
871.879	14800
872.008	14811
872.138	14807
872.267	14781
872.397	14590
872.526	14606
872.656	14579
872.785	14598
872.915	14792
873.044	14895
873.173	14788
873.303	14796
873.432	14823
873.561	14842
873.69	14785
873.819	14830
873.948	14899
874.077	14838
874.206	14807
874.335	14796
874.464	14929
874.593	15127
874.722	15020
874.851	15226
874.979	15157
875.108	15142
875.237	15051
875.365	15089
875.494	15077
875.623	15264
875.751	15032
875.88	15093
876.008	15279
876.136	15367
876.265	15587
876.393	15747
876.521	15694
876.65	15652
876.778	15591
876.906	15545
877.034	15587
877.162	15496
877.29	15393
877.418	15500
877.546	15629
877.674	15606
877.802	15652
877.93	15549
878.058	15450
878.185	15466
878.313	15545
878.441	15511
878.568	15397
878.696	15538
878.824	15576
878.951	15671
879.079	15717
879.206	15865
879.333	15675
879.461	15648
879.588	15698
879.715	15774
879.842	15941
879.97	15587
880.097	15382
880.224	15412
880.351	15428
880.478	15439
880.605	15367
880.732	15454
880.859	15618
880.986	15515
881.112	15500
881.239	15287
881.366	15131
881.493	15066
881.619	15093
881.746	15062
881.872	15119
881.999	14990
882.125	15028
882.252	15230
882.378	15070
882.505	15184
882.631	15024
882.757	14845
882.883	14861
883.01	14910
883.136	14811
883.262	14743
883.388	14792
883.514	14902
883.64	14990
883.766	14804
883.892	14686
884.018	14735
884.143	14906
884.269	14948
884.395	14606
884.52	14575
884.646	14587
884.772	14552
884.897	14571
885.023	14602
885.148	14724
885.274	14796
885.399	14758
885.524	14598
885.65	14667
885.775	14617
885.9	14636
886.025	14777
886.15	14617
886.275	14629
886.4	14415
886.525	14556
886.65	14431
886.775	14552
886.9	14712
887.025	14785
887.149	14621
887.274	14446
887.399	14381
887.523	14419
887.648	14347
887.773	14332
887.897	14492
888.021	14465
888.146	14282
888.27	14537
888.395	14518
888.519	14457
888.643	14434
888.767	14457
888.891	14332
889.015	14301
889.139	14290
889.263	14275
889.387	14393
889.511	14545
889.635	14476
889.759	14275
889.883	14237
890.006	14294
890.13	14465
890.254	14221
890.377	14309
890.501	14103
890.624	14096
890.748	14168
890.871	14031
890.995	13864
891.118	13868
891.241	14058
891.364	13982
891.488	14024
891.611	13997
891.734	14024
891.857	14123
891.98	13936
892.103	14153
892.226	14001
892.349	13932
892.471	13814
892.594	13963
892.717	14031
892.839	13879
892.962	14054
893.085	14103
893.207	14062
893.33	13826
893.452	13879
893.575	13898
893.697	13963
893.819	14180
893.941	14233
894.064	14199
894.186	13906
894.308	14012
894.43	14134
894.552	14107
894.674	14183
894.796	14069
894.918	14050
895.04	14062
895.161	14100
895.283	14119
895.405	13989
895.526	14142
895.648	14103
895.769	14107
895.891	14191
896.012	14142
896.134	14180
896.255	14164
896.376	14229
896.498	14168
896.619	14248
896.74	14164
896.861	14218
896.982	14396
897.103	14636
897.224	14431
897.345	14423
897.466	14347
897.587	14351
897.708	14545
897.828	14495
897.949	14355
898.07	14309
898.19	14408
898.311	14587
898.431	14533
898.552	14454
898.672	14583
898.792	14571
898.913	14579
899.033	14457
899.153	14393
899.273	14248
899.393	14290
899.513	14351
899.633	14434
899.753	14427
899.873	14336
899.993	14385
900.113	14347
900.232	14465
900.352	14248
900.472	14313
900.591	14199
900.711	14191
900.83	14301
900.95	14317
901.069	14294
901.189	14107
901.308	13902
901.427	13811
901.546	13921
901.665	13936
901.784	13955
901.904	13849
902.023	13666
902.141	13529
902.26	13483
902.379	13548
902.498	13400
902.617	13445
902.735	13491
902.854	13388
902.973	13278
903.091	13206
903.21	13118
903.328	13164
903.446	13008
903.565	13042
903.683	13012
903.801	12939
903.919	13031
904.038	13046
904.156	12802
904.274	13046
904.392	12779
904.51	12817
904.627	12875
904.745	12810
904.863	12894
904.981	12681
905.098	12608
905.216	12483
905.334	12502
905.451	12513
905.569	12532
905.686	12566
905.803	12479
905.921	12338
906.038	12395
906.155	12399
906.272	12330
906.389	12289
906.506	12178
906.623	12186
906.74	12076
906.857	12041
906.974	12030
907.091	12186
907.208	12342
907.324	12159
907.441	12152
907.557	11828
907.674	11878
907.79	11748
907.907	11912
908.023	11923
908.139	11866
908.256	11866
908.372	11847
908.488	11775
908.604	11668
908.72	11615
908.836	11608
908.952	11589
909.068	11581
909.184	11760
909.3	11638
909.415	11737
909.531	11680
909.647	11398
909.762	11486
909.878	11425
909.993	11436
910.108	11410
910.224	11455
910.339	11482
910.454	11311
910.57	11296
910.685	11159
910.8	11383
910.915	11379
911.03	11334
911.145	11067
911.259	11109
911.374	11143
911.489	11075
911.604	11003
911.718	10877
911.833	10896
911.947	10797
912.062	10694
912.176	10885
912.291	10843
912.405	10896
912.519	11128
912.633	11132
912.748	11033
912.862	10930
912.976	10797
913.09	10698
913.204	10660
913.318	10828
913.431	10831
913.545	10824
913.659	10896
913.772	10736
913.886	10691
914	10615
914.113	10664
914.226	10850
914.34	10672
914.453	10550
914.566	10725
914.68	10599
914.793	10577
914.906	10382
915.019	10459
915.132	10337
915.245	10291
915.358	10428
915.47	10390
915.583	10447
915.696	10379
915.809	10554
915.921	10538
916.034	10382
916.146	10360
916.259	10409
916.371	10379
916.483	10455
916.595	10280
916.708	10268
916.82	10291
916.932	10333
917.044	10318
917.156	10249
917.268	10154
917.38	10181
917.491	10139
917.603	10272
917.715	10314
917.826	10352
917.938	10116
918.049	10143
918.161	10265
918.272	10363
918.384	10299
918.495	10272
918.606	10097
918.717	10074
918.828	10135
918.939	10139
919.05	10032
919.161	10086
919.272	9838
919.383	9960
919.494	10166
919.604	10360
919.715	10097
919.826	10013
919.936	10162
920.047	10173
920.157	10154
920.267	10329
920.378	10147
920.488	10090
920.598	10413
920.708	10417
920.818	10375
920.928	10299
921.038	10413
921.148	10466
921.258	10120
921.368	10082
921.477	9964
921.587	9937
921.697	9838
921.806	10059
921.916	9869
922.025	9800
922.134	9675
922.244	9705
922.353	9759
922.462	9637
922.571	9462
922.68	9492
922.789	9329
922.898	9370
923.007	9332
923.116	9431
923.224	9401
923.333	9382
923.442	9260
923.55	9237
923.659	9253
923.767	9367
923.876	9135
923.984	9344
924.092	9173
924.201	9313
924.309	9264
924.417	9275
924.525	9211
924.633	9180
924.741	9975
924.849	9077
924.956	9154
925.064	9047
925.172	8952
925.279	8998
925.387	9077
925.494	9089
925.602	9222
925.709	9150
925.816	8956
925.924	8998
926.031	9119
926.138	9070
926.245	9017
926.352	9013
926.459	9104
926.566	9135
926.673	8918
926.779	8910
926.886	8906
926.993	8826
927.099	8861
927.206	8712
927.312	8766
927.419	8830
927.525	8754
927.631	8739
927.737	8735
927.843	8670
927.95	8522
928.056	8610
928.162	8705
928.267	8678
928.373	9279
928.479	8807
928.585	8590
928.69	8678
928.796	8693
928.901	8575
929.007	8461
929.112	8640
929.218	8537
929.323	8473
929.428	8571
929.533	8579
929.638	8404
929.743	8415
929.848	8492
929.953	8469
930.058	8313
930.163	8221
930.267	8256
930.372	8450
930.477	8172
930.581	8476
930.685	8320
930.79	8134
930.894	8229
930.998	8145
931.103	8324
931.207	7986
931.311	7936
931.415	7906
931.519	7693
931.623	7700
