Data from test_V78500241_2409.txt Node
Date: Fri Mar 25 14:50:29 CST 2022
User: usil
Spectrometer: V785-0024
Trigger mode: 0
Integration Time (sec): 4.000000E-1
Scans to average: 1
Nonlinearity correction enabled: false
Boxcar width: 0
Storing dark spectrum: false
XAxis mode: Wavelengths
Number of Pixels in Spectrum: 1024
>>>>>Begin Spectral Data<<<<<
801.071	22036
801.214	21941
801.356	21823
801.499	21724
801.641	21583
801.783	21344
801.926	21466
802.068	21431
802.211	21450
802.353	21214
802.496	21089
802.638	20887
802.78	20883
802.923	20826
803.065	20960
803.208	20785
803.35	20735
803.492	20883
803.635	20880
803.777	20701
803.919	20956
804.061	21169
804.204	20861
804.346	20727
804.488	20670
804.63	20712
804.773	20648
804.915	20762
805.057	20792
805.199	20716
805.341	20716
805.483	20868
805.626	20720
805.768	20697
805.91	20686
806.052	20769
806.194	20674
806.336	20826
806.478	20609
806.62	20758
806.762	20785
806.904	20956
807.046	21131
807.188	21077
807.33	21017
807.472	21203
807.614	20929
807.756	21047
807.898	20792
808.04	20834
808.182	20796
808.324	20868
808.465	20842
808.607	21028
808.749	21233
808.891	21131
809.033	21249
809.174	21154
809.316	21028
809.458	21001
809.6	21020
809.741	21195
809.883	21176
810.025	21317
810.166	21245
810.308	21237
810.45	21192
810.591	21157
810.733	20887
810.875	20960
811.016	20899
811.158	20845
811.299	20925
811.441	21013
811.582	20944
811.724	20838
811.865	20876
812.007	20800
812.148	20868
812.29	20899
812.431	21089
812.573	21188
812.714	21275
812.855	21359
812.997	21481
813.138	21591
813.279	21530
813.421	21325
813.562	21203
813.703	21241
813.845	21020
813.986	20800
814.127	20621
814.268	20587
814.41	20377
814.551	20404
814.692	20533
814.833	20408
814.974	20347
815.115	20366
815.256	20362
815.397	20396
815.539	20271
815.68	20191
815.821	20100
815.962	20096
816.103	20199
816.244	20008
816.385	19913
816.526	19849
816.666	19635
816.807	19556
816.948	19822
817.089	19734
817.23	19620
817.371	19620
817.512	19502
817.653	19468
817.793	19449
817.934	19544
818.075	19449
818.216	19620
818.356	19400
818.497	19324
818.638	19255
818.778	19225
818.919	19213
819.06	19335
819.2	19244
819.341	19415
819.481	19301
819.622	19540
819.762	19791
819.903	19639
820.043	19643
820.184	19499
820.324	19476
820.465	19521
820.605	19571
820.746	19495
820.886	19381
821.026	19449
821.167	19403
821.307	19575
821.447	19453
821.588	19293
821.728	19206
821.868	19156
822.008	19012
822.149	18973
822.289	18954
822.429	18665
822.569	18654
822.709	18764
822.849	18380
822.99	18410
823.13	18319
823.27	18429
823.41	18239
823.55	18205
823.69	18133
823.83	18300
823.97	18262
824.11	17950
824.25	17961
824.389	17893
824.529	17946
824.669	17855
824.809	18091
824.949	17908
825.089	18110
825.228	17965
825.368	17794
825.508	17870
825.648	17771
825.787	17893
825.927	17798
826.067	17790
826.206	17695
826.346	17752
826.485	17771
826.625	17684
826.765	17939
826.904	17794
827.044	17600
827.183	17474
827.323	17391
827.462	17623
827.601	17421
827.741	17307
827.88	17452
828.02	17315
828.159	17509
828.298	17478
828.437	17474
828.577	17482
828.716	17577
828.855	17501
828.994	17292
829.134	17212
829.273	17235
829.412	17143
829.551	17090
829.69	17204
829.829	17216
829.968	17231
830.107	17208
830.246	17265
830.385	17132
830.524	17109
830.663	16930
830.802	16812
830.941	16831
831.08	16805
831.219	16972
831.357	16919
831.496	17045
831.635	16774
831.774	16713
831.913	16740
832.051	16584
832.19	16550
832.329	16675
832.467	16478
832.606	16451
832.744	16561
832.883	16443
833.022	16527
833.16	16550
833.299	16584
833.437	16649
833.576	16508
833.714	16554
833.852	16573
833.991	16516
834.129	16653
834.267	16664
834.406	16596
834.544	16599
834.682	16592
834.821	16550
834.959	16694
835.097	16546
835.235	16725
835.373	16653
835.511	16618
835.65	16508
835.788	16428
835.926	16341
836.064	16230
836.202	16363
836.34	16398
836.478	16527
836.615	16417
836.753	16474
836.891	16455
837.029	16451
837.167	16390
837.305	16348
837.443	16394
837.58	16196
837.718	16440
837.856	16337
837.993	16261
838.131	16363
838.269	16246
838.406	16238
838.544	16158
838.681	16032
838.819	16109
838.956	15857
839.094	15827
839.231	15911
839.369	15975
839.506	16249
839.643	16116
839.781	15945
839.918	15816
840.055	15895
840.193	15915
840.33	15800
840.467	15865
840.604	15907
840.742	15998
840.879	15694
841.016	15759
841.153	15770
841.29	15972
841.427	15968
841.564	15861
841.701	15994
841.838	15766
841.975	15819
842.112	15869
842.249	15663
842.385	15625
842.522	15918
842.659	15751
842.796	15644
842.933	15789
843.069	15656
843.206	15545
843.343	15751
843.479	15679
843.616	15587
843.752	15500
843.889	15488
844.025	15667
844.162	15374
844.298	15576
844.435	15469
844.571	15450
844.708	15576
844.844	15660
844.98	15614
845.117	15572
845.253	15329
845.389	15382
845.525	15359
845.661	15348
845.798	15154
845.934	15264
846.07	15268
846.206	15317
846.342	15336
846.478	15199
846.614	15074
846.75	14941
846.886	15005
847.022	15100
847.158	14975
847.294	15020
847.429	15146
847.565	15036
847.701	15184
847.837	14765
847.972	14670
848.108	14864
848.244	14811
848.379	14613
848.515	14655
848.65	14613
848.786	14583
848.921	14590
849.057	14727
849.192	14781
849.328	14640
849.463	14632
849.598	14636
849.734	14503
849.869	14465
850.004	14434
850.14	14541
850.275	14362
850.41	14218
850.545	14248
850.68	14419
850.815	14469
850.95	14332
851.085	14522
851.22	14412
851.355	14393
851.49	14328
851.625	14408
851.76	14339
851.895	14282
852.03	14267
852.165	14374
852.299	14427
852.434	14442
852.569	14320
852.703	14476
852.838	14473
852.973	14530
853.107	14678
853.242	14320
853.376	14240
853.511	14161
853.645	14229
853.78	14343
853.914	14237
854.048	14206
854.183	14187
854.317	14298
854.451	14385
854.585	14271
854.72	14263
854.854	14301
854.988	14240
855.122	14168
855.256	14069
855.39	14225
855.524	14248
855.658	14282
855.792	14248
855.926	14267
856.06	14286
856.194	14408
856.327	14355
856.461	14191
856.595	14225
856.729	14206
856.862	14324
856.996	14336
857.13	14305
857.263	14419
857.397	14298
857.53	14290
857.664	14351
857.797	14355
857.931	14450
858.064	14362
858.197	14278
858.331	14317
858.464	14301
858.597	14187
858.731	14298
858.864	14229
858.997	14286
859.13	14240
859.263	14286
859.396	14362
859.529	14294
859.662	14221
859.795	14195
859.928	14263
860.061	14362
860.194	14393
860.327	14351
860.46	14176
860.592	14396
860.725	14377
860.858	14351
860.99	14305
861.123	14199
861.256	14214
861.388	14164
861.521	15058
861.653	14153
861.786	14123
861.918	14039
862.05	14134
862.183	14244
862.315	14214
862.447	14161
862.58	14305
862.712	14001
862.844	13970
862.976	14145
863.108	14005
863.24	14389
863.372	13959
863.504	14138
863.636	14031
863.768	14096
863.9	14035
864.032	13864
864.164	13970
864.296	14134
864.428	14134
864.559	14176
864.691	14084
864.823	14084
864.954	14138
865.086	14119
865.217	14039
865.349	14046
865.48	14016
865.612	13993
865.743	14107
865.875	14062
866.006	14005
866.137	13989
866.269	14020
866.4	14020
866.531	13944
866.662	13963
866.793	13940
866.924	13883
867.055	13917
867.186	14005
867.317	13997
867.448	13944
867.579	13955
867.71	13879
867.841	13951
867.972	14084
868.103	14039
868.233	13986
868.364	14103
868.495	14119
868.625	14191
868.756	14358
868.886	14161
869.017	14282
869.147	14476
869.278	14336
869.408	14259
869.539	14286
869.669	14233
869.799	14298
869.929	14408
870.06	14423
870.19	14648
870.32	14610
870.45	14575
870.58	14640
870.71	14815
870.84	14807
870.97	14651
871.1	14708
871.23	14800
871.36	14845
871.489	14758
871.619	14823
871.749	14792
871.879	14902
872.008	14994
872.138	14948
872.267	14853
872.397	14777
872.526	14674
872.656	14670
872.785	14712
872.915	14952
873.044	15009
873.173	14918
873.303	14895
873.432	14956
873.561	15024
873.69	14944
873.819	14887
873.948	15017
874.077	14929
874.206	14876
874.335	14967
874.464	15058
874.593	15249
874.722	15116
874.851	15294
874.979	15340
875.108	15386
875.237	15127
875.365	15127
875.494	15287
875.623	15302
875.751	15199
875.88	15306
876.008	15439
876.136	15553
876.265	15641
876.393	15766
876.521	15743
876.65	15827
876.778	15709
876.906	15663
877.034	15606
877.162	15644
877.29	15610
877.418	15568
877.546	15599
877.674	15713
877.802	15709
877.93	15644
878.058	15553
878.185	15526
878.313	15595
878.441	15675
878.568	15496
878.696	15568
878.824	15713
878.951	15675
879.079	15880
879.206	16010
879.333	15869
879.461	15686
879.588	15884
879.715	15854
879.842	16002
879.97	15690
880.097	15587
880.224	15618
880.351	15523
880.478	15428
880.605	15416
880.732	15515
880.859	15667
880.986	15534
881.112	15515
881.239	15412
881.366	15317
881.493	15291
881.619	15123
881.746	15150
881.872	15279
881.999	15043
882.125	15108
882.252	15321
882.378	15211
882.505	15188
882.631	15043
882.757	14906
882.883	14994
883.01	14948
883.136	14800
883.262	14876
883.388	14762
883.514	15020
883.64	15005
883.766	14982
883.892	14727
884.018	14834
884.143	14941
884.269	15047
884.395	14720
884.52	14613
884.646	14682
884.772	14571
884.897	14606
885.023	14621
885.148	14826
885.274	14842
885.399	14769
885.524	14686
885.65	14655
885.775	14670
885.9	14644
886.025	14765
886.15	14731
886.275	14712
886.4	14594
886.525	14541
886.65	14575
886.775	14670
886.9	14739
887.025	14956
887.149	14765
887.274	14587
887.399	14431
887.523	14476
887.648	14438
887.773	14473
887.897	14583
888.021	14556
888.146	14530
888.27	14556
888.395	14655
888.519	14484
888.643	14583
888.767	14503
888.891	14393
889.015	14434
889.139	14434
889.263	14267
889.387	14511
889.511	14564
889.635	14476
889.759	14358
889.883	14412
890.006	14396
890.13	14461
890.254	14347
890.377	14408
890.501	14183
890.624	14180
890.748	14244
890.871	14176
890.995	14035
891.118	14027
891.241	14081
891.364	14062
891.488	14191
891.611	14050
891.734	14126
891.857	14115
891.98	14134
892.103	14157
892.226	14058
892.349	14073
892.471	13921
892.594	14016
892.717	14046
892.839	14103
892.962	13967
893.085	14221
893.207	14005
893.33	13826
893.452	13982
893.575	14103
893.697	14081
893.819	14187
893.941	14286
894.064	14218
894.186	13989
894.308	14039
894.43	14149
894.552	14286
894.674	14149
894.796	14039
894.918	14069
895.04	14039
895.161	14282
895.283	14157
895.405	14054
895.526	14176
895.648	14153
895.769	14290
895.891	14317
896.012	14301
896.134	14309
896.255	14149
896.376	14103
896.498	14317
896.619	14256
896.74	14229
896.861	14332
896.982	14667
897.103	14765
897.224	14537
897.345	14511
897.466	14408
897.587	14473
897.708	14549
897.828	14568
897.949	14423
898.07	14473
898.19	14431
898.311	14705
898.431	14514
898.552	14530
898.672	14644
898.792	14644
898.913	14655
899.033	14484
899.153	14450
899.273	14461
899.393	14412
899.513	14415
899.633	14362
899.753	14495
899.873	14317
899.993	14610
900.113	14473
900.232	14469
900.352	14446
900.472	14252
900.591	14305
900.711	14320
900.83	14317
900.95	14450
901.069	14431
901.189	14305
901.308	14077
901.427	13982
901.546	13856
901.665	14005
901.784	14081
901.904	13860
902.023	13784
902.141	13651
902.26	13540
902.379	13548
902.498	13582
902.617	13510
902.735	13639
902.854	13540
902.973	13525
903.091	13304
903.21	13251
903.328	13354
903.446	13118
903.565	13133
903.683	13171
903.801	13118
903.919	13152
904.038	13209
904.156	12970
904.274	12996
904.392	12924
904.51	12909
904.627	12981
904.745	12973
904.863	12905
904.981	12772
905.098	12654
905.216	12711
905.334	12601
905.451	12688
905.569	12513
905.686	12612
905.803	12654
905.921	12452
906.038	12642
906.155	12452
906.272	12426
906.389	12357
906.506	12266
906.623	12292
906.74	12148
906.857	11973
906.974	12091
907.091	12224
907.208	12391
907.324	12243
907.441	12117
907.557	11977
907.674	11935
907.79	11931
907.907	11950
908.023	12053
908.139	12038
908.256	11920
908.372	11912
908.488	11817
908.604	11764
908.72	11756
908.836	11802
908.952	11729
909.068	11714
909.184	11790
909.3	11813
909.415	11767
909.531	11684
909.647	11566
909.762	11459
909.878	11433
909.993	11524
910.108	11459
910.224	11452
910.339	11429
910.454	11414
910.57	11341
910.685	11299
910.8	11611
910.915	11501
911.03	11364
911.145	11246
911.259	11201
911.374	11155
911.489	11174
911.604	11109
911.718	10889
911.833	10980
911.947	10831
912.062	10847
912.176	10934
912.291	10949
912.405	10965
912.519	11193
912.633	11185
912.748	11060
912.862	10976
912.976	10828
913.09	10714
913.204	10736
913.318	10831
913.431	10896
913.545	10972
913.659	10961
913.772	10831
913.886	10744
914	10660
914.113	10850
914.226	10862
914.34	10790
914.453	10637
914.566	10725
914.68	10702
914.793	10599
914.906	10451
915.019	10428
915.132	10428
915.245	10470
915.358	10440
915.47	10546
915.583	10481
915.696	10466
915.809	10637
915.921	10679
916.034	10519
916.146	10371
916.259	10413
916.371	10538
916.483	10440
916.595	10333
916.708	10432
916.82	10424
916.932	10382
917.044	10447
917.156	10352
917.268	10253
917.38	10276
917.491	10284
917.603	10329
917.715	10299
917.826	10333
917.938	10284
918.049	10166
918.161	10352
918.272	10405
918.384	10402
918.495	10303
918.606	10215
918.717	10128
918.828	10204
918.939	10196
919.05	10128
919.161	10124
919.272	9937
919.383	10051
919.494	10207
919.604	10478
919.715	10249
919.826	10124
919.936	10135
920.047	10230
920.157	10276
920.267	10360
920.378	10223
920.488	10246
920.598	10363
920.708	10584
920.818	10367
920.928	10443
921.038	10599
921.148	10550
921.258	10204
921.368	10090
921.477	10116
921.587	10032
921.697	9873
921.806	10040
921.916	9956
922.025	9895
922.134	9751
922.244	9705
922.353	9819
922.462	9629
922.571	9599
922.68	9450
922.789	9462
922.898	9500
923.007	9412
923.116	9424
923.224	9367
923.333	9450
923.442	9325
923.55	9306
923.659	9359
923.767	9237
923.876	9344
923.984	9389
924.092	9233
924.201	9264
924.309	9344
924.417	9275
924.525	9237
924.633	9351
924.741	10071
924.849	9036
924.956	9233
925.064	9081
925.172	9062
925.279	9077
925.387	9074
925.494	9146
925.602	9260
925.709	9104
925.816	9043
925.924	9100
926.031	9264
926.138	9081
926.245	9222
926.352	9028
926.459	9157
926.566	9211
926.673	9097
926.779	8845
926.886	8960
926.993	8845
927.099	8815
927.206	8769
927.312	8773
927.419	8933
927.525	8849
927.631	8838
927.737	8701
927.843	8705
927.95	8625
928.056	8693
928.162	8735
928.267	8777
928.373	9363
928.479	8895
928.585	8530
928.69	8689
928.796	8849
928.901	8667
929.007	8495
929.112	8697
929.218	8594
929.323	8571
929.428	8556
929.533	8697
929.638	8545
929.743	8564
929.848	8602
929.953	8507
930.058	8393
930.163	8389
930.267	8279
930.372	8488
930.477	8267
930.581	8541
930.685	8450
930.79	8206
930.894	8324
930.998	8244
931.103	8427
931.207	8084
931.311	8027
931.415	7932
931.519	7795
931.623	7681
