Data from test_V78500241_1898.txt Node
Date: Fri Mar 25 14:46:55 CST 2022
User: usil
Spectrometer: V785-0024
Trigger mode: 0
Integration Time (sec): 4.000000E-1
Scans to average: 1
Nonlinearity correction enabled: false
Boxcar width: 0
Storing dark spectrum: false
XAxis mode: Wavelengths
Number of Pixels in Spectrum: 1024
>>>>>Begin Spectral Data<<<<<
801.071	22093
801.214	22109
801.356	21724
801.499	21720
801.641	21477
801.783	21405
801.926	21485
802.068	21511
802.211	21359
802.353	21370
802.496	21135
802.638	20933
802.78	20933
802.923	20918
803.065	20765
803.208	20792
803.35	20868
803.492	20857
803.635	20933
803.777	20777
803.919	20899
804.061	21119
804.204	20891
804.346	20640
804.488	20651
804.63	20632
804.773	20682
804.915	20644
805.057	20735
805.199	20663
805.341	20800
805.483	20788
805.626	20811
805.768	20648
805.91	20697
806.052	20644
806.194	20708
806.336	20678
806.478	20777
806.62	20724
806.762	20739
806.904	20872
807.046	21146
807.188	21112
807.33	21055
807.472	21074
807.614	20971
807.756	20990
807.898	20899
808.04	20670
808.182	20735
808.324	20838
808.465	20853
808.607	20944
808.749	21039
808.891	21138
809.033	21203
809.174	21116
809.316	21100
809.458	21066
809.6	21066
809.741	21180
809.883	21207
810.025	21203
810.166	21291
810.308	21233
810.45	21237
810.591	21074
810.733	20967
810.875	20918
811.016	20743
811.158	20800
811.299	20769
811.441	20963
811.582	20994
811.724	20830
811.865	20899
812.007	20796
812.148	20830
812.29	20876
812.431	21100
812.573	21142
812.714	21214
812.855	21401
812.997	21507
813.138	21538
813.279	21583
813.421	21382
813.562	21302
813.703	21123
813.845	21085
813.986	20777
814.127	20644
814.268	20537
814.41	20530
814.551	20393
814.692	20549
814.833	20366
814.974	20301
815.115	20396
815.256	20221
815.397	20168
815.539	20301
815.68	20221
815.821	20100
815.962	20244
816.103	20096
816.244	20043
816.385	19818
816.526	19917
816.666	19647
816.807	19453
816.948	19674
817.089	19582
817.23	19681
817.371	19605
817.512	19559
817.653	19567
817.793	19430
817.934	19582
818.075	19537
818.216	19563
818.356	19396
818.497	19324
818.638	19270
818.778	19152
818.919	19339
819.06	19350
819.2	19312
819.341	19396
819.481	19430
819.622	19495
819.762	19689
819.903	19769
820.043	19605
820.184	19521
820.324	19506
820.465	19639
820.605	19594
820.746	19510
820.886	19457
821.026	19597
821.167	19369
821.307	19556
821.447	19597
821.588	19388
821.728	19240
821.868	19107
822.008	19012
822.149	18920
822.289	18894
822.429	18661
822.569	18593
822.709	18673
822.849	18498
822.99	18353
823.13	18441
823.27	18399
823.41	18323
823.55	18190
823.69	18247
823.83	18254
823.97	18220
824.11	18079
824.25	18083
824.389	17942
824.529	18057
824.669	17912
824.809	18114
824.949	18125
825.089	18049
825.228	18102
825.368	17851
825.508	17866
825.648	17851
825.787	17912
825.927	17870
826.067	17851
826.206	17828
826.346	17916
826.485	17737
826.625	17779
826.765	17988
826.904	17954
827.044	17566
827.183	17558
827.323	17516
827.462	17634
827.601	17509
827.741	17532
827.88	17509
828.02	17547
828.159	17551
828.298	17509
828.437	17684
828.577	17535
828.716	17653
828.855	17425
828.994	17239
829.134	17395
829.273	17360
829.412	17174
829.551	17155
829.69	17147
829.829	17368
829.968	17299
830.107	17277
830.246	17296
830.385	17124
830.524	17242
830.663	17086
830.802	16987
830.941	16828
831.08	16858
831.219	17037
831.357	16972
831.496	17143
831.635	16866
831.774	16911
831.913	16740
832.051	16755
832.19	16717
832.329	16721
832.467	16596
832.606	16592
832.744	16584
832.883	16660
833.022	16668
833.16	16592
833.299	16558
833.437	16596
833.576	16691
833.714	16611
833.852	16618
833.991	16736
834.129	16725
834.267	16740
834.406	16702
834.544	16736
834.682	16668
834.821	16698
834.959	16793
835.097	16599
835.235	16717
835.373	16721
835.511	16702
835.65	16527
835.788	16573
835.926	16360
836.064	16417
836.202	16421
836.34	16577
836.478	16546
836.615	16691
836.753	16641
836.891	16527
837.029	16611
837.167	16519
837.305	16508
837.443	16405
837.58	16405
837.718	16550
837.856	16481
837.993	16348
838.131	16451
838.269	16337
838.406	16462
838.544	16291
838.681	16192
838.819	16097
838.956	15983
839.094	15968
839.231	16021
839.369	16215
839.506	16322
839.643	16261
839.781	16029
839.918	15975
840.055	16051
840.193	15991
840.33	15960
840.467	15953
840.604	16063
840.742	16196
840.879	15823
841.016	15899
841.153	15907
841.29	16059
841.427	16048
841.564	16090
841.701	15983
841.838	15911
841.975	15800
842.112	15994
842.249	15857
842.385	15770
842.522	15934
842.659	15724
842.796	15800
842.933	15743
843.069	15679
843.206	15736
843.343	15838
843.479	15823
843.616	15785
843.752	15561
843.889	15599
844.025	15656
844.162	15530
844.298	15667
844.435	15625
844.571	15488
844.708	15553
844.844	15762
844.98	15701
845.117	15656
845.253	15538
845.389	15450
845.525	15428
845.661	15397
845.798	15386
845.934	15310
846.07	15294
846.206	15389
846.342	15500
846.478	15279
846.614	15180
846.75	15112
846.886	15089
847.022	15150
847.158	15207
847.294	15131
847.429	15157
847.565	15039
847.701	15374
847.837	14941
847.972	14887
848.108	14925
848.244	14899
848.379	14785
848.515	14765
848.65	14743
848.786	14731
848.921	14811
849.057	14899
849.192	14830
849.328	14731
849.463	14735
849.598	14762
849.734	14686
849.869	14648
850.004	14587
850.14	14461
850.275	14473
850.41	14343
850.545	14423
850.68	14465
850.815	14469
850.95	14579
851.085	14640
851.22	14617
851.355	14590
851.49	14484
851.625	14461
851.76	14431
851.895	14488
852.03	14412
852.165	14473
852.299	14526
852.434	14617
852.569	14541
852.703	14495
852.838	14492
852.973	14663
853.107	14651
853.242	14465
853.376	14469
853.511	14263
853.645	14290
853.78	14431
853.914	14370
854.048	14317
854.183	14256
854.317	14400
854.451	14507
854.585	14400
854.72	14358
854.854	14396
854.988	14233
855.122	14404
855.256	14298
855.39	14328
855.524	14499
855.658	14446
855.792	14389
855.926	14450
856.06	14438
856.194	14465
856.327	14343
856.461	14282
856.595	14240
856.729	14332
856.862	14503
856.996	14446
857.13	14404
857.263	14419
857.397	14415
857.53	14442
857.664	14366
857.797	14480
857.931	14408
858.064	14339
858.197	14461
858.331	14343
858.464	14351
858.597	14290
858.731	14336
858.864	14313
858.997	14339
859.13	14419
859.263	14431
859.396	14488
859.529	14355
859.662	14408
859.795	14317
859.928	14480
860.061	14537
860.194	14636
860.327	14465
860.46	14294
860.592	14427
860.725	14465
860.858	14431
860.99	14370
861.123	14252
861.256	14229
861.388	14362
861.521	15199
861.653	14305
861.786	14187
861.918	14309
862.05	14317
862.183	14355
862.315	14256
862.447	14374
862.58	14301
862.712	14084
862.844	14054
862.976	14180
863.108	14126
863.24	14533
863.372	14058
863.504	14138
863.636	14168
863.768	14199
863.9	14100
864.032	14046
864.164	14111
864.296	14157
864.428	14309
864.559	14240
864.691	14210
864.823	14103
864.954	14199
865.086	14130
865.217	14073
865.349	14050
865.48	14145
865.612	14172
865.743	14320
865.875	14168
866.006	14206
866.137	14126
866.269	14176
866.4	14119
866.531	14065
866.662	14164
866.793	14115
866.924	14100
867.055	14077
867.186	14046
867.317	14077
867.448	14100
867.579	14031
867.71	14138
867.841	14103
867.972	14149
868.103	14069
868.233	14240
868.364	14134
868.495	14248
868.625	14339
868.756	14438
868.886	14248
869.017	14347
869.147	14377
869.278	14351
869.408	14355
869.539	14400
869.669	14507
869.799	14450
869.929	14575
870.06	14537
870.19	14648
870.32	14655
870.45	14655
870.58	14731
870.71	14994
870.84	14887
870.97	14826
871.1	14720
871.23	14967
871.36	15028
871.489	14830
871.619	14918
871.749	14956
871.879	14941
872.008	15108
872.138	15020
872.267	14956
872.397	14891
872.526	14708
872.656	14842
872.785	14872
872.915	14918
873.044	14990
873.173	14952
873.303	14979
873.432	15097
873.561	15062
873.69	15017
873.819	15051
873.948	15131
874.077	15028
874.206	14948
874.335	15077
874.464	15176
874.593	15321
874.722	15241
874.851	15370
874.979	15325
875.108	15363
875.237	15256
875.365	15214
875.494	15306
875.623	15443
875.751	15367
875.88	15329
876.008	15473
876.136	15553
876.265	15713
876.393	15953
876.521	15823
876.65	15888
876.778	15827
876.906	15709
877.034	15705
877.162	15762
877.29	15724
877.418	15705
877.546	15709
877.674	15808
877.802	15770
877.93	15720
878.058	15720
878.185	15671
878.313	15842
878.441	15739
878.568	15519
878.696	15682
878.824	15793
878.951	15838
879.079	15888
879.206	15949
879.333	15930
879.461	15861
879.588	15785
879.715	15994
879.842	16147
879.97	15835
880.097	15671
880.224	15454
880.351	15633
880.478	15667
880.605	15580
880.732	15431
880.859	15854
880.986	15652
881.112	15584
881.239	15473
881.366	15397
881.493	15325
881.619	15268
881.746	15207
881.872	15272
881.999	15363
882.125	15218
882.252	15310
882.378	15389
882.505	15405
882.631	15100
882.757	15009
882.883	15119
883.01	15089
883.136	15097
883.262	14861
883.388	14944
883.514	15089
883.64	15138
883.766	15085
883.892	14982
884.018	14880
884.143	15085
884.269	15127
884.395	14785
884.52	14781
884.646	14727
884.772	14667
884.897	14670
885.023	14724
885.148	14921
885.274	14948
885.399	14918
885.524	14750
885.65	14746
885.775	14819
885.9	14746
886.025	14796
886.15	14819
886.275	14697
886.4	14655
886.525	14743
886.65	14712
886.775	14697
886.9	14918
887.025	14921
887.149	14826
887.274	14610
887.399	14579
887.523	14503
887.648	14590
887.773	14484
887.897	14712
888.021	14682
888.146	14511
888.27	14648
888.395	14659
888.519	14667
888.643	14621
888.767	14781
888.891	14598
889.015	14484
889.139	14450
889.263	14408
889.387	14571
889.511	14708
889.635	14583
889.759	14495
889.883	14434
890.006	14537
890.13	14583
890.254	14499
890.377	14362
890.501	14309
890.624	14294
890.748	14305
890.871	14248
890.995	14103
891.118	14092
891.241	14176
891.364	14172
891.488	14298
891.611	14157
891.734	14164
891.857	14286
891.98	14157
892.103	14358
892.226	14225
892.349	14153
892.471	14020
892.594	14130
892.717	14119
892.839	14084
892.962	14172
893.085	14237
893.207	14145
893.33	14027
893.452	14111
893.575	14278
893.697	14069
893.819	14339
893.941	14313
894.064	14294
894.186	14138
894.308	14088
894.43	14256
894.552	14370
894.674	14256
894.796	14153
894.918	14275
895.04	14225
895.161	14328
895.283	14343
895.405	14225
895.526	14267
895.648	14358
895.769	14301
895.891	14301
896.012	14229
896.134	14381
896.255	14290
896.376	14206
896.498	14358
896.619	14298
896.74	14374
896.861	14507
896.982	14651
897.103	14796
897.224	14678
897.345	14556
897.466	14579
897.587	14621
897.708	14697
897.828	14670
897.949	14590
898.07	14514
898.19	14579
898.311	14785
898.431	14587
898.552	14762
898.672	14663
898.792	14636
898.913	14682
899.033	14514
899.153	14541
899.273	14473
899.393	14575
899.513	14598
899.633	14507
899.753	14530
899.873	14408
899.993	14526
900.113	14518
900.232	14602
900.352	14598
900.472	14404
900.591	14366
900.711	14328
900.83	14404
900.95	14381
901.069	14560
901.189	14248
901.308	14153
901.427	13997
901.546	14084
901.665	14046
901.784	14126
901.904	13940
902.023	13936
902.141	13757
902.26	13624
902.379	13681
902.498	13696
902.617	13609
902.735	13689
902.854	13601
902.973	13582
903.091	13320
903.21	13301
903.328	13426
903.446	13266
903.565	13160
903.683	13274
903.801	13046
903.919	13152
904.038	13171
904.156	13027
904.274	13160
904.392	12916
904.51	12962
904.627	13027
904.745	13057
904.863	13110
904.981	12806
905.098	12700
905.216	12696
905.334	12741
905.451	12749
905.569	12749
905.686	12684
905.803	12795
905.921	12464
906.038	12631
906.155	12513
906.272	12414
906.389	12479
906.506	12418
906.623	12258
906.74	12289
906.857	12194
906.974	12224
907.091	12426
907.208	12429
907.324	12365
907.441	12254
907.557	12038
907.674	12064
907.79	11992
907.907	12015
908.023	12106
908.139	12098
908.256	12026
908.372	11889
908.488	11882
908.604	11707
908.72	11851
908.836	11729
908.952	11798
909.068	11821
909.184	11954
909.3	11916
909.415	11836
909.531	11779
909.647	11642
909.762	11581
909.878	11524
909.993	11600
910.108	11615
910.224	11604
910.339	11562
910.454	11516
910.57	11444
910.685	11337
910.8	11596
910.915	11554
911.03	11433
911.145	11322
911.259	11315
911.374	11280
911.489	11208
911.604	11083
911.718	11121
911.833	11102
911.947	10968
912.062	10885
912.176	11060
912.291	11014
912.405	10991
912.519	11246
912.633	11181
912.748	11075
912.862	10980
912.976	10908
913.09	10828
913.204	10934
913.318	10984
913.431	10987
913.545	10995
913.659	11113
913.772	10816
913.886	10816
914	10683
914.113	10889
914.226	10984
914.34	10824
914.453	10733
914.566	10892
914.68	10782
914.793	10736
914.906	10527
915.019	10478
915.132	10436
915.245	10542
915.358	10622
915.47	10637
915.583	10489
915.696	10596
915.809	10668
915.921	10618
916.034	10538
916.146	10573
916.259	10535
916.371	10550
916.483	10531
916.595	10447
916.708	10489
916.82	10504
916.932	10436
917.044	10394
917.156	10493
917.268	10333
917.38	10367
917.491	10314
917.603	10413
917.715	10535
917.826	10489
917.938	10398
918.049	10382
918.161	10295
918.272	10443
918.384	10462
918.495	10322
918.606	10314
918.717	10200
918.828	10246
918.939	10306
919.05	10120
919.161	10196
919.272	10097
919.383	10147
919.494	10329
919.604	10459
919.715	10246
919.826	10196
919.936	10249
920.047	10371
920.157	10238
920.267	10398
920.378	10238
920.488	10306
920.598	10394
920.708	10603
920.818	10550
920.928	10493
921.038	10607
921.148	10615
921.258	10310
921.368	10230
921.477	10124
921.587	10143
921.697	10013
921.806	10082
921.916	9994
922.025	9861
922.134	9880
922.244	9774
922.353	9880
922.462	9701
922.571	9690
922.68	9485
922.789	9450
922.898	9549
923.007	9466
923.116	9526
923.224	9466
923.333	9542
923.442	9340
923.55	9355
923.659	9374
923.767	9488
923.876	9336
923.984	9523
924.092	9222
924.201	9431
924.309	9408
924.417	9397
924.525	9370
924.633	9291
924.741	10207
924.849	9097
924.956	9306
925.064	9123
925.172	9100
925.279	9085
925.387	9112
925.494	9184
925.602	9260
925.709	9192
925.816	9123
925.924	9123
926.031	9256
926.138	9100
926.245	9169
926.352	9051
926.459	9279
926.566	9291
926.673	9146
926.779	9024
926.886	8982
926.993	8910
927.099	8899
927.206	8925
927.312	8842
927.419	8895
927.525	8811
927.631	8925
927.737	8823
927.843	8792
927.95	8667
928.056	8781
928.162	8758
928.267	8830
928.373	9211
928.479	8838
928.585	8648
928.69	8701
928.796	8785
928.901	8655
929.007	8571
929.112	8663
929.218	8686
929.323	8610
929.428	8629
929.533	8724
929.638	8533
929.743	8571
929.848	8598
929.953	8522
930.058	8522
930.163	8396
930.267	8301
930.372	8575
930.477	8320
930.581	8606
930.685	8419
930.79	8271
930.894	8317
930.998	8256
931.103	8431
931.207	8161
931.311	8084
931.415	7970
931.519	7814
931.623	7822
