Data from test_V78500241_2918.txt Node
Date: Fri Mar 25 14:54:01 CST 2022
User: usil
Spectrometer: V785-0024
Trigger mode: 0
Integration Time (sec): 4.000000E-1
Scans to average: 1
Nonlinearity correction enabled: false
Boxcar width: 0
Storing dark spectrum: false
XAxis mode: Wavelengths
Number of Pixels in Spectrum: 1024
>>>>>Begin Spectral Data<<<<<
801.071	22067
801.214	22032
801.356	21675
801.499	21663
801.641	21450
801.783	21473
801.926	21511
802.068	21561
802.211	21256
802.353	21355
802.496	21043
802.638	20925
802.78	20967
802.923	20800
803.065	20868
803.208	20788
803.35	20804
803.492	20868
803.635	20925
803.777	20739
803.919	20891
804.061	21154
804.204	20921
804.346	20720
804.488	20648
804.63	20823
804.773	20674
804.915	20636
805.057	20746
805.199	20549
805.341	20716
805.483	20804
805.626	20842
805.768	20788
805.91	20762
806.052	20712
806.194	20583
806.336	20758
806.478	20686
806.62	20648
806.762	20842
806.904	20986
807.046	21146
807.188	21108
807.33	20982
807.472	21093
807.614	21001
807.756	21005
807.898	20811
808.04	20735
808.182	20800
808.324	20792
808.465	20880
808.607	21017
808.749	21127
808.891	21173
809.033	21435
809.174	21096
809.316	21039
809.458	21005
809.6	20956
809.741	21131
809.883	21211
810.025	21294
810.166	21184
810.308	21321
810.45	21195
810.591	21154
810.733	20982
810.875	21024
811.016	20781
811.158	20792
811.299	20883
811.441	20918
811.582	20887
811.724	20895
811.865	20853
812.007	20845
812.148	20754
812.29	20845
812.431	21036
812.573	21116
812.714	21237
812.855	21313
812.997	21485
813.138	21492
813.279	21469
813.421	21386
813.562	21393
813.703	21131
813.845	21013
813.986	20758
814.127	20568
814.268	20423
814.41	20469
814.551	20389
814.692	20374
814.833	20324
814.974	20347
815.115	20381
815.256	20221
815.397	20176
815.539	20161
815.68	20244
815.821	20069
815.962	20100
816.103	20164
816.244	19898
816.385	19887
816.526	19993
816.666	19635
816.807	19571
816.948	19613
817.089	19674
817.23	19643
817.371	19552
817.512	19502
817.653	19457
817.793	19487
817.934	19480
818.075	19480
818.216	19540
818.356	19521
818.497	19316
818.638	19187
818.778	19080
818.919	19209
819.06	19194
819.2	19270
819.341	19407
819.481	19483
819.622	19521
819.762	19791
819.903	19655
820.043	19582
820.184	19464
820.324	19540
820.465	19525
820.605	19594
820.746	19464
820.886	19236
821.026	19392
821.167	19464
821.307	19441
821.447	19434
821.588	19331
821.728	19266
821.868	18989
822.008	18821
822.149	18878
822.289	18920
822.429	18730
822.569	18486
822.709	18578
822.849	18448
822.99	18403
823.13	18361
823.27	18281
823.41	18186
823.55	18136
823.69	18213
823.83	18235
823.97	18167
824.11	17992
824.25	17961
824.389	17897
824.529	18072
824.669	18083
824.809	18148
824.949	18121
825.089	18026
825.228	18030
825.368	17756
825.508	17779
825.648	17813
825.787	17775
825.927	17733
826.067	17824
826.206	17665
826.346	17783
826.485	17729
826.625	17783
826.765	17916
826.904	17756
827.044	17551
827.183	17478
827.323	17570
827.462	17585
827.601	17596
827.741	17497
827.88	17505
828.02	17360
828.159	17452
828.298	17543
828.437	17520
828.577	17448
828.716	17524
828.855	17395
828.994	17277
829.134	17280
829.273	17307
829.412	17079
829.551	17193
829.69	17140
829.829	17258
829.968	17235
830.107	17185
830.246	17212
830.385	17109
830.524	17045
830.663	16987
830.802	16987
830.941	16755
831.08	16809
831.219	16984
831.357	16839
831.496	17037
831.635	16786
831.774	16755
831.913	16782
832.051	16649
832.19	16573
832.329	16752
832.467	16500
832.606	16474
832.744	16455
832.883	16470
833.022	16489
833.16	16405
833.299	16569
833.437	16489
833.576	16592
833.714	16558
833.852	16622
833.991	16546
834.129	16573
834.267	16554
834.406	16618
834.544	16630
834.682	16489
834.821	16493
834.959	16679
835.097	16538
835.235	16577
835.373	16569
835.511	16535
835.65	16428
835.788	16459
835.926	16405
836.064	16211
836.202	16287
836.34	16466
836.478	16531
836.615	16390
836.753	16516
836.891	16584
837.029	16523
837.167	16341
837.305	16318
837.443	16379
837.58	16280
837.718	16360
837.856	16322
837.993	16352
838.131	16375
838.269	16382
838.406	16257
838.544	16188
838.681	16010
838.819	16051
838.956	15884
839.094	15846
839.231	15987
839.369	16071
839.506	16306
839.643	16139
839.781	15838
839.918	15869
840.055	15823
840.193	15892
840.33	15911
840.467	15907
840.604	15869
840.742	16051
840.879	15709
841.016	15797
841.153	15831
841.29	15983
841.427	15846
841.564	15911
841.701	15960
841.838	15865
841.975	15713
842.112	15819
842.249	15701
842.385	15526
842.522	15812
842.659	15751
842.796	15618
842.933	15625
843.069	15610
843.206	15652
843.343	15606
843.479	15762
843.616	15538
843.752	15325
843.889	15401
844.025	15549
844.162	15367
844.298	15488
844.435	15473
844.571	15298
844.708	15374
844.844	15515
844.98	15580
845.117	15515
845.253	15412
845.389	15291
845.525	15310
845.661	15401
845.798	15150
845.934	15275
846.07	15252
846.206	15272
846.342	15466
846.478	15176
846.614	15047
846.75	14891
846.886	14990
847.022	15005
847.158	15043
847.294	15055
847.429	15036
847.565	14963
847.701	15287
847.837	14693
847.972	14682
848.108	14735
848.244	14708
848.379	14644
848.515	14571
848.65	14514
848.786	14583
848.921	14632
849.057	14727
849.192	14571
849.328	14651
849.463	14602
849.598	14480
849.734	14431
849.869	14415
850.004	14332
850.14	14305
850.275	14408
850.41	14229
850.545	14343
850.68	14328
850.815	14434
850.95	14286
851.085	14511
851.22	14419
851.355	14355
851.49	14389
851.625	14328
851.76	14290
851.895	14176
852.03	14248
852.165	14347
852.299	14389
852.434	14408
852.569	14362
852.703	14419
852.838	14480
852.973	14473
853.107	14438
853.242	14256
853.376	14263
853.511	14138
853.645	14248
853.78	14355
853.914	14240
854.048	14195
854.183	14199
854.317	14252
854.451	14301
854.585	14267
854.72	14248
854.854	14278
854.988	14157
855.122	14275
855.256	14111
855.39	14240
855.524	14355
855.658	14229
855.792	14187
855.926	14195
856.06	14336
856.194	14317
856.327	14271
856.461	14157
856.595	14176
856.729	14202
856.862	14271
856.996	14218
857.13	14263
857.263	14290
857.397	14336
857.53	14317
857.664	14256
857.797	14271
857.931	14423
858.064	14278
858.197	14336
858.331	14294
858.464	14115
858.597	14168
858.731	14206
858.864	14199
858.997	14172
859.13	14229
859.263	14240
859.396	14282
859.529	14187
859.662	14172
859.795	14225
859.928	14298
860.061	14275
860.194	14457
860.327	14210
860.46	14123
860.592	14336
860.725	14377
860.858	14218
860.99	14385
861.123	14164
861.256	14180
861.388	14290
861.521	14838
861.653	14142
861.786	14092
861.918	14058
862.05	14115
862.183	14126
862.315	14176
862.447	14164
862.58	14103
862.712	13989
862.844	13978
862.976	14008
863.108	14065
863.24	14343
863.372	13898
863.504	14081
863.636	13967
863.768	14054
863.9	13947
864.032	13967
864.164	14008
864.296	14024
864.428	14126
864.559	14020
864.691	14035
864.823	13993
864.954	14077
865.086	14043
865.217	13974
865.349	13898
865.48	13989
865.612	13993
865.743	14043
865.875	14012
866.006	14001
866.137	14012
866.269	14043
866.4	13959
866.531	14062
866.662	13936
866.793	13890
866.924	14008
867.055	13974
867.186	13944
867.317	13936
867.448	13906
867.579	13993
867.71	13997
867.841	13890
867.972	13986
868.103	13978
868.233	13974
868.364	14039
868.495	13989
868.625	14134
868.756	14336
868.886	14046
869.017	14130
869.147	14415
869.278	14404
869.408	14271
869.539	14161
869.669	14347
869.799	14218
869.929	14351
870.06	14225
870.19	14678
870.32	14488
870.45	14533
870.58	14594
870.71	14781
870.84	14708
870.97	14712
871.1	14621
871.23	14883
871.36	14830
871.489	14743
871.619	14743
871.749	14777
871.879	14842
872.008	14925
872.138	14807
872.267	14845
872.397	14602
872.526	14724
872.656	14564
872.785	14720
872.915	14887
873.044	14921
873.173	14887
873.303	15013
873.432	14857
873.561	14937
873.69	14880
873.819	14887
873.948	14979
874.077	14963
874.206	14838
874.335	14941
874.464	14975
874.593	15161
874.722	15070
874.851	15184
874.979	15302
875.108	15199
875.237	15176
875.365	15131
875.494	15142
875.623	15268
875.751	15154
875.88	15173
876.008	15313
876.136	15439
876.265	15572
876.393	15690
876.521	15717
876.65	15686
876.778	15622
876.906	15587
877.034	15549
877.162	15629
877.29	15492
877.418	15625
877.546	15576
877.674	15576
877.802	15625
877.93	15618
878.058	15477
878.185	15496
878.313	15603
878.441	15637
878.568	15435
878.696	15466
878.824	15728
878.951	15629
879.079	15747
879.206	15934
879.333	15789
879.461	15584
879.588	15713
879.715	15694
879.842	15907
879.97	15713
880.097	15344
880.224	15458
880.351	15511
880.478	15458
880.605	15424
880.732	15359
880.859	15660
880.986	15397
881.112	15477
881.239	15317
881.366	15260
881.493	15230
881.619	15157
881.746	15146
881.872	15195
881.999	15116
882.125	14975
882.252	15176
882.378	15100
882.505	15321
882.631	15039
882.757	14929
882.883	14963
883.01	14925
883.136	14929
883.262	14804
883.388	14716
883.514	14986
883.64	15089
883.766	14811
883.892	14720
884.018	14765
884.143	14937
884.269	15058
884.395	14674
884.52	14762
884.646	14648
884.772	14526
884.897	14552
885.023	14655
885.148	14743
885.274	14705
885.399	14716
885.524	14610
885.65	14594
885.775	14758
885.9	14568
886.025	14705
886.15	14610
886.275	14689
886.4	14541
886.525	14667
886.65	14644
886.775	14617
886.9	14693
887.025	14807
887.149	14712
887.274	14541
887.399	14385
887.523	14488
887.648	14408
887.773	14366
887.897	14507
888.021	14339
888.146	14549
888.27	14636
888.395	14545
888.519	14636
888.643	14431
888.767	14552
888.891	14366
889.015	14336
889.139	14336
889.263	14229
889.387	14374
889.511	14518
889.635	14457
889.759	14377
889.883	14259
890.006	14271
890.13	14499
890.254	14259
890.377	14377
890.501	14138
890.624	14103
890.748	14248
890.871	14012
890.995	14016
891.118	13909
891.241	13963
891.364	14054
891.488	14073
891.611	14005
891.734	13974
891.857	14100
891.98	14043
892.103	14092
892.226	14012
892.349	13955
892.471	13887
892.594	14001
892.717	13986
892.839	14020
892.962	14031
893.085	14031
893.207	14096
893.33	13890
893.452	14027
893.575	14020
893.697	14084
893.819	14221
893.941	14263
894.064	14157
894.186	14031
894.308	13989
894.43	14229
894.552	14282
894.674	14187
894.796	14001
894.918	14214
895.04	14142
895.161	14218
895.283	14206
895.405	14050
895.526	14096
895.648	14153
895.769	14240
895.891	14183
896.012	14210
896.134	14214
896.255	14187
896.376	14111
896.498	14229
896.619	14195
896.74	14084
896.861	14271
896.982	14598
897.103	14754
897.224	14533
897.345	14381
897.466	14484
897.587	14461
897.708	14625
897.828	14499
897.949	14469
898.07	14328
898.19	14564
898.311	14651
898.431	14571
898.552	14526
898.672	14617
898.792	14705
898.913	14590
899.033	14507
899.153	14385
899.273	14320
899.393	14393
899.513	14484
899.633	14476
899.753	14625
899.873	14419
899.993	14473
900.113	14358
900.232	14389
900.352	14328
900.472	14381
900.591	14278
900.711	14320
900.83	14248
900.95	14389
901.069	14347
901.189	14210
901.308	14031
901.427	13944
901.546	13944
901.665	13955
901.784	13997
901.904	13822
902.023	13788
902.141	13639
902.26	13548
902.379	13616
902.498	13567
902.617	13457
902.735	13510
902.854	13430
902.973	13506
903.091	13358
903.21	13297
903.328	13255
903.446	13114
903.565	13149
903.683	13080
903.801	13031
903.919	13126
904.038	13031
904.156	12913
904.274	12996
904.392	12951
904.51	12928
904.627	12840
904.745	12905
904.863	12894
904.981	12726
905.098	12620
905.216	12566
905.334	12654
905.451	12616
905.569	12608
905.686	12692
905.803	12536
905.921	12437
906.038	12486
906.155	12372
906.272	12353
906.389	12365
906.506	12133
906.623	12190
906.74	12159
906.857	12072
906.974	12091
907.091	12190
907.208	12357
907.324	12270
907.441	12114
907.557	11912
907.674	11973
907.79	11824
907.907	11908
908.023	11996
908.139	11973
908.256	11923
908.372	11859
908.488	11802
908.604	11695
908.72	11657
908.836	11722
908.952	11642
909.068	11714
909.184	11821
909.3	11779
909.415	11695
909.531	11703
909.647	11539
909.762	11406
909.878	11463
909.993	11471
910.108	11429
910.224	11463
910.339	11493
910.454	11387
910.57	11353
910.685	11284
910.8	11516
910.915	11516
911.03	11353
911.145	11166
911.259	11181
911.374	11208
911.489	11098
911.604	10942
911.718	10930
911.833	10961
911.947	10797
912.062	10763
912.176	10904
912.291	10972
912.405	10919
912.519	11109
912.633	11201
912.748	11003
912.862	10938
912.976	10706
913.09	10733
913.204	10740
913.318	10797
913.431	10847
913.545	10824
913.659	10919
913.772	10858
913.886	10653
914	10706
914.113	10778
914.226	10809
914.34	10725
914.453	10615
914.566	10771
914.68	10592
914.793	10637
914.906	10421
915.019	10470
915.132	10268
915.245	10367
915.358	10481
915.47	10455
915.583	10523
915.696	10481
915.809	10588
915.921	10573
916.034	10390
916.146	10432
916.259	10356
916.371	10497
916.483	10455
916.595	10348
916.708	10352
916.82	10390
916.932	10348
917.044	10280
917.156	10356
917.268	10238
917.38	10390
917.491	10265
917.603	10303
917.715	10314
917.826	10440
917.938	10257
918.049	10090
918.161	10257
918.272	10379
918.384	10443
918.495	10333
918.606	10173
918.717	10112
918.828	10131
918.939	10116
919.05	10067
919.161	10143
919.272	9937
919.383	10002
919.494	10188
919.604	10352
919.715	10101
919.826	10086
919.936	10143
920.047	10246
920.157	10211
920.267	10318
920.378	10207
920.488	10215
920.598	10363
920.708	10512
920.818	10386
920.928	10375
921.038	10546
921.148	10474
921.258	10234
921.368	10249
921.477	10097
921.587	10071
921.697	9899
921.806	10086
921.916	9876
922.025	9724
922.134	9732
922.244	9686
922.353	9804
922.462	9667
922.571	9576
922.68	9447
922.789	9363
922.898	9412
923.007	9374
923.116	9466
923.224	9496
923.333	9389
923.442	9329
923.55	9317
923.659	9310
923.767	9332
923.876	9233
923.984	9378
924.092	9245
924.201	9287
924.309	9291
924.417	9291
924.525	9233
924.633	9279
924.741	10169
924.849	9108
924.956	9294
925.064	9097
925.172	9058
925.279	9123
925.387	9142
925.494	9108
925.602	9256
925.709	9116
925.816	9066
925.924	9112
926.031	9211
926.138	9108
926.245	9093
926.352	9051
926.459	9150
926.566	9218
926.673	9017
926.779	9036
926.886	8933
926.993	8792
927.099	8804
927.206	8731
927.312	8792
927.419	8918
927.525	8746
927.631	8853
927.737	8697
927.843	8727
927.95	8625
928.056	8663
928.162	8724
928.267	8762
928.373	9329
928.479	8811
928.585	8575
928.69	8739
928.796	8708
928.901	8674
929.007	8431
929.112	8644
929.218	8552
929.323	8552
929.428	8503
929.533	8613
929.638	8457
929.743	8480
929.848	8579
929.953	8484
930.058	8358
930.163	8271
930.267	8252
930.372	8423
930.477	8305
930.581	8507
930.685	8263
930.79	8206
930.894	8240
930.998	8157
931.103	8415
931.207	8016
931.311	7921
931.415	7890
931.519	7704
931.623	7742
