Data from test_V78500241_2875.txt Node
Date: Fri Mar 25 14:53:43 CST 2022
User: usil
Spectrometer: V785-0024
Trigger mode: 0
Integration Time (sec): 4.000000E-1
Scans to average: 1
Nonlinearity correction enabled: false
Boxcar width: 0
Storing dark spectrum: false
XAxis mode: Wavelengths
Number of Pixels in Spectrum: 1024
>>>>>Begin Spectral Data<<<<<
801.071	22086
801.214	22032
801.356	21667
801.499	21663
801.641	21485
801.783	21401
801.926	21450
802.068	21416
802.211	21412
802.353	21275
802.496	21104
802.638	21043
802.78	20899
802.923	20845
803.065	20735
803.208	20712
803.35	20807
803.492	20883
803.635	20849
803.777	20659
803.919	20842
804.061	21142
804.204	20929
804.346	20655
804.488	20701
804.63	20826
804.773	20632
804.915	20739
805.057	20807
805.199	20629
805.341	20708
805.483	20842
805.626	20807
805.768	20750
805.91	20754
806.052	20746
806.194	20632
806.336	20765
806.478	20594
806.62	20705
806.762	20712
806.904	20849
807.046	21207
807.188	20967
807.33	21218
807.472	21154
807.614	20986
807.756	20906
807.898	20880
808.04	20743
808.182	20815
808.324	20819
808.465	20727
808.607	20937
808.749	21024
808.891	21195
809.033	21161
809.174	21211
809.316	21127
809.458	21047
809.6	20998
809.741	21203
809.883	21214
810.025	21370
810.166	21146
810.308	21230
810.45	21222
810.591	21055
810.733	20902
810.875	20796
811.016	20758
811.158	20659
811.299	20967
811.441	20971
811.582	20918
811.724	20967
811.865	20796
812.007	20701
812.148	20857
812.29	20807
812.431	20963
812.573	21150
812.714	21195
812.855	21359
812.997	21428
813.138	21500
813.279	21424
813.421	21321
813.562	21241
813.703	21108
813.845	20960
813.986	20590
814.127	20541
814.268	20404
814.41	20427
814.551	20298
814.692	20495
814.833	20362
814.974	20396
815.115	20404
815.256	20244
815.397	20286
815.539	20225
815.68	20065
815.821	20016
815.962	20126
816.103	19944
816.244	19978
816.385	19814
816.526	19784
816.666	19712
816.807	19460
816.948	19624
817.089	19750
817.23	19635
817.371	19422
817.512	19658
817.653	19487
817.793	19430
817.934	19529
818.075	19514
818.216	19567
818.356	19533
818.497	19297
818.638	19278
818.778	19225
818.919	19133
819.06	19297
819.2	19285
819.341	19411
819.481	19468
819.622	19510
819.762	19734
819.903	19502
820.043	19590
820.184	19457
820.324	19381
820.465	19578
820.605	19502
820.746	19392
820.886	19434
821.026	19388
821.167	19460
821.307	19590
821.447	19415
821.588	19426
821.728	19156
821.868	19095
822.008	18928
822.149	18833
822.289	18901
822.429	18654
822.569	18547
822.709	18635
822.849	18357
822.99	18414
823.13	18369
823.27	18391
823.41	18152
823.55	18053
823.69	18209
823.83	18159
823.97	18213
824.11	18079
824.25	17977
824.389	18011
824.529	18053
824.669	17950
824.809	18117
824.949	18060
825.089	18003
825.228	17946
825.368	17745
825.508	17668
825.648	17851
825.787	17786
825.927	17707
826.067	17623
826.206	17687
826.346	17726
826.485	17756
826.625	17786
826.765	17836
826.904	17729
827.044	17528
827.183	17558
827.323	17372
827.462	17395
827.601	17402
827.741	17387
827.88	17486
828.02	17341
828.159	17452
828.298	17448
828.437	17486
828.577	17406
828.716	17596
828.855	17410
828.994	17269
829.134	17162
829.273	17296
829.412	17090
829.551	17151
829.69	17181
829.829	17071
829.968	17391
830.107	17200
830.246	17193
830.385	17117
830.524	17128
830.663	17060
830.802	16957
830.941	16809
831.08	16790
831.219	16976
831.357	16843
831.496	17045
831.635	16828
831.774	16778
831.913	16653
832.051	16596
832.19	16569
832.329	16645
832.467	16497
832.606	16386
832.744	16405
832.883	16603
833.022	16382
833.16	16440
833.299	16516
833.437	16573
833.576	16561
833.714	16497
833.852	16607
833.991	16531
834.129	16653
834.267	16603
834.406	16516
834.544	16611
834.682	16603
834.821	16481
834.959	16706
835.097	16546
835.235	16653
835.373	16603
835.511	16523
835.65	16462
835.788	16424
835.926	16398
836.064	16337
836.202	16325
836.34	16569
836.478	16523
836.615	16489
836.753	16455
836.891	16615
837.029	16493
837.167	16379
837.305	16314
837.443	16402
837.58	16299
837.718	16523
837.856	16443
837.993	16173
838.131	16261
838.269	16200
838.406	16230
838.544	16154
838.681	16029
838.819	15911
838.956	15854
839.094	15770
839.231	15907
839.369	15991
839.506	16352
839.643	16086
839.781	15869
839.918	15861
840.055	15884
840.193	15892
840.33	15823
840.467	15861
840.604	15804
840.742	16071
840.879	15762
841.016	15819
841.153	15816
841.29	15945
841.427	15915
841.564	15907
841.701	15941
841.838	15720
841.975	15823
842.112	15774
842.249	15705
842.385	15606
842.522	15812
842.659	15667
842.796	15622
842.933	15694
843.069	15656
843.206	15625
843.343	15633
843.479	15679
843.616	15652
843.752	15462
843.889	15405
844.025	15648
844.162	15443
844.298	15534
844.435	15435
844.571	15428
844.708	15511
844.844	15561
844.98	15572
845.117	15466
845.253	15462
845.389	15279
845.525	15344
845.661	15340
845.798	15241
845.934	15222
846.07	15123
846.206	15275
846.342	15306
846.478	15256
846.614	15104
846.75	15043
846.886	14872
847.022	15081
847.158	15017
847.294	15028
847.429	14925
847.565	14967
847.701	15222
847.837	14773
847.972	14708
848.108	14792
848.244	14929
848.379	14587
848.515	14568
848.65	14537
848.786	14613
848.921	14648
849.057	14594
849.192	14648
849.328	14575
849.463	14587
849.598	14590
849.734	14552
849.869	14480
850.004	14320
850.14	14507
850.275	14427
850.41	14271
850.545	14362
850.68	14317
850.815	14339
850.95	14366
851.085	14590
851.22	14495
851.355	14343
851.49	14408
851.625	14328
851.76	14263
851.895	14275
852.03	14320
852.165	14351
852.299	14438
852.434	14431
852.569	14355
852.703	14396
852.838	14522
852.973	14476
853.107	14610
853.242	14400
853.376	14206
853.511	14069
853.645	14256
853.78	14347
853.914	14286
854.048	14221
854.183	14214
854.317	14256
854.451	14431
854.585	14221
854.72	14202
854.854	14301
854.988	14191
855.122	14172
855.256	14100
855.39	14107
855.524	14355
855.658	14355
855.792	14256
855.926	14233
856.06	14294
856.194	14298
856.327	14290
856.461	14252
856.595	14153
856.729	14161
856.862	14278
856.996	14240
857.13	14423
857.263	14355
857.397	14393
857.53	14259
857.664	14225
857.797	14377
857.931	14343
858.064	14278
858.197	14400
858.331	14282
858.464	14218
858.597	14043
858.731	14240
858.864	14191
858.997	14168
859.13	14278
859.263	14366
859.396	14294
859.529	14145
859.662	14244
859.795	14172
859.928	14187
860.061	14465
860.194	14518
860.327	14256
860.46	14221
860.592	14393
860.725	14336
860.858	14309
860.99	14275
861.123	14240
861.256	14138
861.388	14149
861.521	14796
861.653	14153
861.786	14008
861.918	14111
862.05	14168
862.183	14199
862.315	14237
862.447	14237
862.58	14130
862.712	13997
862.844	14005
862.976	14073
863.108	14031
863.24	14434
863.372	14016
863.504	14062
863.636	14073
863.768	14008
863.9	14020
864.032	14039
864.164	13963
864.296	14077
864.428	14195
864.559	14077
864.691	14046
864.823	14081
864.954	14065
865.086	14073
865.217	14062
865.349	14111
865.48	14005
865.612	14043
865.743	14172
865.875	14043
866.006	13932
866.137	13963
866.269	14069
866.4	13982
866.531	13997
866.662	14031
866.793	14031
866.924	13928
867.055	14088
867.186	14008
867.317	13932
867.448	13875
867.579	13963
867.71	14058
867.841	13830
867.972	13989
868.103	13978
868.233	14065
868.364	14031
868.495	14240
868.625	14210
868.756	14355
868.886	14237
869.017	14214
869.147	14419
869.278	14336
869.408	14176
869.539	14214
869.669	14305
869.799	14164
869.929	14434
870.06	14355
870.19	14499
870.32	14488
870.45	14579
870.58	14720
870.71	14769
870.84	14838
870.97	14571
871.1	14636
871.23	14910
871.36	14823
871.489	14746
871.619	14842
871.749	14746
871.879	14925
872.008	14975
872.138	14811
872.267	14864
872.397	14750
872.526	14651
872.656	14587
872.785	14689
872.915	14887
873.044	14906
873.173	14834
873.303	14895
873.432	14906
873.561	14960
873.69	14868
873.819	14899
873.948	14918
874.077	14830
874.206	14899
874.335	15043
874.464	15058
874.593	15154
874.722	15161
874.851	15218
874.979	15203
875.108	15195
875.237	15176
875.365	15150
875.494	15226
875.623	15279
875.751	15233
875.88	15252
876.008	15420
876.136	15481
876.265	15591
876.393	15663
876.521	15762
876.65	15690
876.778	15641
876.906	15534
877.034	15618
877.162	15614
877.29	15580
877.418	15675
877.546	15561
877.674	15576
877.802	15660
877.93	15606
878.058	15580
878.185	15557
878.313	15549
878.441	15568
878.568	15496
878.696	15526
878.824	15633
878.951	15656
879.079	15797
879.206	15953
879.333	15743
879.461	15728
879.588	15739
879.715	15835
879.842	15812
879.97	15644
880.097	15412
880.224	15428
880.351	15663
880.478	15542
880.605	15507
880.732	15447
880.859	15610
880.986	15458
881.112	15454
881.239	15344
881.366	15222
881.493	15161
881.619	15150
881.746	15089
881.872	15275
881.999	15131
882.125	15123
882.252	15199
882.378	15264
882.505	15218
882.631	15074
882.757	14838
882.883	15013
883.01	14941
883.136	14937
883.262	14796
883.388	14807
883.514	14990
883.64	14956
883.766	14815
883.892	14819
884.018	14788
884.143	14982
884.269	15058
884.395	14796
884.52	14621
884.646	14708
884.772	14568
884.897	14461
885.023	14564
885.148	14693
885.274	14842
885.399	14788
885.524	14701
885.65	14552
885.775	14640
885.9	14583
886.025	14678
886.15	14705
886.275	14670
886.4	14545
886.525	14648
886.65	14575
886.775	14594
886.9	14785
887.025	14819
887.149	14602
887.274	14518
887.399	14404
887.523	14400
887.648	14309
887.773	14442
887.897	14560
888.021	14488
888.146	14465
888.27	14545
888.395	14530
888.519	14587
888.643	14511
888.767	14556
888.891	14385
889.015	14358
889.139	14328
889.263	14385
889.387	14423
889.511	14583
889.635	14530
889.759	14317
889.883	14301
890.006	14419
890.13	14530
890.254	14199
890.377	14168
890.501	14157
890.624	14096
890.748	14267
890.871	14073
890.995	13974
891.118	13947
891.241	14035
891.364	14062
891.488	14149
891.611	14195
891.734	14161
891.857	14115
891.98	14088
892.103	14092
892.226	14123
892.349	14039
892.471	13860
892.594	14016
892.717	14081
892.839	14008
892.962	14081
893.085	14183
893.207	14050
893.33	13875
893.452	13993
893.575	14084
893.697	13989
893.819	14244
893.941	14256
894.064	14187
894.186	14008
894.308	13993
894.43	14210
894.552	14240
894.674	14214
894.796	14016
894.918	14130
895.04	14103
895.161	14202
895.283	14237
895.405	14046
895.526	14142
895.648	14172
895.769	14191
895.891	14240
896.012	14142
896.134	14221
896.255	14240
896.376	14164
896.498	14210
896.619	14271
896.74	14233
896.861	14343
896.982	14568
897.103	14720
897.224	14530
897.345	14393
897.466	14339
897.587	14476
897.708	14583
897.828	14613
897.949	14469
898.07	14400
898.19	14469
898.311	14678
898.431	14541
898.552	14640
898.672	14731
898.792	14655
898.913	14587
899.033	14507
899.153	14374
899.273	14374
899.393	14339
899.513	14495
899.633	14503
899.753	14351
899.873	14457
899.993	14465
900.113	14454
900.232	14503
900.352	14427
900.472	14358
900.591	14267
900.711	14317
900.83	14153
900.95	14328
901.069	14408
901.189	14176
901.308	14031
901.427	13963
901.546	14031
901.665	13989
901.784	14031
901.904	13883
902.023	13772
902.141	13658
902.26	13563
902.379	13632
902.498	13552
902.617	13556
902.735	13605
902.854	13537
902.973	13407
903.091	13327
903.21	13316
903.328	13255
903.446	13080
903.565	13137
903.683	13095
903.801	13038
903.919	13118
904.038	13042
904.156	12894
904.274	13061
904.392	12962
904.51	12856
904.627	12890
904.745	12867
904.863	13000
904.981	12783
905.098	12597
905.216	12582
905.334	12623
905.451	12593
905.569	12566
905.686	12646
905.803	12620
905.921	12422
906.038	12601
906.155	12376
906.272	12357
906.389	12372
906.506	12254
906.623	12182
906.74	12171
906.857	12098
906.974	12178
907.091	12319
907.208	12258
907.324	12258
907.441	12182
907.557	11988
907.674	11954
907.79	11920
907.907	11927
908.023	12049
908.139	11946
908.256	11897
908.372	11904
908.488	11893
908.604	11748
908.72	11642
908.836	11737
908.952	11707
909.068	11737
909.184	11832
909.3	11672
909.415	11703
909.531	11714
909.647	11505
909.762	11482
909.878	11368
909.993	11478
910.108	11474
910.224	11421
910.339	11539
910.454	11372
910.57	11296
910.685	11318
910.8	11520
910.915	11562
911.03	11364
911.145	11204
911.259	11143
911.374	11140
911.489	11155
911.604	11041
911.718	10908
911.833	10949
911.947	10835
912.062	10847
912.176	10957
912.291	10877
912.405	10919
912.519	11166
912.633	11124
912.748	10923
912.862	10961
912.976	10782
913.09	10710
913.204	10881
913.318	10869
913.431	10968
913.545	10915
913.659	10987
913.772	10812
913.886	10691
914	10683
914.113	10809
914.226	10911
914.34	10748
914.453	10626
914.566	10755
914.68	10649
914.793	10611
914.906	10504
915.019	10421
915.132	10379
915.245	10375
915.358	10474
915.47	10523
915.583	10459
915.696	10542
915.809	10592
915.921	10538
916.034	10485
916.146	10424
916.259	10421
916.371	10531
916.483	10474
916.595	10314
916.708	10371
916.82	10432
916.932	10432
917.044	10371
917.156	10352
917.268	10291
917.38	10310
917.491	10337
917.603	10280
917.715	10341
917.826	10352
917.938	10242
918.049	10154
918.161	10333
918.272	10352
918.384	10451
918.495	10318
918.606	10097
918.717	10162
918.828	10143
918.939	10249
919.05	10040
919.161	10093
919.272	9945
919.383	10097
919.494	10200
919.604	10379
919.715	10135
919.826	10109
919.936	10112
920.047	10227
920.157	10173
920.267	10333
920.378	10207
920.488	10207
920.598	10363
920.708	10546
920.818	10405
920.928	10405
921.038	10577
921.148	10519
921.258	10230
921.368	10086
921.477	10025
921.587	10010
921.697	9934
921.806	10150
921.916	9907
922.025	9808
922.134	9705
922.244	9614
922.353	9800
922.462	9625
922.571	9587
922.68	9507
922.789	9439
922.898	9439
923.007	9389
923.116	9481
923.224	9416
923.333	9313
923.442	9310
923.55	9313
923.659	9336
923.767	9344
923.876	9310
923.984	9359
924.092	9192
924.201	9283
924.309	9313
924.417	9275
924.525	9245
924.633	9306
924.741	10192
924.849	9119
924.956	9176
925.064	9043
925.172	9032
925.279	9039
925.387	9081
925.494	9066
925.602	9241
925.709	9116
925.816	9089
925.924	9184
926.031	9176
926.138	8982
926.245	9218
926.352	9009
926.459	9195
926.566	9195
926.673	9100
926.779	9043
926.886	8975
926.993	8781
927.099	8754
927.206	8735
927.312	8754
927.419	8857
927.525	8785
927.631	8918
927.737	8762
927.843	8678
927.95	8587
928.056	8712
928.162	8689
928.267	8735
928.373	9298
928.479	8785
928.585	8545
928.69	8659
928.796	8739
928.901	8590
929.007	8495
929.112	8594
929.218	8644
929.323	8613
929.428	8511
929.533	8644
929.638	8450
929.743	8571
929.848	8541
929.953	8476
930.058	8434
930.163	8366
930.267	8286
930.372	8423
930.477	8332
930.581	8476
930.685	8396
930.79	8259
930.894	8279
930.998	8233
931.103	8298
931.207	8046
931.311	8065
931.415	7860
931.519	7731
931.623	7772
