Data from test_V78500241_3095.txt Node
Date: Fri Mar 25 14:55:15 CST 2022
User: usil
Spectrometer: V785-0024
Trigger mode: 0
Integration Time (sec): 4.000000E-1
Scans to average: 1
Nonlinearity correction enabled: false
Boxcar width: 0
Storing dark spectrum: false
XAxis mode: Wavelengths
Number of Pixels in Spectrum: 1024
>>>>>Begin Spectral Data<<<<<
801.071	21987
801.214	21956
801.356	21663
801.499	21561
801.641	21370
801.783	21439
801.926	21424
802.068	21428
802.211	21294
802.353	21226
802.496	21058
802.638	20956
802.78	20937
802.923	20819
803.065	20697
803.208	20739
803.35	20807
803.492	20849
803.635	20971
803.777	20849
803.919	20830
804.061	21032
804.204	20834
804.346	20686
804.488	20708
804.63	20842
804.773	20617
804.915	20693
805.057	20891
805.199	20716
805.341	20754
805.483	20758
805.626	20705
805.768	20644
805.91	20648
806.052	20800
806.194	20533
806.336	20788
806.478	20686
806.62	20648
806.762	20670
806.904	20899
807.046	21226
807.188	20948
807.33	21058
807.472	21024
807.614	20773
807.756	20937
807.898	20785
808.04	20777
808.182	20705
808.324	20819
808.465	20830
808.607	20921
808.749	21104
808.891	21074
809.033	21176
809.174	21142
809.316	21017
809.458	21009
809.6	20948
809.741	21077
809.883	21157
810.025	21294
810.166	21226
810.308	21154
810.45	21245
810.591	21123
810.733	21005
810.875	20948
811.016	20929
811.158	20796
811.299	20956
811.441	20941
811.582	20899
811.724	20788
811.865	20731
812.007	20796
812.148	20918
812.29	20868
812.431	20902
812.573	21165
812.714	21138
812.855	21336
812.997	21420
813.138	21545
813.279	21492
813.421	21424
813.562	21207
813.703	21024
813.845	20929
813.986	20674
814.127	20503
814.268	20492
814.41	20282
814.551	20332
814.692	20465
814.833	20309
814.974	20339
815.115	20385
815.256	20229
815.397	20138
815.539	20256
815.68	20161
815.821	19959
815.962	20111
816.103	20008
816.244	19902
816.385	19826
816.526	19871
816.666	19647
816.807	19556
816.948	19533
817.089	19537
817.23	19670
817.371	19487
817.512	19575
817.653	19514
817.793	19430
817.934	19422
818.075	19460
818.216	19559
818.356	19434
818.497	19407
818.638	19175
818.778	19187
818.919	19141
819.06	19137
819.2	19270
819.341	19403
819.481	19396
819.622	19510
819.762	19677
819.903	19643
820.043	19495
820.184	19476
820.324	19480
820.465	19559
820.605	19453
820.746	19434
820.886	19369
821.026	19373
821.167	19400
821.307	19533
821.447	19365
821.588	19255
821.728	19187
821.868	19038
822.008	18905
822.149	18798
822.289	18859
822.429	18597
822.569	18540
822.709	18578
822.849	18414
822.99	18429
823.13	18350
823.27	18319
823.41	18136
823.55	18125
823.69	18277
823.83	18133
823.97	18072
824.11	17931
824.25	17961
824.389	18034
824.529	18034
824.669	17916
824.809	18045
824.949	17927
825.089	17984
825.228	17885
825.368	17802
825.508	17737
825.648	17847
825.787	17665
825.927	17798
826.067	17691
826.206	17672
826.346	17729
826.485	17653
826.625	17642
826.765	17748
826.904	17699
827.044	17501
827.183	17421
827.323	17376
827.462	17551
827.601	17417
827.741	17410
827.88	17398
828.02	17318
828.159	17303
828.298	17406
828.437	17425
828.577	17360
828.716	17452
828.855	17383
828.994	17105
829.134	17193
829.273	17296
829.412	17151
829.551	17022
829.69	17113
829.829	17174
829.968	17258
830.107	17311
830.246	17223
830.385	17140
830.524	17022
830.663	17064
830.802	16805
830.941	16839
831.08	16679
831.219	16831
831.357	16793
831.496	16904
831.635	16748
831.774	16660
831.913	16664
832.051	16596
832.19	16440
832.329	16599
832.467	16470
832.606	16424
832.744	16474
832.883	16371
833.022	16360
833.16	16504
833.299	16470
833.437	16478
833.576	16508
833.714	16470
833.852	16626
833.991	16493
834.129	16504
834.267	16561
834.406	16409
834.544	16565
834.682	16508
834.821	16424
834.959	16596
835.097	16485
835.235	16554
835.373	16462
835.511	16489
835.65	16485
835.788	16306
835.926	16360
836.064	16169
836.202	16234
836.34	16303
836.478	16535
836.615	16443
836.753	16356
836.891	16417
837.029	16455
837.167	16299
837.305	16371
837.443	16398
837.58	16246
837.718	16280
837.856	16337
837.993	16188
838.131	16230
838.269	16196
838.406	16257
838.544	16131
838.681	16025
838.819	15892
838.956	15888
839.094	15808
839.231	15975
839.369	15987
839.506	16166
839.643	16135
839.781	15835
839.918	15755
840.055	15888
840.193	15766
840.33	15827
840.467	15679
840.604	15812
840.742	16013
840.879	15641
841.016	15819
841.153	15648
841.29	15983
841.427	15671
841.564	15827
841.701	15778
841.838	15709
841.975	15709
842.112	15736
842.249	15641
842.385	15644
842.522	15827
842.659	15595
842.796	15603
842.933	15652
843.069	15534
843.206	15553
843.343	15618
843.479	15633
843.616	15542
843.752	15386
843.889	15321
844.025	15557
844.162	15435
844.298	15526
844.435	15241
844.571	15374
844.708	15428
844.844	15469
844.98	15511
845.117	15458
845.253	15317
845.389	15264
845.525	15287
845.661	15359
845.798	15119
845.934	15226
846.07	15214
846.206	15237
846.342	15199
846.478	15241
846.614	15009
846.75	14834
846.886	14788
847.022	15047
847.158	14937
847.294	14872
847.429	14937
847.565	14902
847.701	15176
847.837	14693
847.972	14640
848.108	14807
848.244	14773
848.379	14670
848.515	14511
848.65	14507
848.786	14583
848.921	14514
849.057	14613
849.192	14632
849.328	14579
849.463	14587
849.598	14423
849.734	14507
849.869	14351
850.004	14328
850.14	14343
850.275	14256
850.41	14271
850.545	14237
850.68	14240
850.815	14313
850.95	14343
851.085	14415
851.22	14408
851.355	14202
851.49	14355
851.625	14229
851.76	14328
851.895	14195
852.03	14180
852.165	14282
852.299	14358
852.434	14393
852.569	14374
852.703	14278
852.838	14320
852.973	14396
853.107	14438
853.242	14290
853.376	14187
853.511	14157
853.645	14103
853.78	14317
853.914	14168
854.048	14187
854.183	14202
854.317	14172
854.451	14332
854.585	14115
854.72	14199
854.854	14161
854.988	14096
855.122	14115
855.256	14024
855.39	14035
855.524	14244
855.658	14119
855.792	14126
855.926	14176
856.06	14290
856.194	14271
856.327	14195
856.461	14046
856.595	14126
856.729	14088
856.862	14317
856.996	14218
857.13	14278
857.263	14343
857.397	14221
857.53	14176
857.664	14267
857.797	14240
857.931	14221
858.064	14088
858.197	14278
858.331	14172
858.464	14065
858.597	14107
858.731	14088
858.864	14157
858.997	14214
859.13	14134
859.263	14168
859.396	14153
859.529	14123
859.662	14115
859.795	14126
859.928	14176
860.061	14282
860.194	14309
860.327	14172
860.46	14195
860.592	14355
860.725	14305
860.858	14355
860.99	14142
861.123	14130
861.256	14050
861.388	14161
861.521	14811
861.653	14005
861.786	14024
861.918	14088
862.05	14050
862.183	14157
862.315	14096
862.447	14176
862.58	14134
862.712	13909
862.844	13986
862.976	14012
863.108	14058
863.24	14278
863.372	13833
863.504	13978
863.636	13967
863.768	14043
863.9	14084
864.032	13864
864.164	13955
864.296	13974
864.428	14065
864.559	14088
864.691	14039
864.823	14001
864.954	13970
865.086	14050
865.217	13989
865.349	13921
865.48	13955
865.612	13978
865.743	14119
865.875	13909
866.006	13913
866.137	13883
866.269	13959
866.4	13978
866.531	13864
866.662	13898
866.793	13849
866.924	13871
867.055	13887
867.186	13940
867.317	13913
867.448	13788
867.579	13909
867.71	13852
867.841	13769
867.972	13906
868.103	13883
868.233	13906
868.364	13890
868.495	14134
868.625	14244
868.756	14278
868.886	14187
869.017	14256
869.147	14324
869.278	14309
869.408	14180
869.539	14214
869.669	14229
869.799	14355
869.929	14278
870.06	14358
870.19	14492
870.32	14480
870.45	14541
870.58	14648
870.71	14788
870.84	14743
870.97	14598
871.1	14568
871.23	14838
871.36	14758
871.489	14735
871.619	14788
871.749	14804
871.879	14826
872.008	14933
872.138	14785
872.267	14754
872.397	14670
872.526	14632
872.656	14613
872.785	14678
872.915	14811
873.044	14929
873.173	14838
873.303	14876
873.432	14891
873.561	14925
873.69	14849
873.819	14826
873.948	14849
874.077	14929
874.206	14853
874.335	14883
874.464	15020
874.593	15074
874.722	15127
874.851	15298
874.979	15142
875.108	15211
875.237	15100
875.365	14971
875.494	15195
875.623	15237
875.751	15104
875.88	15195
876.008	15287
876.136	15382
876.265	15576
876.393	15679
876.521	15690
876.65	15709
876.778	15644
876.906	15629
877.034	15584
877.162	15564
877.29	15561
877.418	15523
877.546	15542
877.674	15534
877.802	15580
877.93	15568
878.058	15485
878.185	15408
878.313	15500
878.441	15542
878.568	15435
878.696	15428
878.824	15557
878.951	15610
879.079	15724
879.206	15884
879.333	15713
879.461	15614
879.588	15739
879.715	15751
879.842	15895
879.97	15633
880.097	15511
880.224	15382
880.351	15466
880.478	15450
880.605	15359
880.732	15435
880.859	15618
880.986	15439
881.112	15443
881.239	15344
881.366	15165
881.493	15116
881.619	15112
881.746	15112
881.872	15005
881.999	15039
882.125	14967
882.252	15108
882.378	15245
882.505	15180
882.631	15020
882.757	14944
882.883	14914
883.01	14899
883.136	14853
883.262	14796
883.388	14796
883.514	14891
883.64	15024
883.766	14910
883.892	14792
884.018	14712
884.143	14921
884.269	15036
884.395	14602
884.52	14602
884.646	14610
884.772	14438
884.897	14465
885.023	14659
885.148	14678
885.274	14792
885.399	14587
885.524	14632
885.65	14659
885.775	14648
885.9	14648
886.025	14739
886.15	14701
886.275	14613
886.4	14499
886.525	14575
886.65	14488
886.775	14549
886.9	14678
887.025	14849
887.149	14602
887.274	14431
887.399	14473
887.523	14393
887.648	14362
887.773	14298
887.897	14488
888.021	14522
888.146	14492
888.27	14499
888.395	14549
888.519	14469
888.643	14366
888.767	14446
888.891	14347
889.015	14301
889.139	14404
889.263	14244
889.387	14427
889.511	14484
889.635	14454
889.759	14282
889.883	14202
890.006	14374
890.13	14404
890.254	14267
890.377	14237
890.501	14153
890.624	14123
890.748	14183
890.871	14065
890.995	13944
891.118	13906
891.241	14050
891.364	14069
891.488	14008
891.611	14050
891.734	14058
891.857	14058
891.98	14031
892.103	14157
892.226	14107
892.349	14058
892.471	13879
892.594	13932
892.717	14008
892.839	13970
892.962	14035
893.085	14046
893.207	14054
893.33	13921
893.452	13837
893.575	14020
893.697	13978
893.819	14145
893.941	14221
894.064	14168
894.186	14020
894.308	13932
894.43	14206
894.552	14225
894.674	14138
894.796	13955
894.918	14058
895.04	13982
895.161	14115
895.283	14221
895.405	14050
895.526	14065
895.648	14100
895.769	14145
895.891	14278
896.012	14210
896.134	14119
896.255	14084
896.376	14149
896.498	14252
896.619	14282
896.74	14119
896.861	14206
896.982	14442
897.103	14571
897.224	14465
897.345	14438
897.466	14351
897.587	14366
897.708	14598
897.828	14488
897.949	14454
898.07	14404
898.19	14347
898.311	14610
898.431	14511
898.552	14621
898.672	14625
898.792	14651
898.913	14602
899.033	14362
899.153	14442
899.273	14286
899.393	14381
899.513	14396
899.633	14412
899.753	14317
899.873	14370
899.993	14469
900.113	14415
900.232	14488
900.352	14457
900.472	14305
900.591	14225
900.711	14183
900.83	14252
900.95	14183
901.069	14381
901.189	14183
901.308	13913
901.427	13955
901.546	13970
901.665	13986
901.784	13993
901.904	13856
902.023	13765
902.141	13575
902.26	13445
902.379	13586
902.498	13468
902.617	13483
902.735	13575
902.854	13567
902.973	13438
903.091	13324
903.21	13316
903.328	13274
903.446	13179
903.565	13156
903.683	13175
903.801	13012
903.919	13019
904.038	13110
904.156	12954
904.274	12966
904.392	12875
904.51	13008
904.627	12920
904.745	12996
904.863	12924
904.981	12741
905.098	12578
905.216	12574
905.334	12692
905.451	12559
905.569	12509
905.686	12623
905.803	12692
905.921	12433
906.038	12513
906.155	12429
906.272	12304
906.389	12384
906.506	12136
906.623	12175
906.74	12114
906.857	12087
906.974	12201
907.091	12315
907.208	12399
907.324	12220
907.441	12201
907.557	11878
907.674	11996
907.79	11961
907.907	11912
908.023	11988
908.139	12030
908.256	11954
908.372	11851
908.488	11828
908.604	11707
908.72	11646
908.836	11714
908.952	11714
909.068	11684
909.184	11771
909.3	11710
909.415	11790
909.531	11737
909.647	11577
909.762	11452
909.878	11478
909.993	11623
910.108	11539
910.224	11452
910.339	11551
910.454	11436
910.57	11387
910.685	11299
910.8	11604
910.915	11501
911.03	11337
911.145	11159
911.259	11098
911.374	11201
911.489	11067
911.604	11048
911.718	10976
911.833	11010
911.947	10843
912.062	10850
912.176	10930
912.291	10892
912.405	10968
912.519	11075
912.633	11109
912.748	11029
912.862	11010
912.976	10847
913.09	10733
913.204	10710
913.318	10816
913.431	10824
913.545	10831
913.659	10915
913.772	10877
913.886	10691
914	10607
914.113	10763
914.226	10839
914.34	10763
914.453	10641
914.566	10729
914.68	10618
914.793	10599
914.906	10500
915.019	10459
915.132	10417
915.245	10478
915.358	10394
915.47	10443
915.583	10451
915.696	10569
915.809	10558
915.921	10615
916.034	10455
916.146	10379
916.259	10333
916.371	10462
916.483	10485
916.595	10382
916.708	10360
916.82	10333
916.932	10382
917.044	10348
917.156	10398
917.268	10196
917.38	10291
917.491	10242
917.603	10325
917.715	10322
917.826	10394
917.938	10238
918.049	10162
918.161	10291
918.272	10329
918.384	10360
918.495	10341
918.606	10238
918.717	10086
918.828	10162
918.939	10169
919.05	10097
919.161	10188
919.272	9918
919.383	9991
919.494	10150
919.604	10394
919.715	10143
919.826	10086
919.936	10147
920.047	10257
920.157	10131
920.267	10409
920.378	10257
920.488	10139
920.598	10375
920.708	10432
920.818	10432
920.928	10348
921.038	10584
921.148	10481
921.258	10192
921.368	10188
921.477	10078
921.587	10006
921.697	9926
921.806	10071
921.916	9994
922.025	9759
922.134	9694
922.244	9774
922.353	9778
922.462	9694
922.571	9603
922.68	9496
922.789	9359
922.898	9313
923.007	9428
923.116	9439
923.224	9397
923.333	9336
923.442	9340
923.55	9294
923.659	9351
923.767	9370
923.876	9287
923.984	9447
924.092	9287
924.201	9367
924.309	9306
924.417	9332
924.525	9256
924.633	9222
924.741	10154
924.849	9024
924.956	9275
925.064	9017
925.172	9024
925.279	9051
925.387	9150
925.494	9207
925.602	9241
925.709	9123
925.816	8952
925.924	9108
926.031	9154
926.138	9100
926.245	9157
926.352	8994
926.459	9131
926.566	9146
926.673	9036
926.779	9043
926.886	8994
926.993	8868
927.099	8868
927.206	8815
927.312	8762
927.419	8880
927.525	8792
927.631	8891
927.737	8705
927.843	8762
927.95	8571
928.056	8682
928.162	8731
928.267	8796
928.373	9393
928.479	8857
928.585	8606
928.69	8708
928.796	8720
928.901	8636
929.007	8450
929.112	8629
929.218	8644
929.323	8545
929.428	8438
929.533	8659
929.638	8480
929.743	8476
929.848	8629
929.953	8488
930.058	8431
930.163	8202
930.267	8275
930.372	8366
930.477	8237
930.581	8514
930.685	8366
930.79	8259
930.894	8225
930.998	8229
931.103	8415
931.207	7974
931.311	7997
931.415	7909
931.519	7795
931.623	7761
