Data from test_V78500241_1870.txt Node
Date: Fri Mar 25 14:46:44 CST 2022
User: usil
Spectrometer: V785-0024
Trigger mode: 0
Integration Time (sec): 4.000000E-1
Scans to average: 1
Nonlinearity correction enabled: false
Boxcar width: 0
Storing dark spectrum: false
XAxis mode: Wavelengths
Number of Pixels in Spectrum: 1024
>>>>>Begin Spectral Data<<<<<
801.071	22116
801.214	22067
801.356	21808
801.499	21713
801.641	21542
801.783	21473
801.926	21557
802.068	21481
802.211	21454
802.353	21275
802.496	21169
802.638	20982
802.78	20986
802.923	20868
803.065	20929
803.208	20667
803.35	20914
803.492	20895
803.635	20944
803.777	20853
803.919	20929
804.061	21272
804.204	20883
804.346	20777
804.488	20727
804.63	20883
804.773	20606
804.915	20777
805.057	20857
805.199	20701
805.341	20796
805.483	20682
805.626	20785
805.768	20781
805.91	20762
806.052	20777
806.194	20724
806.336	21028
806.478	20739
806.62	20754
806.762	20921
806.904	20910
807.046	21165
807.188	21051
807.33	21009
807.472	21135
807.614	20963
807.756	20982
807.898	20838
808.04	20811
808.182	20910
808.324	20845
808.465	20861
808.607	21165
808.749	21154
808.891	21157
809.033	21310
809.174	21283
809.316	21123
809.458	21055
809.6	21077
809.741	21207
809.883	21207
810.025	21332
810.166	21142
810.308	21291
810.45	21195
810.591	21013
810.733	20918
810.875	20941
811.016	20876
811.158	20678
811.299	20929
811.441	21047
811.582	20914
811.724	20960
811.865	20796
812.007	20975
812.148	20876
812.29	20891
812.431	21108
812.573	21066
812.714	21272
812.855	21416
812.997	21435
813.138	21557
813.279	21340
813.421	21389
813.562	21256
813.703	21135
813.845	21001
813.986	20918
814.127	20609
814.268	20514
814.41	20476
814.551	20381
814.692	20469
814.833	20408
814.974	20317
815.115	20438
815.256	20271
815.397	20206
815.539	20294
815.68	20153
815.821	20145
815.962	20202
816.103	20115
816.244	19978
816.385	19978
816.526	20031
816.666	19761
816.807	19605
816.948	19696
817.089	19647
817.23	19601
817.371	19525
817.512	19556
817.653	19597
817.793	19502
817.934	19422
818.075	19521
818.216	19689
818.356	19457
818.497	19350
818.638	19285
818.778	19278
818.919	19259
819.06	19282
819.2	19327
819.341	19468
819.481	19419
819.622	19548
819.762	19753
819.903	19738
820.043	19582
820.184	19563
820.324	19487
820.465	19750
820.605	19521
820.746	19502
820.886	19289
821.026	19518
821.167	19537
821.307	19552
821.447	19506
821.588	19362
821.728	19308
821.868	19137
822.008	18951
822.149	18935
822.289	18886
822.429	18646
822.569	18711
822.709	18528
822.849	18437
822.99	18391
823.13	18441
823.27	18376
823.41	18197
823.55	18247
823.69	18296
823.83	18369
823.97	18129
824.11	18106
824.25	17988
824.389	18091
824.529	18121
824.669	18041
824.809	18163
824.949	18190
825.089	18114
825.228	18121
825.368	17779
825.508	17859
825.648	17783
825.787	17965
825.927	17813
826.067	17824
826.206	17748
826.346	17771
826.485	17824
826.625	17745
826.765	17885
826.904	17923
827.044	17611
827.183	17566
827.323	17444
827.462	17516
827.601	17448
827.741	17532
827.88	17634
828.02	17402
828.159	17452
828.298	17474
828.437	17600
828.577	17516
828.716	17665
828.855	17387
828.994	17296
829.134	17265
829.273	17303
829.412	17254
829.551	17132
829.69	17174
829.829	17239
829.968	17356
830.107	17307
830.246	17284
830.385	17200
830.524	17223
830.663	17067
830.802	17052
830.941	16980
831.08	16854
831.219	16961
831.357	16976
831.496	17132
831.635	16995
831.774	16763
831.913	16752
832.051	16584
832.19	16713
832.329	16637
832.467	16550
832.606	16546
832.744	16588
832.883	16622
833.022	16493
833.16	16721
833.299	16542
833.437	16497
833.576	16615
833.714	16653
833.852	16664
833.991	16622
834.129	16603
834.267	16755
834.406	16546
834.544	16660
834.682	16702
834.821	16653
834.959	16793
835.097	16656
835.235	16645
835.373	16603
835.511	16630
835.65	16550
835.788	16550
835.926	16417
836.064	16371
836.202	16375
836.34	16599
836.478	16653
836.615	16485
836.753	16561
836.891	16721
837.029	16649
837.167	16470
837.305	16462
837.443	16428
837.58	16291
837.718	16519
837.856	16489
837.993	16394
838.131	16398
838.269	16390
838.406	16466
838.544	16295
838.681	16120
838.819	16120
838.956	15972
839.094	16010
839.231	15949
839.369	16124
839.506	16341
839.643	16154
839.781	15949
839.918	15998
840.055	16006
840.193	15975
840.33	15888
840.467	16051
840.604	16036
840.742	16177
840.879	15937
841.016	15903
841.153	15892
841.29	16086
841.427	15972
841.564	16006
841.701	15998
841.838	15873
841.975	15869
842.112	15804
842.249	15831
842.385	15755
842.522	15922
842.659	15766
842.796	15667
842.933	15747
843.069	15720
843.206	15679
843.343	15778
843.479	15789
843.616	15690
843.752	15557
843.889	15595
844.025	15682
844.162	15466
844.298	15618
844.435	15458
844.571	15492
844.708	15614
844.844	15667
844.98	15663
845.117	15652
845.253	15561
845.389	15450
845.525	15405
845.661	15363
845.798	15340
845.934	15332
846.07	15325
846.206	15428
846.342	15504
846.478	15302
846.614	15131
846.75	15051
846.886	15085
847.022	15237
847.158	15180
847.294	15135
847.429	15116
847.565	15157
847.701	15317
847.837	14902
847.972	14834
848.108	14925
848.244	14864
848.379	14773
848.515	14769
848.65	14720
848.786	14743
848.921	14720
849.057	14781
849.192	14887
849.328	14773
849.463	14708
849.598	14682
849.734	14731
849.869	14686
850.004	14552
850.14	14457
850.275	14495
850.41	14518
850.545	14427
850.68	14396
850.815	14579
850.95	14514
851.085	14648
851.22	14716
851.355	14590
851.49	14423
851.625	14503
851.76	14484
851.895	14484
852.03	14362
852.165	14564
852.299	14541
852.434	14629
852.569	14552
852.703	14511
852.838	14571
852.973	14636
853.107	14674
853.242	14495
853.376	14381
853.511	14332
853.645	14377
853.78	14537
853.914	14412
854.048	14408
854.183	14415
854.317	14442
854.451	14564
854.585	14290
854.72	14328
854.854	14461
854.988	14343
855.122	14396
855.256	14199
855.39	14237
855.524	14423
855.658	14412
855.792	14385
855.926	14492
856.06	14499
856.194	14511
856.327	14404
856.461	14317
856.595	14305
856.729	14381
856.862	14488
856.996	14389
857.13	14434
857.263	14499
857.397	14507
857.53	14381
857.664	14473
857.797	14454
857.931	14564
858.064	14408
858.197	14465
858.331	14450
858.464	14355
858.597	14256
858.731	14324
858.864	14438
858.997	14366
859.13	14355
859.263	14484
859.396	14522
859.529	14362
859.662	14442
859.795	14305
859.928	14454
860.061	14583
860.194	14537
860.327	14358
860.46	14358
860.592	14514
860.725	14651
860.858	14450
860.99	14423
861.123	14313
861.256	14332
861.388	14434
861.521	14975
861.653	14336
861.786	14157
861.918	14248
862.05	14252
862.183	14305
862.315	14461
862.447	14347
862.58	14313
862.712	14221
862.844	14248
862.976	14305
863.108	14221
863.24	14564
863.372	14134
863.504	14130
863.636	14168
863.768	14248
863.9	14077
864.032	14100
864.164	14115
864.296	14183
864.428	14206
864.559	14275
864.691	14263
864.823	14267
864.954	14240
865.086	14115
865.217	14180
865.349	14077
865.48	14191
865.612	14256
865.743	14267
865.875	14111
866.006	14107
866.137	14153
866.269	14157
866.4	14164
866.531	14065
866.662	14096
866.793	14130
866.924	14149
867.055	14256
867.186	14107
867.317	14031
867.448	14054
867.579	14065
867.71	14130
867.841	14058
867.972	14088
868.103	14172
868.233	14119
868.364	14107
868.495	14233
868.625	14309
868.756	14552
868.886	14290
869.017	14488
869.147	14488
869.278	14461
869.408	14446
869.539	14412
869.669	14305
869.799	14457
869.929	14446
870.06	14469
870.19	14712
870.32	14689
870.45	14693
870.58	14792
870.71	14876
870.84	14895
870.97	14765
871.1	14716
871.23	15036
871.36	15001
871.489	14876
871.619	14925
871.749	14918
871.879	15100
872.008	15104
872.138	15001
872.267	14910
872.397	14830
872.526	14845
872.656	14842
872.785	14701
872.915	15028
873.044	15051
873.173	15066
873.303	15077
873.432	15112
873.561	15131
873.69	15066
873.819	15051
873.948	15074
874.077	15043
874.206	14998
874.335	15058
874.464	15203
874.593	15401
874.722	15256
874.851	15332
874.979	15302
875.108	15386
875.237	15332
875.365	15233
875.494	15165
875.623	15450
875.751	15386
875.88	15454
876.008	15466
876.136	15564
876.265	15751
876.393	15918
876.521	15915
876.65	15800
876.778	15755
876.906	15774
877.034	15648
877.162	15778
877.29	15713
877.418	15701
877.546	15800
877.674	15785
877.802	15728
877.93	15694
878.058	15641
878.185	15625
878.313	15762
878.441	15827
878.568	15614
878.696	15614
878.824	15724
878.951	15770
879.079	15899
879.206	16051
879.333	15983
879.461	15880
879.588	15880
879.715	16021
879.842	15994
879.97	15785
880.097	15603
880.224	15648
880.351	15587
880.478	15587
880.605	15599
880.732	15595
880.859	15800
880.986	15580
881.112	15682
881.239	15492
881.366	15431
881.493	15355
881.619	15317
881.746	15359
881.872	15241
881.999	15233
882.125	15260
882.252	15401
882.378	15313
882.505	15500
882.631	15169
882.757	15135
882.883	15157
883.01	15150
883.136	15089
883.262	14975
883.388	14948
883.514	15195
883.64	15188
883.766	15036
883.892	14967
884.018	14864
884.143	15058
884.269	15241
884.395	14838
884.52	14746
884.646	14838
884.772	14712
884.897	14758
885.023	14792
885.148	14880
885.274	14895
885.399	14883
885.524	14853
885.65	14788
885.775	14823
885.9	14746
886.025	14864
886.15	14906
886.275	14739
886.4	14587
886.525	14758
886.65	14663
886.775	14739
886.9	14853
887.025	15043
887.149	14826
887.274	14629
887.399	14636
887.523	14564
887.648	14545
887.773	14537
887.897	14712
888.021	14712
888.146	14533
888.27	14724
888.395	14720
888.519	14571
888.643	14731
888.767	14724
888.891	14514
889.015	14434
889.139	14610
889.263	14442
889.387	14575
889.511	14613
889.635	14629
889.759	14514
889.883	14431
890.006	14530
890.13	14579
890.254	14454
890.377	14385
890.501	14332
890.624	14294
890.748	14377
890.871	14134
890.995	14054
891.118	14103
891.241	14256
891.364	14111
891.488	14214
891.611	14202
891.734	14164
891.857	14218
891.98	14240
892.103	14237
892.226	14286
892.349	14115
892.471	14088
892.594	14153
892.717	14168
892.839	14107
892.962	14240
893.085	14294
893.207	14039
893.33	14142
893.452	14107
893.575	14252
893.697	14084
893.819	14328
893.941	14362
894.064	14214
894.186	14115
894.308	14195
894.43	14332
894.552	14393
894.674	14271
894.796	14168
894.918	14290
895.04	14164
895.161	14301
895.283	14263
895.405	14275
895.526	14214
895.648	14271
895.769	14317
895.891	14355
896.012	14412
896.134	14282
896.255	14317
896.376	14286
896.498	14275
896.619	14336
896.74	14358
896.861	14431
896.982	14705
897.103	14861
897.224	14731
897.345	14587
897.466	14549
897.587	14533
897.708	14777
897.828	14640
897.949	14545
898.07	14492
898.19	14507
898.311	14777
898.431	14655
898.552	14659
898.672	14769
898.792	14739
898.913	14769
899.033	14575
899.153	14667
899.273	14495
899.393	14419
899.513	14530
899.633	14602
899.753	14507
899.873	14583
899.993	14590
900.113	14476
900.232	14549
900.352	14492
900.472	14507
900.591	14381
900.711	14358
900.83	14286
900.95	14465
901.069	14530
901.189	14317
901.308	14153
901.427	14016
901.546	14081
901.665	14183
901.784	14073
901.904	13955
902.023	13849
902.141	13632
902.26	13632
902.379	13712
902.498	13753
902.617	13544
902.735	13632
902.854	13620
902.973	13518
903.091	13354
903.21	13343
903.328	13365
903.446	13278
903.565	13232
903.683	13324
903.801	13053
903.919	13183
904.038	13240
904.156	13099
904.274	13057
904.392	12966
904.51	13053
904.627	13072
904.745	13129
904.863	13133
904.981	12806
905.098	12707
905.216	12681
905.334	12783
905.451	12703
905.569	12688
905.686	12772
905.803	12639
905.921	12525
906.038	12601
906.155	12563
906.272	12456
906.389	12483
906.506	12281
906.623	12346
906.74	12296
906.857	12213
906.974	12251
907.091	12361
907.208	12433
907.324	12391
907.441	12216
907.557	12045
907.674	11977
907.79	11984
907.907	12087
908.023	12121
908.139	12030
908.256	11988
908.372	11958
908.488	11950
908.604	11935
908.72	11745
908.836	11767
908.952	11737
909.068	11817
909.184	11916
909.3	11840
909.415	11885
909.531	11836
909.647	11600
909.762	11695
909.878	11551
909.993	11657
910.108	11535
910.224	11611
910.339	11676
910.454	11490
910.57	11467
910.685	11341
910.8	11722
910.915	11585
911.03	11387
911.145	11288
911.259	11254
911.374	11318
911.489	11170
911.604	11189
911.718	10995
911.833	11010
911.947	10987
912.062	10915
912.176	11041
912.291	11090
912.405	11064
912.519	11239
912.633	11341
912.748	11064
912.862	11052
912.976	10984
913.09	10854
913.204	10858
913.318	10881
913.431	11052
913.545	10961
913.659	11025
913.772	10927
913.886	10744
914	10881
914.113	10930
914.226	10919
914.34	10923
914.453	10694
914.566	10927
914.68	10786
914.793	10812
914.906	10569
915.019	10550
915.132	10440
915.245	10577
915.358	10592
915.47	10592
915.583	10500
915.696	10577
915.809	10771
915.921	10660
916.034	10531
916.146	10474
916.259	10455
916.371	10641
916.483	10611
916.595	10493
916.708	10481
916.82	10466
916.932	10440
917.044	10394
917.156	10432
917.268	10421
917.38	10341
917.491	10386
917.603	10371
917.715	10489
917.826	10485
917.938	10344
918.049	10204
918.161	10428
918.272	10531
918.384	10569
918.495	10432
918.606	10310
918.717	10223
918.828	10242
918.939	10306
919.05	10154
919.161	10287
919.272	10082
919.383	10131
919.494	10394
919.604	10512
919.715	10295
919.826	10196
919.936	10276
920.047	10367
920.157	10333
920.267	10466
920.378	10272
920.488	10265
920.598	10497
920.708	10588
920.818	10440
920.928	10462
921.038	10675
921.148	10615
921.258	10337
921.368	10261
921.477	10200
921.587	10128
921.697	10082
921.806	10192
921.916	10101
922.025	9819
922.134	9899
922.244	9850
922.353	9831
922.462	9759
922.571	9736
922.68	9595
922.789	9435
922.898	9614
923.007	9549
923.116	9542
923.224	9526
923.333	9542
923.442	9507
923.55	9435
923.659	9458
923.767	9523
923.876	9412
923.984	9530
924.092	9306
924.201	9412
924.309	9397
924.417	9450
924.525	9359
924.633	9389
924.741	10360
924.849	9226
924.956	9336
925.064	9108
925.172	9169
925.279	9192
925.387	9157
925.494	9249
925.602	9275
925.709	9230
925.816	9188
925.924	9245
926.031	9268
926.138	9233
926.245	9272
926.352	9112
926.459	9279
926.566	9294
926.673	9154
926.779	9104
926.886	9009
926.993	8948
927.099	8876
927.206	8823
927.312	8868
927.419	8944
927.525	8925
927.631	8925
927.737	8815
927.843	8811
927.95	8724
928.056	8876
928.162	8792
928.267	8861
928.373	9420
928.479	8952
928.585	8705
928.69	8758
928.796	8788
928.901	8705
929.007	8636
929.112	8746
929.218	8705
929.323	8606
929.428	8632
929.533	8796
929.638	8636
929.743	8625
929.848	8667
929.953	8636
930.058	8450
930.163	8332
930.267	8438
930.372	8492
930.477	8415
930.581	8590
930.685	8518
930.79	8347
930.894	8362
930.998	8298
931.103	8495
931.207	8107
931.311	8043
931.415	8024
931.519	7883
931.623	7890
