Data from test_V78500241_759.txt Node
Date: Fri Mar 25 14:39:00 CST 2022
User: usil
Spectrometer: V785-0024
Trigger mode: 0
Integration Time (sec): 4.000000E-1
Scans to average: 1
Nonlinearity correction enabled: false
Boxcar width: 0
Storing dark spectrum: false
XAxis mode: Wavelengths
Number of Pixels in Spectrum: 1024
>>>>>Begin Spectral Data<<<<<
801.071	27017
801.214	26815
801.356	26629
801.499	26526
801.641	26404
801.783	26282
801.926	26278
802.068	26259
802.211	26183
802.353	26050
802.496	25902
802.638	25894
802.78	25818
802.923	25700
803.065	25693
803.208	25750
803.35	25734
803.492	25868
803.635	26001
803.777	26027
803.919	25978
804.061	26362
804.204	26046
804.346	26031
804.488	26024
804.63	26077
804.773	26001
804.915	26229
805.057	26339
805.199	26187
805.341	26427
805.483	26598
805.626	26412
805.768	26556
805.91	26621
806.052	26773
806.194	26872
806.336	27199
806.478	27275
806.62	27462
806.762	27720
806.904	28181
807.046	28706
807.188	28904
807.33	29391
807.472	30068
807.614	30878
807.756	31620
807.898	32636
808.04	34093
808.182	36209
808.324	38895
808.465	41904
808.607	45271
808.749	47942
808.891	49860
809.033	49978
809.174	48418
809.316	45435
809.458	41935
809.6	38693
809.741	35851
809.883	33504
810.025	32210
810.166	31080
810.308	30167
810.45	29608
810.591	29151
810.733	28519
810.875	27945
811.016	27751
811.158	27549
811.299	27412
811.441	27397
811.582	27245
811.724	27081
811.865	26807
812.007	26800
812.148	26693
812.29	26762
812.431	26773
812.573	26838
812.714	26880
812.855	26940
812.997	26925
813.138	26906
813.279	26849
813.421	26678
813.562	26632
813.703	26404
813.845	26282
813.986	26001
814.127	25822
814.268	25620
814.41	25685
814.551	25597
814.692	25616
814.833	25487
814.974	25419
815.115	25472
815.256	25194
815.397	25141
815.539	25289
815.68	25194
815.821	25046
815.962	24996
816.103	25034
816.244	24779
816.385	24707
816.526	24578
816.666	24513
816.807	24456
816.948	24517
817.089	24494
817.23	24391
817.371	24308
817.512	24228
817.653	24224
817.793	24254
817.934	24289
818.075	24300
818.216	24350
818.356	24174
818.497	24197
818.638	23866
818.778	23988
818.919	23923
819.06	23954
819.2	24064
819.341	24136
819.481	24125
819.622	24266
819.762	24380
819.903	24292
820.043	24121
820.184	24194
820.324	24266
820.465	24072
820.605	24121
820.746	24018
820.886	23920
821.026	23942
821.167	23977
821.307	24098
821.447	23893
821.588	23843
821.728	23737
821.868	23493
822.008	23440
822.149	23372
822.289	23254
822.429	23124
822.569	22980
822.709	22930
822.849	22854
822.99	22835
823.13	22733
823.27	22622
823.41	22592
823.55	22470
823.69	22485
823.83	22478
823.97	22481
824.11	22226
824.25	22291
824.389	22337
824.529	22329
824.669	22322
824.809	22504
824.949	22523
825.089	22265
825.228	22497
825.368	22112
825.508	22196
825.648	22097
825.787	22177
825.927	22188
826.067	22200
826.206	21968
826.346	22116
826.485	22162
826.625	22124
826.765	22287
826.904	22063
827.044	21804
827.183	21892
827.323	21766
827.462	21705
827.601	21724
827.741	21747
827.88	21835
828.02	21622
828.159	21732
828.298	21724
828.437	21743
828.577	21869
828.716	21694
828.855	21599
828.994	21568
829.134	21450
829.273	21496
829.412	21443
829.551	21397
829.69	21386
829.829	21435
829.968	21553
830.107	21568
830.246	21424
830.385	21275
830.524	21176
830.663	21336
830.802	21226
830.941	21051
831.08	20910
831.219	21123
831.357	21241
831.496	21180
831.635	21005
831.774	20944
831.913	20971
832.051	20838
832.19	20861
832.329	20952
832.467	20887
832.606	20887
832.744	20807
832.883	20979
833.022	21028
833.16	21203
833.299	21264
833.437	21298
833.576	21431
833.714	21713
833.852	21911
833.991	22097
834.129	22070
834.267	22112
834.406	21972
834.544	21949
834.682	21854
834.821	21751
834.959	21724
835.097	21306
835.235	21469
835.373	21291
835.511	21165
835.65	20891
835.788	20902
835.926	20659
836.064	20571
836.202	20522
836.34	20625
836.478	20659
836.615	20583
836.753	20636
836.891	20670
837.029	20480
837.167	20537
837.305	20526
837.443	20415
837.58	20404
837.718	20434
837.856	20446
837.993	20324
838.131	20332
838.269	20191
838.406	20366
838.544	20225
838.681	19986
838.819	19932
838.956	19875
839.094	19795
839.231	19959
839.369	19890
839.506	20062
839.643	20073
839.781	19845
839.918	19826
840.055	19772
840.193	19890
840.33	19693
840.467	19780
840.604	19913
840.742	20073
840.879	19590
841.016	19632
841.153	19693
841.29	19864
841.427	19712
841.564	19807
841.701	19780
841.838	19765
841.975	19681
842.112	19746
842.249	19639
842.385	19502
842.522	19826
842.659	19597
842.796	19704
842.933	19746
843.069	19586
843.206	19685
843.343	19757
843.479	19731
843.616	19738
843.752	19632
843.889	19750
844.025	19791
844.162	19750
844.298	19936
844.435	19951
844.571	20267
844.708	20636
844.844	21062
844.98	21504
845.117	22143
845.253	23018
845.389	24920
845.525	28630
845.661	34417
845.798	41322
845.934	46398
846.07	48213
846.206	46949
846.342	42072
846.478	35197
846.614	29341
846.75	25483
846.886	23128
847.022	21823
847.158	21013
847.294	20309
847.429	20008
847.565	19750
847.701	19742
847.837	19247
847.972	19027
848.108	19183
848.244	18993
848.379	18791
848.515	18764
848.65	18700
848.786	18760
848.921	18722
849.057	18753
849.192	18681
849.328	18684
849.463	18582
849.598	18486
849.734	18570
849.869	18452
850.004	18380
850.14	18330
850.275	18285
850.41	18224
850.545	18327
850.68	18232
850.815	18277
850.95	18209
851.085	18372
851.22	18270
851.355	18216
851.49	18235
851.625	18323
851.76	18247
851.895	18117
852.03	18102
852.165	18220
852.299	18323
852.434	18399
852.569	18334
852.703	18243
852.838	18315
852.973	18479
853.107	18544
853.242	18285
853.376	18311
853.511	18194
853.645	18289
853.78	18532
853.914	18414
854.048	18410
854.183	18479
854.317	18540
854.451	18593
854.585	18532
854.72	18471
854.854	18563
854.988	18346
855.122	18334
855.256	18178
855.39	18338
855.524	18258
855.658	18281
855.792	18216
855.926	18270
856.06	18319
856.194	18213
856.327	18011
856.461	18076
856.595	18057
856.729	18041
856.862	18091
856.996	18079
857.13	18110
857.263	18277
857.397	18163
857.53	17904
857.664	18064
857.797	18034
857.931	18098
858.064	18015
858.197	18038
858.331	17908
858.464	17980
858.597	17809
858.731	17882
858.864	17904
858.997	17885
859.13	18038
859.263	17942
859.396	17980
859.529	17939
859.662	17866
859.795	17889
859.928	17912
860.061	18060
860.194	18083
860.327	17992
860.46	17863
860.592	17897
860.725	18102
860.858	18026
860.99	18003
861.123	17843
861.256	17726
861.388	17954
861.521	18669
861.653	17775
861.786	17699
861.918	17741
862.05	17726
862.183	17824
862.315	17954
862.447	17984
862.58	17745
862.712	17627
862.844	17646
862.976	17623
863.108	17661
863.24	18121
863.372	17463
863.504	17547
863.636	17672
863.768	17596
863.9	17535
864.032	17486
864.164	17551
864.296	17608
864.428	17707
864.559	17691
864.691	17649
864.823	17573
864.954	17596
865.086	17535
865.217	17520
865.349	17436
865.48	17570
865.612	17425
865.743	17619
865.875	17634
866.006	17520
866.137	17440
866.269	17543
866.4	17566
866.531	17467
866.662	17448
866.793	17376
866.924	17448
867.055	17398
867.186	17512
867.317	17414
867.448	17315
867.579	17452
867.71	17433
867.841	17463
867.972	17471
868.103	17417
868.233	17459
868.364	17433
868.495	17493
868.625	17680
868.756	17843
868.886	17703
869.017	17794
869.147	17840
869.278	17897
869.408	17840
869.539	17779
869.669	17813
869.799	17771
869.929	17824
870.06	17923
870.19	18083
870.32	18045
870.45	18148
870.58	18121
870.71	18376
870.84	18338
870.97	18205
871.1	18133
871.23	18384
871.36	18388
871.489	18308
871.619	18433
871.749	18418
871.879	18525
872.008	18551
872.138	18540
872.267	18547
872.397	18372
872.526	18311
872.656	18384
872.785	18338
872.915	18597
873.044	18650
873.173	18502
873.303	18707
873.432	18749
873.561	18791
873.69	18703
873.819	18817
873.948	18886
874.077	18825
874.206	18848
874.335	18764
874.464	18977
874.593	19072
874.722	19190
874.851	19293
874.979	19221
875.108	19415
875.237	19285
875.365	19236
875.494	19331
875.623	19556
875.751	19354
875.88	19518
876.008	19696
876.136	19849
876.265	20058
876.393	20206
876.521	20240
876.65	20320
876.778	20301
876.906	20332
877.034	20374
877.162	20412
877.29	20351
877.418	20663
877.546	20769
877.674	20765
877.802	20754
877.93	21032
878.058	21085
878.185	21294
878.313	21789
878.441	22082
878.568	22280
878.696	23025
878.824	23775
878.951	24981
879.079	26488
879.206	28596
879.333	30650
879.461	32423
879.588	33534
879.715	33504
879.842	32609
879.97	30639
880.097	28535
880.224	26781
880.351	25712
880.478	24715
880.605	24155
880.732	23840
880.859	23783
880.986	23330
881.112	23376
881.239	22987
881.366	23044
881.493	22786
881.619	22908
881.746	22839
881.872	22923
881.999	22911
882.125	22877
882.252	23037
882.378	22972
882.505	23204
882.631	23022
882.757	22911
882.883	23048
883.01	22854
883.136	22824
883.262	22915
883.388	22816
883.514	22866
883.64	22889
883.766	22835
883.892	22668
884.018	22672
884.143	22786
884.269	22980
884.395	22603
884.52	22580
884.646	22786
884.772	22649
884.897	22577
885.023	22599
885.148	22885
885.274	22816
885.399	22733
885.524	22230
885.65	22284
885.775	22128
885.9	22032
886.025	22021
886.15	21842
886.275	21545
886.4	21405
886.525	21268
886.65	21116
886.775	21001
886.9	20994
887.025	20990
887.149	20716
887.274	20480
887.399	20305
887.523	20161
887.648	20046
887.773	20054
887.897	20176
888.021	20043
888.146	19807
888.27	19909
888.395	20016
888.519	19765
888.643	19822
888.767	19639
888.891	19670
889.015	19419
889.139	19457
889.263	19331
889.387	19441
889.511	19445
889.635	19426
889.759	19152
889.883	19110
890.006	19168
890.13	19209
890.254	19133
890.377	19012
890.501	18821
890.624	18700
890.748	18806
890.871	18665
890.995	18570
891.118	18456
891.241	18471
891.364	18464
891.488	18532
891.611	18361
891.734	18403
891.857	18308
891.98	18319
892.103	18376
892.226	18285
892.349	18232
892.471	17980
892.594	18155
892.717	18095
892.839	18083
892.962	18098
893.085	18095
893.207	17958
893.33	17836
893.452	17916
893.575	17958
893.697	17939
893.819	18076
893.941	17931
894.064	17939
894.186	17798
894.308	17680
894.43	17786
894.552	17824
894.674	17752
894.796	17547
894.918	17642
895.04	17726
895.161	17661
895.283	17699
895.405	17642
895.526	17615
895.648	17566
895.769	17543
895.891	17611
896.012	17707
896.134	17661
896.255	17596
896.376	17532
896.498	17604
896.619	17497
896.74	17383
896.861	17501
896.982	17878
897.103	18003
897.224	17771
897.345	17748
897.466	17653
897.587	17642
897.708	17866
897.828	17824
897.949	17714
898.07	17577
898.19	17554
898.311	17824
898.431	17672
898.552	17729
898.672	17802
898.792	17786
898.913	17733
899.033	17619
899.153	17562
899.273	17478
899.393	17589
899.513	17433
899.633	17509
899.753	17471
899.873	17459
899.993	17535
900.113	17520
900.232	17558
900.352	17433
900.472	17383
900.591	17303
900.711	17395
900.83	17265
900.95	17349
901.069	17376
901.189	17216
901.308	17048
901.427	16881
901.546	16965
901.665	16919
901.784	16961
901.904	16831
902.023	16725
902.141	16379
902.26	16367
902.379	16459
902.498	16360
902.617	16382
902.735	16371
902.854	16341
902.973	16257
903.091	16093
903.21	15987
903.328	16051
903.446	15888
903.565	15816
903.683	15846
903.801	15622
903.919	15724
904.038	15732
904.156	15606
904.274	15625
904.392	15625
904.51	15530
904.627	15519
904.745	15644
904.863	15481
904.981	15302
905.098	15264
905.216	15142
905.334	15161
905.451	15138
905.569	15093
905.686	15188
905.803	15192
905.921	14967
906.038	15108
906.155	15005
906.272	14792
906.389	14910
906.506	14758
906.623	14804
906.74	14689
906.857	14571
906.974	14644
907.091	14769
907.208	14830
907.324	14701
907.441	14571
907.557	14457
907.674	14461
907.79	14347
907.907	14377
908.023	14442
908.139	14473
908.256	14400
908.372	14404
908.488	14381
908.604	14153
908.72	14084
908.836	14138
908.952	14111
909.068	14176
909.184	14187
909.3	14157
909.415	14142
909.531	14031
909.647	14016
909.762	13875
909.878	13780
909.993	13841
910.108	13928
910.224	13917
910.339	13875
910.454	13769
910.57	13658
910.685	13658
910.8	13902
910.915	13913
911.03	13662
911.145	13563
911.259	13460
911.374	13575
911.489	13502
911.604	13506
911.718	13259
911.833	13369
911.947	13114
912.062	13057
912.176	13274
912.291	13282
912.405	13221
912.519	13472
912.633	13510
912.748	13343
912.862	13285
912.976	13065
913.09	13076
913.204	13088
913.318	13156
913.431	13259
913.545	13160
913.659	13137
913.772	13057
913.886	13000
914	12913
914.113	13080
914.226	13209
914.34	13118
914.453	12852
914.566	13069
914.68	12993
914.793	12867
914.906	12711
915.019	12639
915.132	12662
915.245	12585
915.358	12684
915.47	12681
915.583	12654
915.696	12791
915.809	12848
915.921	12829
916.034	12745
916.146	12574
916.259	12616
916.371	12700
916.483	12662
916.595	12612
916.708	12681
916.82	12684
916.932	12604
917.044	12627
917.156	12593
917.268	12578
917.38	12475
917.491	12517
917.603	12460
917.715	12528
917.826	12555
917.938	12452
918.049	12285
918.161	12391
918.272	12604
918.384	12582
918.495	12407
918.606	12251
918.717	12201
918.828	12281
918.939	12224
919.05	12178
919.161	12148
919.272	11927
919.383	12030
919.494	12251
919.604	12448
919.715	12311
919.826	12098
919.936	12182
920.047	12304
920.157	12251
920.267	12365
920.378	12136
920.488	12235
920.598	12403
920.708	12471
920.818	12254
920.928	12342
921.038	12429
921.148	12536
921.258	12155
921.368	12057
921.477	11958
921.587	11923
921.697	11882
921.806	12041
921.916	11904
922.025	11752
922.134	11646
922.244	11581
922.353	11600
922.462	11551
922.571	11509
922.68	11284
922.789	11330
922.898	11318
923.007	11269
923.116	11288
923.224	11288
923.333	11220
923.442	11178
923.55	11041
923.659	11216
923.767	11280
923.876	11136
923.984	11178
924.092	11155
924.201	11189
924.309	11132
924.417	11079
924.525	11064
924.633	11029
924.741	11931
924.849	10930
924.956	11018
925.064	10862
925.172	10774
925.279	10866
925.387	10900
925.494	10934
925.602	10991
925.709	10915
925.816	10774
925.924	10812
926.031	10938
926.138	10801
926.245	10873
926.352	10679
926.459	10900
926.566	10934
926.673	10793
926.779	10653
926.886	10554
926.993	10519
927.099	10443
927.206	10451
927.312	10466
927.419	10546
927.525	10485
927.631	10527
927.737	10421
927.843	10333
927.95	10306
928.056	10405
928.162	10337
928.267	10375
928.373	11083
928.479	10409
928.585	10158
928.69	10329
928.796	10333
928.901	10200
929.007	10196
929.112	10261
929.218	10139
929.323	10188
929.428	10097
929.533	10272
929.638	10021
929.743	10112
929.848	10169
929.953	10158
930.058	9994
930.163	9789
930.267	9857
930.372	10059
930.477	9903
930.581	10124
930.685	9975
930.79	9789
930.894	9823
930.998	9732
931.103	9838
931.207	9580
931.311	9507
931.415	9424
931.519	9180
931.623	9203
