Data from test_V78500241_362.txt Node
Date: Fri Mar 25 14:36:14 CST 2022
User: usil
Spectrometer: V785-0024
Trigger mode: 0
Integration Time (sec): 4.000000E-1
Scans to average: 1
Nonlinearity correction enabled: false
Boxcar width: 0
Storing dark spectrum: false
XAxis mode: Wavelengths
Number of Pixels in Spectrum: 1024
>>>>>Begin Spectral Data<<<<<
801.071	26857
801.214	26792
801.356	26594
801.499	26431
801.641	26267
801.783	26199
801.926	26275
802.068	26275
802.211	26115
802.353	26149
802.496	26035
802.638	25966
802.78	25902
802.923	25841
803.065	25677
803.208	25639
803.35	25734
803.492	25841
803.635	26001
803.777	25696
803.919	25989
804.061	26039
804.204	25894
804.346	25693
804.488	25696
804.63	25723
804.773	25723
804.915	25712
805.057	25940
805.199	25849
805.341	25723
805.483	25795
805.626	25883
805.768	25772
805.91	25845
806.052	25837
806.194	25681
806.336	25906
806.478	25917
806.62	25849
806.762	25925
806.904	25913
807.046	26237
807.188	26096
807.33	26172
807.472	26237
807.614	26092
807.756	26191
807.898	26050
808.04	25841
808.182	25868
808.324	25932
808.465	26008
808.607	26206
808.749	26446
808.891	26366
809.033	26461
809.174	26469
809.316	26396
809.458	26408
809.6	26149
809.741	26408
809.883	26362
810.025	26480
810.166	26583
810.308	26636
810.45	26598
810.591	26347
810.733	26229
810.875	26252
811.016	26142
811.158	26084
811.299	26282
811.441	26301
811.582	26336
811.724	26161
811.865	26229
812.007	26138
812.148	26122
812.29	26199
812.431	26404
812.573	26370
812.714	26514
812.855	26705
812.997	26712
813.138	26746
813.279	26887
813.421	26579
813.562	26670
813.703	26442
813.845	26263
813.986	26069
814.127	25868
814.268	25849
814.41	25814
814.551	25544
814.692	25902
814.833	25700
814.974	25685
815.115	25647
815.256	25514
815.397	25392
815.539	25616
815.68	25472
815.821	25441
815.962	25400
816.103	25464
816.244	25331
816.385	25255
816.526	25095
816.666	25000
816.807	25004
816.948	24871
817.089	24875
817.23	24920
817.371	24795
817.512	24829
817.653	24825
817.793	24810
817.934	24711
818.075	24741
818.216	24806
818.356	24635
818.497	24582
818.638	24635
818.778	24536
818.919	24483
819.06	24517
819.2	24730
819.341	24757
819.481	24661
819.622	24897
819.762	25137
819.903	24909
820.043	24916
820.184	24932
820.324	24715
820.465	24840
820.605	24749
820.746	24711
820.886	24642
821.026	24726
821.167	24776
821.307	24829
821.447	24738
821.588	24646
821.728	24418
821.868	24281
822.008	24277
822.149	24144
822.289	24034
822.429	24022
822.569	23817
822.709	23889
822.849	23718
822.99	23543
823.13	23509
823.27	23627
823.41	23356
823.55	23280
823.69	23337
823.83	23383
823.97	23288
824.11	23269
824.25	23128
824.389	23147
824.529	23254
824.669	23132
824.809	23292
824.949	23159
825.089	23235
825.228	23159
825.368	23064
825.508	22980
825.648	22869
825.787	22976
825.927	23041
826.067	22889
826.206	22984
826.346	23052
826.485	23064
826.625	22835
826.765	22968
826.904	22885
827.044	22596
827.183	22698
827.323	22698
827.462	22740
827.601	22691
827.741	22580
827.88	22668
828.02	22478
828.159	22462
828.298	22725
828.437	22660
828.577	22390
828.716	22611
828.855	22660
828.994	22325
829.134	22192
829.273	22363
829.412	22303
829.551	22173
829.69	22299
829.829	22253
829.968	22386
830.107	22405
830.246	22405
830.385	22238
830.524	22268
830.663	22124
830.802	21987
830.941	21816
831.08	21895
831.219	22044
831.357	21987
831.496	22109
831.635	21911
831.774	21797
831.913	21686
832.051	21667
832.19	21705
832.329	21759
832.467	21595
832.606	21553
832.744	21386
832.883	21526
833.022	21515
833.16	21656
833.299	21538
833.437	21633
833.576	21534
833.714	21526
833.852	21671
833.991	21648
834.129	21671
834.267	21519
834.406	21526
834.544	21523
834.682	21580
834.821	21523
834.959	21724
835.097	21492
835.235	21641
835.373	21561
835.511	21454
835.65	21420
835.788	21439
835.926	21351
836.064	21241
836.202	21154
836.34	21462
836.478	21386
836.615	21397
836.753	21355
836.891	21462
837.029	21526
837.167	21359
837.305	21340
837.443	21302
837.58	21264
837.718	21332
837.856	21329
837.993	21302
838.131	21074
838.269	20952
838.406	21058
838.544	21104
838.681	20956
838.819	20724
838.956	20689
839.094	20708
839.231	20762
839.369	20876
839.506	21085
839.643	20899
839.781	20625
839.918	20640
840.055	20697
840.193	20590
840.33	20594
840.467	20560
840.604	20575
840.742	20861
840.879	20465
841.016	20454
841.153	20434
841.29	20697
841.427	20629
841.564	20541
841.701	20670
841.838	20408
841.975	20484
842.112	20419
842.249	20423
842.385	20301
842.522	20518
842.659	20324
842.796	20282
842.933	20400
843.069	20252
843.206	20309
843.343	20366
843.479	20362
843.616	20446
843.752	20153
843.889	20142
844.025	20199
844.162	20096
844.298	20187
844.435	20065
844.571	20077
844.708	20039
844.844	20221
844.98	20195
845.117	20202
845.253	20081
845.389	19913
845.525	19936
845.661	20024
845.798	19913
845.934	20005
846.07	19902
846.206	19932
846.342	20119
846.478	19849
846.614	19742
846.75	19518
846.886	19506
847.022	19681
847.158	19601
847.294	19594
847.429	19502
847.565	19426
847.701	19765
847.837	19255
847.972	19278
848.108	19331
848.244	19274
848.379	19263
848.515	19209
848.65	19034
848.786	19137
848.921	19156
849.057	19152
849.192	19236
849.328	19175
849.463	19168
849.598	19027
849.734	18966
849.869	18981
850.004	18924
850.14	18939
850.275	18939
850.41	18764
850.545	18852
850.68	18749
850.815	18916
850.95	18806
851.085	18985
851.22	18966
851.355	18894
851.49	18753
851.625	18852
851.76	18726
851.895	18730
852.03	18692
852.165	18768
852.299	18909
852.434	18856
852.569	18829
852.703	18734
852.838	18863
852.973	18947
853.107	18970
853.242	18711
853.376	18540
853.511	18483
853.645	18521
853.78	18802
853.914	18700
854.048	18623
854.183	18612
854.317	18654
854.451	18719
854.585	18597
854.72	18703
854.854	18795
854.988	18551
855.122	18677
855.256	18528
855.39	18696
855.524	18726
855.658	18604
855.792	18669
855.926	18738
856.06	18703
856.194	18738
856.327	18711
856.461	18608
856.595	18593
856.729	18509
856.862	18745
856.996	18555
857.13	18707
857.263	18696
857.397	18692
857.53	18642
857.664	18696
857.797	18665
857.931	18722
858.064	18646
858.197	18776
858.331	18639
858.464	18509
858.597	18597
858.731	18582
858.864	18547
858.997	18601
859.13	18506
859.263	18555
859.396	18749
859.529	18616
859.662	18437
859.795	18544
859.928	18555
860.061	18661
860.194	18814
860.327	18574
860.46	18631
860.592	18650
860.725	18700
860.858	18658
860.99	18570
861.123	18513
861.256	18532
861.388	18532
861.521	19259
861.653	18601
861.786	18448
861.918	18410
862.05	18608
862.183	18551
862.315	18665
862.447	18681
862.58	18593
862.712	18388
862.844	18289
862.976	18399
863.108	18388
863.24	18738
863.372	18239
863.504	18201
863.636	18235
863.768	18414
863.9	18228
864.032	18235
864.164	18224
864.296	18376
864.428	18407
864.559	18350
864.691	18277
864.823	18319
864.954	18251
865.086	18338
865.217	18216
865.349	18140
865.48	18197
865.612	18213
865.743	18429
865.875	18251
866.006	18296
866.137	18266
866.269	18213
866.4	18319
866.531	18178
866.662	18125
866.793	18159
866.924	18136
867.055	18251
867.186	18114
867.317	18114
867.448	18106
867.579	18083
867.71	18110
867.841	18087
867.972	18258
868.103	18083
868.233	18201
868.364	18235
868.495	18262
868.625	18285
868.756	18445
868.886	18365
869.017	18395
869.147	18464
869.278	18410
869.408	18445
869.539	18448
869.669	18513
869.799	18357
869.929	18464
870.06	18582
870.19	18700
870.32	18665
870.45	18677
870.58	18734
870.71	18871
870.84	18875
870.97	18783
871.1	18700
871.23	18985
871.36	18981
871.489	18806
871.619	18954
871.749	18947
871.879	18985
872.008	19065
872.138	18970
872.267	19057
872.397	18890
872.526	18840
872.656	18844
872.785	18779
872.915	18970
873.044	19023
873.173	19099
873.303	18993
873.432	19012
873.561	19183
873.69	19076
873.819	19019
873.948	19076
874.077	19084
874.206	18985
874.335	19084
874.464	19175
874.593	19335
874.722	19198
874.851	19293
874.979	19320
875.108	19339
875.237	19225
875.365	19217
875.494	19278
875.623	19331
875.751	19301
875.88	19263
876.008	19384
876.136	19480
876.265	19681
876.393	19753
876.521	19731
876.65	19734
876.778	19704
876.906	19639
877.034	19605
877.162	19662
877.29	19655
877.418	19677
877.546	19666
877.674	19696
877.802	19719
877.93	19689
878.058	19620
878.185	19533
878.313	19799
878.441	19620
878.568	19620
878.696	19643
878.824	19818
878.951	19738
879.079	19791
879.206	19982
879.333	19913
879.461	19738
879.588	19742
879.715	19845
879.842	20031
879.97	19731
880.097	19597
880.224	19510
880.351	19556
880.478	19597
880.605	19586
880.732	19658
880.859	19712
880.986	19620
881.112	19563
881.239	19441
881.366	19312
881.493	19236
881.619	19213
881.746	19110
881.872	19194
881.999	19114
882.125	19183
882.252	19236
882.378	19118
882.505	19198
882.631	19031
882.757	18901
882.883	19019
883.01	18932
883.136	18894
883.262	18745
883.388	18684
883.514	18939
883.64	18981
883.766	18779
883.892	18661
884.018	18776
884.143	18825
884.269	19000
884.395	18719
884.52	18559
884.646	18544
884.772	18521
884.897	18437
885.023	18597
885.148	18696
885.274	18665
885.399	18749
885.524	18547
885.65	18559
885.775	18650
885.9	18475
886.025	18654
886.15	18570
886.275	18460
886.4	18490
886.525	18483
886.65	18559
886.775	18445
886.9	18635
887.025	18791
887.149	18536
887.274	18327
887.399	18315
887.523	18342
887.648	18247
887.773	18220
887.897	18399
888.021	18327
888.146	18319
888.27	18426
888.395	18460
888.519	18323
888.643	18429
888.767	18483
888.891	18235
889.015	18095
889.139	18239
889.263	18038
889.387	18186
889.511	18338
889.635	18357
889.759	18209
889.883	18106
890.006	18201
890.13	18182
890.254	18049
890.377	18038
890.501	17916
890.624	17866
890.748	18007
890.871	17817
890.995	17703
891.118	17623
891.241	17775
891.364	17733
891.488	17840
891.611	17779
891.734	17752
891.857	17752
891.98	17680
892.103	17840
892.226	17836
892.349	17729
892.471	17471
892.594	17790
892.717	17737
892.839	17737
892.962	17756
893.085	17783
893.207	17718
893.33	17592
893.452	17665
893.575	17843
893.697	17805
893.819	17973
893.941	17859
894.064	17817
894.186	17646
894.308	17676
894.43	17764
894.552	17882
894.674	17840
894.796	17676
894.918	17733
895.04	17687
895.161	17893
895.283	17790
895.405	17623
895.526	17752
895.648	17672
895.769	17714
895.891	17802
896.012	17805
896.134	17870
896.255	17901
896.376	17809
896.498	17680
896.619	17847
896.74	17832
896.861	17821
896.982	18072
897.103	18197
897.224	18102
897.345	18060
897.466	17965
897.587	17977
897.708	18167
897.828	18072
897.949	17897
898.07	17885
898.19	17965
898.311	17973
898.431	17965
898.552	18015
898.672	18117
898.792	18155
898.913	18098
899.033	17965
899.153	17863
899.273	17634
899.393	17764
899.513	17775
899.633	17691
899.753	17745
899.873	17737
899.993	17813
900.113	17668
900.232	17764
900.352	17699
900.472	17752
900.591	17566
900.711	17672
900.83	17577
900.95	17668
901.069	17634
901.189	17482
901.308	17356
901.427	17181
901.546	17307
901.665	17258
901.784	17239
901.904	17109
902.023	17090
902.141	16847
902.26	16946
902.379	16782
902.498	16706
902.617	16767
902.735	16812
902.854	16649
902.973	16710
903.091	16394
903.21	16470
903.328	16462
903.446	16291
903.565	16322
903.683	16246
903.801	16242
903.919	16314
904.038	16188
904.156	16097
904.274	16188
904.392	16048
904.51	16097
904.627	16036
904.745	16124
904.863	16128
904.981	15781
905.098	15759
905.216	15694
905.334	15778
905.451	15755
905.569	15736
905.686	15747
905.803	15751
905.921	15515
906.038	15572
906.155	15519
906.272	15344
906.389	15386
906.506	15374
906.623	15279
906.74	15245
906.857	15222
906.974	15142
907.091	15272
907.208	15428
907.324	15230
907.441	15218
907.557	14975
907.674	15085
907.79	14933
907.907	14906
908.023	14971
908.139	14963
908.256	15001
908.372	14902
908.488	14830
908.604	14746
908.72	14712
908.836	14640
908.952	14598
909.068	14610
909.184	14724
909.3	14678
909.415	14701
909.531	14670
909.647	14415
909.762	14412
909.878	14374
909.993	14355
910.108	14450
910.224	14324
910.339	14400
910.454	14240
910.57	14267
910.685	14168
910.8	14362
910.915	14431
911.03	14195
911.145	14084
911.259	14043
911.374	14035
911.489	13951
911.604	13928
911.718	13788
911.833	13826
911.947	13689
912.062	13632
912.176	13738
912.291	13765
912.405	13746
912.519	13955
912.633	13917
912.748	13811
912.862	13765
912.976	13708
913.09	13559
913.204	13506
913.318	13636
913.431	13647
913.545	13613
913.659	13746
913.772	13491
913.886	13430
914	13411
914.113	13525
914.226	13582
914.34	13533
914.453	13426
914.566	13495
914.68	13384
914.793	13320
914.906	13149
915.019	13103
915.132	13084
915.245	13076
915.358	13122
915.47	13118
915.583	13152
915.696	13183
915.809	13259
915.921	13251
916.034	13023
916.146	13012
916.259	13042
916.371	13129
916.483	13076
916.595	12970
916.708	13038
916.82	12981
916.932	13050
917.044	12871
917.156	12966
917.268	12810
917.38	12810
917.491	12779
917.603	12913
917.715	12981
917.826	12905
917.938	12738
918.049	12673
918.161	12833
918.272	12867
918.384	12932
918.495	12802
918.606	12684
918.717	12631
918.828	12650
918.939	12589
919.05	12498
919.161	12616
919.272	12437
919.383	12456
919.494	12673
919.604	12886
919.715	12608
919.826	12532
919.936	12589
920.047	12589
920.157	12604
920.267	12719
920.378	12696
920.488	12616
920.598	12734
920.708	12916
920.818	12703
920.928	12722
921.038	12837
921.148	12829
921.258	12616
921.368	12445
921.477	12380
921.587	12380
921.697	12281
921.806	12380
921.916	12281
922.025	12034
922.134	12106
922.244	11988
922.353	12114
922.462	11958
922.571	11908
922.68	11672
922.789	11748
922.898	11699
923.007	11668
923.116	11703
923.224	11710
923.333	11718
923.442	11512
923.55	11459
923.659	11512
923.767	11539
923.876	11467
923.984	11535
924.092	11478
924.201	11360
924.309	11429
924.417	11490
924.525	11421
924.633	11402
924.741	12201
924.849	11193
924.956	11429
925.064	11201
925.172	11071
925.279	11083
925.387	11246
925.494	11242
925.602	11406
925.709	11296
925.816	11166
925.924	11204
926.031	11189
926.138	11231
926.245	11223
926.352	11022
926.459	11258
926.566	11189
926.673	11132
926.779	10984
926.886	11018
926.993	10786
927.099	10843
927.206	10843
927.312	10835
927.419	10869
927.525	10919
927.631	10828
927.737	10672
927.843	10653
927.95	10603
928.056	10645
928.162	10630
928.267	10782
928.373	11356
928.479	10828
928.585	10497
928.69	10698
928.796	10702
928.901	10596
929.007	10337
929.112	10603
929.218	10504
929.323	10421
929.428	10478
929.533	10596
929.638	10405
929.743	10341
929.848	10398
929.953	10394
930.058	10318
930.163	10192
930.267	10147
930.372	10356
930.477	10150
930.581	10322
930.685	10181
930.79	10097
930.894	10078
930.998	9994
931.103	10188
931.207	9827
931.311	9720
931.415	9713
931.519	9477
931.623	9477
