Data from test_V78500241_3185.txt Node
Date: Fri Mar 25 14:55:53 CST 2022
User: usil
Spectrometer: V785-0024
Trigger mode: 0
Integration Time (sec): 4.000000E-1
Scans to average: 1
Nonlinearity correction enabled: false
Boxcar width: 0
Storing dark spectrum: false
XAxis mode: Wavelengths
Number of Pixels in Spectrum: 1024
>>>>>Begin Spectral Data<<<<<
801.071	22048
801.214	22010
801.356	21599
801.499	21561
801.641	21435
801.783	21321
801.926	21462
802.068	21298
802.211	21306
802.353	21146
802.496	20990
802.638	20830
802.78	20872
802.923	20807
803.065	20663
803.208	20708
803.35	20788
803.492	20902
803.635	20937
803.777	20796
803.919	20788
804.061	21089
804.204	20785
804.346	20659
804.488	20575
804.63	20621
804.773	20530
804.915	20735
805.057	20712
805.199	20663
805.341	20762
805.483	20735
805.626	20670
805.768	20545
805.91	20625
806.052	20617
806.194	20579
806.336	20667
806.478	20571
806.62	20587
806.762	20663
806.904	20807
807.046	21009
807.188	20902
807.33	20994
807.472	20921
807.614	20933
807.756	20819
807.898	20804
808.04	20682
808.182	20636
808.324	20712
808.465	20853
808.607	20880
808.749	20880
808.891	21020
809.033	21184
809.174	21005
809.316	20971
809.458	20933
809.6	20883
809.741	21051
809.883	21009
810.025	21096
810.166	21329
810.308	21096
810.45	21161
810.591	21043
810.733	20743
810.875	20834
811.016	20568
811.158	20629
811.299	20811
811.441	20998
811.582	20876
811.724	20804
811.865	20823
812.007	20701
812.148	20735
812.29	20861
812.431	20952
812.573	21032
812.714	21028
812.855	21165
812.997	21351
813.138	21374
813.279	21313
813.421	21138
813.562	21131
813.703	21001
813.845	20963
813.986	20648
814.127	20339
814.268	20476
814.41	20442
814.551	20237
814.692	20419
814.833	20351
814.974	20225
815.115	20214
815.256	20092
815.397	20115
815.539	20214
815.68	20016
815.821	19955
815.962	20065
816.103	20012
816.244	19799
816.385	19757
816.526	19704
816.666	19502
816.807	19464
816.948	19514
817.089	19525
817.23	19468
817.371	19521
817.512	19354
817.653	19403
817.793	19365
817.934	19487
818.075	19449
818.216	19441
818.356	19521
818.497	19343
818.638	19129
818.778	19133
818.919	19019
819.06	19152
819.2	19206
819.341	19304
819.481	19331
819.622	19460
819.762	19719
819.903	19563
820.043	19438
820.184	19316
820.324	19438
820.465	19506
820.605	19419
820.746	19381
820.886	19301
821.026	19320
821.167	19396
821.307	19362
821.447	19403
821.588	19183
821.728	19122
821.868	18993
822.008	18779
822.149	18802
822.289	18833
822.429	18471
822.569	18559
822.709	18582
822.849	18422
822.99	18277
823.13	18308
823.27	18300
823.41	18216
823.55	18049
823.69	18098
823.83	18182
823.97	18178
824.11	17878
824.25	17942
824.389	17958
824.529	17942
824.669	18003
824.809	18034
824.949	17969
825.089	17942
825.228	17935
825.368	17718
825.508	17676
825.648	17668
825.787	17794
825.927	17695
826.067	17611
826.206	17668
826.346	17733
826.485	17828
826.625	17642
826.765	17760
826.904	17558
827.044	17452
827.183	17402
827.323	17463
827.462	17425
827.601	17353
827.741	17277
827.88	17395
828.02	17220
828.159	17440
828.298	17372
828.437	17433
828.577	17212
828.716	17486
828.855	17296
828.994	17159
829.134	17288
829.273	17155
829.412	17086
829.551	16999
829.69	17128
829.829	17124
829.968	17212
830.107	17181
830.246	17136
830.385	17048
830.524	17006
830.663	16900
830.802	16820
830.941	16668
831.08	16713
831.219	16820
831.357	16752
831.496	16923
831.635	16782
831.774	16748
831.913	16603
832.051	16485
832.19	16538
832.329	16577
832.467	16379
832.606	16405
832.744	16409
832.883	16436
833.022	16440
833.16	16424
833.299	16352
833.437	16348
833.576	16443
833.714	16405
833.852	16436
833.991	16508
834.129	16523
834.267	16500
834.406	16428
834.544	16493
834.682	16512
834.821	16459
834.959	16588
835.097	16402
835.235	16565
835.373	16447
835.511	16382
835.65	16428
835.788	16386
835.926	16291
836.064	16177
836.202	16207
836.34	16394
836.478	16508
836.615	16344
836.753	16421
836.891	16352
837.029	16424
837.167	16367
837.305	16299
837.443	16246
837.58	16234
837.718	16204
837.856	16230
837.993	16230
838.131	16306
838.269	16169
838.406	16211
838.544	16150
838.681	15911
838.819	15937
838.956	15732
839.094	15785
839.231	15793
839.369	15956
839.506	16207
839.643	16093
839.781	15747
839.918	15789
840.055	15846
840.193	15781
840.33	15690
840.467	15800
840.604	15778
840.742	15979
840.879	15679
841.016	15766
841.153	15682
841.29	15838
841.427	15888
841.564	15865
841.701	15816
841.838	15774
841.975	15656
842.112	15709
842.249	15644
842.385	15549
842.522	15728
842.659	15595
842.796	15542
842.933	15637
843.069	15595
843.206	15580
843.343	15698
843.479	15606
843.616	15599
843.752	15367
843.889	15332
844.025	15557
844.162	15317
844.298	15439
844.435	15408
844.571	15279
844.708	15428
844.844	15557
844.98	15576
845.117	15416
845.253	15298
845.389	15203
845.525	15241
845.661	15222
845.798	15043
845.934	15169
846.07	15135
846.206	15260
846.342	15332
846.478	15230
846.614	15070
846.75	14918
846.886	14845
847.022	14967
847.158	14971
847.294	15055
847.429	14929
847.565	14918
847.701	15138
847.837	14705
847.972	14667
848.108	14792
848.244	14781
848.379	14644
848.515	14488
848.65	14457
848.786	14492
848.921	14594
849.057	14629
849.192	14697
849.328	14651
849.463	14560
849.598	14541
849.734	14408
849.869	14351
850.004	14294
850.14	14377
850.275	14362
850.41	14252
850.545	14214
850.68	14328
850.815	14294
850.95	14256
851.085	14545
851.22	14317
851.355	14294
851.49	14233
851.625	14202
851.76	14278
851.895	14176
852.03	14202
852.165	14271
852.299	14309
852.434	14309
852.569	14199
852.703	14385
852.838	14355
852.973	14469
853.107	14408
853.242	14221
853.376	14149
853.511	14081
853.645	14153
853.78	14298
853.914	14347
854.048	14218
854.183	14138
854.317	14301
854.451	14278
854.585	14164
854.72	14119
854.854	14275
854.988	14119
855.122	14145
855.256	14050
855.39	14103
855.524	14263
855.658	14206
855.792	14225
855.926	14294
856.06	14320
856.194	14244
856.327	14237
856.461	14145
856.595	14240
856.729	14248
856.862	14370
856.996	14275
857.13	14271
857.263	14343
857.397	14355
857.53	14225
857.664	14248
857.797	14275
857.931	14286
858.064	14278
858.197	14252
858.331	14290
858.464	14172
858.597	14187
858.731	14081
858.864	14199
858.997	14233
859.13	14294
859.263	14263
859.396	14309
859.529	14077
859.662	14187
859.795	14195
859.928	14229
860.061	14332
860.194	14450
860.327	14130
860.46	14202
860.592	14324
860.725	14393
860.858	14275
860.99	14225
861.123	14237
861.256	14187
861.388	14191
861.521	14941
861.653	14081
861.786	14077
861.918	14134
862.05	14081
862.183	14073
862.315	14164
862.447	14317
862.58	14145
862.712	14081
862.844	13913
862.976	13974
863.108	14005
863.24	14347
863.372	13837
863.504	13944
863.636	14039
863.768	13928
863.9	14016
864.032	13902
864.164	13887
864.296	13978
864.428	14031
864.559	14065
864.691	14054
864.823	13947
864.954	14027
865.086	14050
865.217	13997
865.349	13871
865.48	13993
865.612	13967
865.743	14157
865.875	13955
866.006	13909
866.137	14054
866.269	13951
866.4	14046
866.531	13925
866.662	13864
866.793	13887
866.924	13955
867.055	13947
867.186	13917
867.317	13959
867.448	13791
867.579	13856
867.71	13845
867.841	13898
867.972	13978
868.103	13982
868.233	13932
868.364	13997
868.495	14088
868.625	14225
868.756	14298
868.886	14084
869.017	14145
869.147	14309
869.278	14358
869.408	14153
869.539	14161
869.669	14366
869.799	14199
869.929	14381
870.06	14400
870.19	14530
870.32	14545
870.45	14575
870.58	14632
870.71	14750
870.84	14739
870.97	14640
871.1	14613
871.23	14804
871.36	14750
871.489	14708
871.619	14743
871.749	14899
871.879	14830
872.008	14960
872.138	14868
872.267	14765
872.397	14640
872.526	14617
872.656	14659
872.785	14617
872.915	14895
873.044	14944
873.173	14769
873.303	14937
873.432	14864
873.561	14929
873.69	14857
873.819	14811
873.948	14948
874.077	14914
874.206	14769
874.335	14804
874.464	15142
874.593	15131
874.722	15077
874.851	15154
874.979	15214
875.108	15184
875.237	15077
875.365	15062
875.494	15214
875.623	15226
875.751	15104
875.88	15226
876.008	15401
876.136	15340
876.265	15614
876.393	15713
876.521	15701
876.65	15759
876.778	15648
876.906	15557
877.034	15477
877.162	15656
877.29	15549
877.418	15526
877.546	15591
877.674	15557
877.802	15663
877.93	15523
878.058	15416
878.185	15519
878.313	15504
878.441	15618
878.568	15431
878.696	15500
878.824	15599
878.951	15705
879.079	15812
879.206	15873
879.333	15762
879.461	15675
879.588	15739
879.715	15743
879.842	15884
879.97	15660
880.097	15386
880.224	15481
880.351	15488
880.478	15485
880.605	15435
880.732	15496
880.859	15701
880.986	15553
881.112	15469
881.239	15317
881.366	15100
881.493	15195
881.619	15154
881.746	15085
881.872	15123
881.999	15104
882.125	15051
882.252	15207
882.378	15062
882.505	15081
882.631	14963
882.757	14948
882.883	14967
883.01	14933
883.136	14857
883.262	14891
883.388	14880
883.514	14952
883.64	14883
883.766	14925
883.892	14804
884.018	14823
884.143	14902
884.269	14883
884.395	14579
884.52	14480
884.646	14708
884.772	14602
884.897	14579
885.023	14686
885.148	14590
885.274	14739
885.399	14792
885.524	14594
885.65	14686
885.775	14689
885.9	14556
886.025	14727
886.15	14689
886.275	14602
886.4	14587
886.525	14621
886.65	14533
886.775	14583
886.9	14739
887.025	14902
887.149	14625
887.274	14499
887.399	14389
887.523	14381
887.648	14408
887.773	14309
887.897	14571
888.021	14522
888.146	14442
888.27	14492
888.395	14610
888.519	14522
888.643	14518
888.767	14583
888.891	14328
889.015	14267
889.139	14271
889.263	14240
889.387	14377
889.511	14651
889.635	14522
889.759	14294
889.883	14434
890.006	14351
890.13	14404
890.254	14180
890.377	14347
890.501	14161
890.624	14092
890.748	14157
890.871	14043
890.995	13944
891.118	13936
891.241	13993
891.364	14001
891.488	14081
891.611	13940
891.734	14031
891.857	14100
891.98	14035
892.103	14096
892.226	14084
892.349	14027
892.471	13906
892.594	13974
892.717	13936
892.839	14050
892.962	13963
893.085	14058
893.207	13967
893.33	13936
893.452	13982
893.575	14065
893.697	13993
893.819	14119
893.941	14225
894.064	14031
894.186	13947
894.308	13913
894.43	14092
894.552	14168
894.674	14267
894.796	14039
894.918	14145
895.04	13986
895.161	14206
895.283	14180
895.405	14016
895.526	14107
895.648	14115
895.769	14332
895.891	14172
896.012	14225
896.134	14218
896.255	14237
896.376	14176
896.498	14157
896.619	14233
896.74	14142
896.861	14336
896.982	14419
897.103	14556
897.224	14446
897.345	14332
897.466	14366
897.587	14488
897.708	14526
897.828	14511
897.949	14473
898.07	14438
898.19	14377
898.311	14602
898.431	14469
898.552	14438
898.672	14583
898.792	14602
898.913	14579
899.033	14469
899.153	14442
899.273	14450
899.393	14351
899.513	14442
899.633	14473
899.753	14351
899.873	14385
899.993	14480
900.113	14252
900.232	14537
900.352	14415
900.472	14355
900.591	14183
900.711	14290
900.83	14195
900.95	14339
901.069	14396
901.189	14153
901.308	13989
901.427	13887
901.546	13955
901.665	13978
901.784	13864
901.904	13784
902.023	13742
902.141	13559
902.26	13449
902.379	13658
902.498	13480
902.617	13449
902.735	13567
902.854	13419
902.973	13373
903.091	13293
903.21	13179
903.328	13274
903.446	13213
903.565	13072
903.683	13095
903.801	13072
903.919	13046
904.038	13099
904.156	12935
904.274	12985
904.392	12920
904.51	12932
904.627	12932
904.745	12867
904.863	12867
904.981	12700
905.098	12551
905.216	12544
905.334	12684
905.451	12559
905.569	12528
905.686	12654
905.803	12604
905.921	12388
906.038	12547
906.155	12399
906.272	12296
906.389	12334
906.506	12220
906.623	12232
906.74	12175
906.857	12041
906.974	12102
907.091	12277
907.208	12403
907.324	12220
907.441	12159
907.557	12064
907.674	11980
907.79	11878
907.907	11889
908.023	11954
908.139	11920
908.256	11912
908.372	11901
908.488	11920
908.604	11688
908.72	11649
908.836	11684
908.952	11589
909.068	11676
909.184	11745
909.3	11733
909.415	11737
909.531	11680
909.647	11509
909.762	11421
909.878	11425
909.993	11486
910.108	11459
910.224	11440
910.339	11433
910.454	11299
910.57	11376
910.685	11322
910.8	11600
910.915	11471
911.03	11345
911.145	11201
911.259	11159
911.374	11174
911.489	11113
911.604	11083
911.718	10957
911.833	11010
911.947	10831
912.062	10729
912.176	10957
912.291	10946
912.405	10889
912.519	11060
912.633	11033
912.748	10965
912.862	10885
912.976	10816
913.09	10641
913.204	10771
913.318	10801
913.431	10984
913.545	10889
913.659	10835
913.772	10843
913.886	10637
914	10603
914.113	10778
914.226	10881
914.34	10790
914.453	10634
914.566	10729
914.68	10607
914.793	10637
914.906	10417
915.019	10466
915.132	10325
915.245	10417
915.358	10478
915.47	10470
915.583	10462
915.696	10561
915.809	10565
915.921	10561
916.034	10436
916.146	10348
916.259	10409
916.371	10500
916.483	10428
916.595	10333
916.708	10344
916.82	10329
916.932	10344
917.044	10333
917.156	10257
917.268	10261
917.38	10265
917.491	10257
917.603	10192
917.715	10329
917.826	10382
917.938	10265
918.049	10219
918.161	10306
918.272	10481
918.384	10390
918.495	10230
918.606	10139
918.717	10116
918.828	10215
918.939	10181
919.05	10105
919.161	10109
919.272	9903
919.383	9987
919.494	10169
919.604	10371
919.715	10200
919.826	10097
919.936	10185
920.047	10200
920.157	10093
920.267	10322
920.378	10280
920.488	10143
920.598	10337
920.708	10493
920.818	10379
920.928	10344
921.038	10512
921.148	10500
921.258	10196
921.368	10097
921.477	10002
921.587	9991
921.697	9842
921.806	10101
921.916	9934
922.025	9812
922.134	9690
922.244	9656
922.353	9861
922.462	9591
922.571	9545
922.68	9485
922.789	9389
922.898	9435
923.007	9340
923.116	9473
923.224	9485
923.333	9389
923.442	9355
923.55	9207
923.659	9336
923.767	9401
923.876	9336
923.984	9325
924.092	9203
924.201	9393
924.309	9272
924.417	9283
924.525	9165
924.633	9310
924.741	10177
924.849	9093
924.956	9199
925.064	9081
925.172	9001
925.279	9017
925.387	9028
925.494	9077
925.602	9214
925.709	9146
925.816	9013
925.924	9085
926.031	9203
926.138	9131
926.245	9085
926.352	9032
926.459	9180
926.566	9142
926.673	9013
926.779	8971
926.886	8910
926.993	8811
927.099	8773
927.206	8727
927.312	8727
927.419	8883
927.525	8819
927.631	8811
927.737	8769
927.843	8716
927.95	8560
928.056	8689
928.162	8625
928.267	8701
928.373	9287
928.479	8777
928.585	8533
928.69	8689
928.796	8743
928.901	8632
929.007	8423
929.112	8621
929.218	8587
929.323	8522
929.428	8495
929.533	8655
929.638	8442
929.743	8495
929.848	8526
929.953	8511
930.058	8366
930.163	8237
930.267	8271
930.372	8396
930.477	8286
930.581	8454
930.685	8415
930.79	8267
930.894	8336
930.998	8172
931.103	8317
931.207	8039
931.311	7932
931.415	7890
931.519	7662
931.623	7700
