Data from test_V78500241_1712.txt Node
Date: Fri Mar 25 14:45:38 CST 2022
User: usil
Spectrometer: V785-0024
Trigger mode: 0
Integration Time (sec): 4.000000E-1
Scans to average: 1
Nonlinearity correction enabled: false
Boxcar width: 0
Storing dark spectrum: false
XAxis mode: Wavelengths
Number of Pixels in Spectrum: 1024
>>>>>Begin Spectral Data<<<<<
801.071	22318
801.214	22093
801.356	21918
801.499	21717
801.641	21610
801.783	21667
801.926	21682
802.068	21572
802.211	21439
802.353	21306
802.496	21104
802.638	21013
802.78	21100
802.923	21036
803.065	20899
803.208	20872
803.35	20834
803.492	21058
803.635	21013
803.777	21028
803.919	21024
804.061	21302
804.204	21062
804.346	20937
804.488	20781
804.63	20982
804.773	20762
804.915	20830
805.057	20891
805.199	20921
805.341	21009
805.483	21093
805.626	20872
805.768	20842
805.91	20796
806.052	20914
806.194	20845
806.336	21085
806.478	20880
806.62	20826
806.762	20758
806.904	21074
807.046	21237
807.188	21249
807.33	21199
807.472	21233
807.614	21032
807.756	21013
807.898	20944
808.04	20967
808.182	20792
808.324	20887
808.465	21001
808.607	21119
808.749	21272
808.891	21428
809.033	21386
809.174	21329
809.316	21192
809.458	21233
809.6	21275
809.741	21264
809.883	21256
810.025	21389
810.166	21420
810.308	21408
810.45	21405
810.591	21275
810.733	21154
810.875	21214
811.016	20910
811.158	20941
811.299	21108
811.441	21062
811.582	21142
811.724	21028
811.865	21055
812.007	21058
812.148	21085
812.29	20960
812.431	21142
812.573	21291
812.714	21401
812.855	21408
812.997	21625
813.138	21759
813.279	21679
813.421	21462
813.562	21549
813.703	21279
813.845	21218
813.986	20967
814.127	20769
814.268	20545
814.41	20743
814.551	20640
814.692	20701
814.833	20560
814.974	20465
815.115	20617
815.256	20355
815.397	20320
815.539	20408
815.68	20252
815.821	20252
815.962	20393
816.103	20317
816.244	20214
816.385	20001
816.526	20027
816.666	19833
816.807	19788
816.948	19742
817.089	19902
817.23	19742
817.371	19761
817.512	19696
817.653	19689
817.793	19647
817.934	19712
818.075	19841
818.216	19776
818.356	19632
818.497	19632
818.638	19426
818.778	19365
818.919	19335
819.06	19525
819.2	19597
819.341	19567
819.481	19563
819.622	19738
819.762	19906
819.903	19875
820.043	19666
820.184	19655
820.324	19769
820.465	19761
820.605	19731
820.746	19616
820.886	19616
821.026	19746
821.167	19597
821.307	19750
821.447	19594
821.588	19449
821.728	19339
821.868	19259
822.008	19008
822.149	19141
822.289	19034
822.429	18814
822.569	18814
822.709	18859
822.849	18715
822.99	18646
823.13	18608
823.27	18490
823.41	18422
823.55	18361
823.69	18445
823.83	18319
823.97	18391
824.11	18194
824.25	18076
824.389	18235
824.529	18300
824.669	18098
824.809	18346
824.949	18224
825.089	18220
825.228	18243
825.368	18049
825.508	17916
825.648	18007
825.787	18034
825.927	17977
826.067	17897
826.206	17847
826.346	18045
826.485	17923
826.625	18083
826.765	18079
826.904	17946
827.044	17714
827.183	17737
827.323	17680
827.462	17752
827.601	17630
827.741	17699
827.88	17646
828.02	17505
828.159	17600
828.298	17726
828.437	17714
828.577	17684
828.716	17794
828.855	17539
828.994	17459
829.134	17337
829.273	17452
829.412	17395
829.551	17398
829.69	17353
829.829	17360
829.968	17520
830.107	17482
830.246	17337
830.385	17231
830.524	17353
830.663	17280
830.802	17178
830.941	17037
831.08	17132
831.219	17098
831.357	17143
831.496	17212
831.635	17006
831.774	16911
831.913	16995
832.051	16858
832.19	16805
832.329	16877
832.467	16706
832.606	16691
832.744	16687
832.883	16679
833.022	16774
833.16	16713
833.299	16767
833.437	16721
833.576	16782
833.714	16767
833.852	16748
833.991	16721
834.129	16858
834.267	16809
834.406	16797
834.544	16782
834.682	16740
834.821	16828
834.959	16892
835.097	16824
835.235	16790
835.373	16721
835.511	16782
835.65	16668
835.788	16637
835.926	16634
836.064	16550
836.202	16565
836.34	16664
836.478	16717
836.615	16668
836.753	16588
836.891	16797
837.029	16672
837.167	16664
837.305	16470
837.443	16668
837.58	16504
837.718	16615
837.856	16565
837.993	16508
838.131	16599
838.269	16466
838.406	16535
838.544	16493
838.681	16238
838.819	16310
838.956	16120
839.094	16097
839.231	16169
839.369	16234
839.506	16508
839.643	16379
839.781	16135
839.918	16071
840.055	16169
840.193	16097
840.33	16006
840.467	16101
840.604	16055
840.742	16337
840.879	15991
841.016	16055
841.153	16010
841.29	16169
841.427	16093
841.564	16086
841.701	16078
841.838	16101
841.975	15838
842.112	15949
842.249	15926
842.385	15793
842.522	16101
842.659	15972
842.796	16006
842.933	15876
843.069	15842
843.206	15793
843.343	15926
843.479	15869
843.616	15797
843.752	15591
843.889	15728
844.025	15778
844.162	15568
844.298	15736
844.435	15572
844.571	15603
844.708	15720
844.844	15781
844.98	15812
845.117	15747
845.253	15519
845.389	15519
845.525	15633
845.661	15561
845.798	15393
845.934	15447
846.07	15492
846.206	15462
846.342	15705
846.478	15450
846.614	15302
846.75	15207
846.886	15272
847.022	15275
847.158	15268
847.294	15355
847.429	15203
847.565	15233
847.701	15477
847.837	14952
847.972	14857
848.108	15112
848.244	15032
848.379	14876
848.515	14785
848.65	14838
848.786	14887
848.921	14769
849.057	14906
849.192	14910
849.328	14826
849.463	14777
849.598	14807
849.734	14796
849.869	14727
850.004	14644
850.14	14594
850.275	14564
850.41	14518
850.545	14541
850.68	14530
850.815	14598
850.95	14568
851.085	14667
851.22	14682
851.355	14598
851.49	14545
851.625	14503
851.76	14511
851.895	14442
852.03	14393
852.165	14632
852.299	14632
852.434	14632
852.569	14667
852.703	14507
852.838	14689
852.973	14754
853.107	14788
853.242	14575
853.376	14461
853.511	14305
853.645	14427
853.78	14583
853.914	14438
854.048	14385
854.183	14408
854.317	14514
854.451	14549
854.585	14446
854.72	14393
854.854	14541
854.988	14343
855.122	14454
855.256	14355
855.39	14408
855.524	14511
855.658	14469
855.792	14446
855.926	14507
856.06	14427
856.194	14541
856.327	14533
856.461	14415
856.595	14336
856.729	14442
856.862	14651
856.996	14412
857.13	14454
857.263	14610
857.397	14526
857.53	14495
857.664	14484
857.797	14625
857.931	14594
858.064	14587
858.197	14522
858.331	14461
858.464	14339
858.597	14374
858.731	14461
858.864	14377
858.997	14511
859.13	14480
859.263	14522
859.396	14469
859.529	14434
859.662	14393
859.795	14404
859.928	14480
860.061	14545
860.194	14663
860.327	14507
860.46	14434
860.592	14518
860.725	14583
860.858	14556
860.99	14473
861.123	14362
861.256	14484
861.388	14389
861.521	14975
861.653	14332
861.786	14256
861.918	14324
862.05	14328
862.183	14461
862.315	14419
862.447	14434
862.58	14415
862.712	14183
862.844	14164
862.976	14187
863.108	14301
863.24	14651
863.372	14126
863.504	14301
863.636	14221
863.768	14259
863.9	14191
864.032	14145
864.164	14244
864.296	14290
864.428	14271
864.559	14305
864.691	14332
864.823	14301
864.954	14233
865.086	14244
865.217	14290
865.349	14172
865.48	14229
865.612	14256
865.743	14301
865.875	14267
866.006	14225
866.137	14119
866.269	14214
866.4	14244
866.531	14195
866.662	14100
866.793	14168
866.924	14172
867.055	14164
867.186	14157
867.317	14233
867.448	13955
867.579	14134
867.71	14126
867.841	14126
867.972	14183
868.103	14130
868.233	14111
868.364	14244
868.495	14271
868.625	14499
868.756	14503
868.886	14408
869.017	14412
869.147	14431
869.278	14644
869.408	14492
869.539	14427
869.669	14560
869.799	14476
869.929	14507
870.06	14549
870.19	14758
870.32	14716
870.45	14735
870.58	14880
870.71	14975
870.84	14853
870.97	14815
871.1	14773
871.23	15047
871.36	15036
871.489	15009
871.619	15020
871.749	15066
871.879	15001
872.008	15142
872.138	15184
872.267	15062
872.397	14982
872.526	14819
872.656	14834
872.785	14925
872.915	15119
873.044	15195
873.173	15013
873.303	15157
873.432	15047
873.561	15131
873.69	15123
873.819	15119
873.948	15294
874.077	15146
874.206	15142
874.335	15062
874.464	15275
874.593	15401
874.722	15279
874.851	15367
874.979	15431
875.108	15549
875.237	15363
875.365	15370
875.494	15348
875.623	15473
875.751	15332
875.88	15435
876.008	15580
876.136	15500
876.265	15770
876.393	15907
876.521	15861
876.65	15979
876.778	15823
876.906	15778
877.034	15717
877.162	15747
877.29	15751
877.418	15759
877.546	15812
877.674	15854
877.802	15926
877.93	15835
878.058	15717
878.185	15576
878.313	15724
878.441	15785
878.568	15595
878.696	15762
878.824	15785
878.951	15941
879.079	16010
879.206	16162
879.333	15941
879.461	15869
879.588	16040
879.715	16059
879.842	16246
879.97	15873
880.097	15667
880.224	15641
880.351	15778
880.478	15675
880.605	15663
880.732	15584
880.859	15922
880.986	15698
881.112	15671
881.239	15599
881.366	15428
881.493	15412
881.619	15321
881.746	15363
881.872	15283
881.999	15401
882.125	15260
882.252	15363
882.378	15348
882.505	15439
882.631	15226
882.757	15169
882.883	15252
883.01	15135
883.136	15119
883.262	14979
883.388	14929
883.514	15154
883.64	15169
883.766	15169
883.892	14967
884.018	14826
884.143	15108
884.269	15192
884.395	15009
884.52	14902
884.646	14842
884.772	14796
884.897	14785
885.023	14830
885.148	14838
885.274	14956
885.399	15017
885.524	14861
885.65	14883
885.775	14914
885.9	14788
886.025	15005
886.15	14914
886.275	14887
886.4	14746
886.525	14781
886.65	14834
886.775	14682
886.9	14891
887.025	15058
887.149	14788
887.274	14621
887.399	14571
887.523	14659
887.648	14667
887.773	14621
887.897	14743
888.021	14804
888.146	14678
888.27	14807
888.395	14769
888.519	14708
888.643	14773
888.767	14705
888.891	14568
889.015	14621
889.139	14594
889.263	14571
889.387	14629
889.511	14701
889.635	14629
889.759	14503
889.883	14541
890.006	14663
890.13	14629
890.254	14450
890.377	14507
890.501	14385
890.624	14385
890.748	14400
890.871	14317
890.995	14164
891.118	14126
891.241	14271
891.364	14324
891.488	14412
891.611	14214
891.734	14313
891.857	14237
891.98	14195
892.103	14339
892.226	14301
892.349	14164
892.471	14153
892.594	14214
892.717	14168
892.839	14161
892.962	14233
893.085	14225
893.207	14233
893.33	14126
893.452	14054
893.575	14282
893.697	14176
893.819	14336
893.941	14415
894.064	14313
894.186	14157
894.308	14187
894.43	14278
894.552	14351
894.674	14339
894.796	14180
894.918	14229
895.04	14301
895.161	14404
895.283	14298
895.405	14320
895.526	14317
895.648	14328
895.769	14434
895.891	14278
896.012	14434
896.134	14434
896.255	14393
896.376	14343
896.498	14324
896.619	14446
896.74	14381
896.861	14393
896.982	14693
897.103	14815
897.224	14712
897.345	14503
897.466	14560
897.587	14648
897.708	14750
897.828	14716
897.949	14693
898.07	14503
898.19	14594
898.311	14735
898.431	14644
898.552	14701
898.672	14800
898.792	14849
898.913	14712
899.033	14746
899.153	14545
899.273	14522
899.393	14541
899.513	14549
899.633	14636
899.753	14579
899.873	14560
899.993	14655
900.113	14556
900.232	14644
900.352	14583
900.472	14492
900.591	14450
900.711	14484
900.83	14396
900.95	14526
901.069	14541
901.189	14404
901.308	14172
901.427	14149
901.546	14298
901.665	14248
901.784	14183
901.904	13963
902.023	13932
902.141	13769
902.26	13723
902.379	13788
902.498	13693
902.617	13643
902.735	13757
902.854	13780
902.973	13670
903.091	13476
903.21	13445
903.328	13430
903.446	13327
903.565	13278
903.683	13266
903.801	13088
903.919	13183
904.038	13270
904.156	13080
904.274	13103
904.392	13061
904.51	13057
904.627	13072
904.745	13118
904.863	13057
904.981	12897
905.098	12810
905.216	12719
905.334	12844
905.451	12753
905.569	12711
905.686	12814
905.803	12783
905.921	12570
906.038	12707
906.155	12673
906.272	12525
906.389	12566
906.506	12350
906.623	12338
906.74	12338
906.857	12239
906.974	12285
907.091	12448
907.208	12464
907.324	12357
907.441	12277
907.557	12076
907.674	12148
907.79	11912
907.907	12060
908.023	12076
908.139	12087
908.256	12117
908.372	12064
908.488	12041
908.604	11935
908.72	11794
908.836	11859
908.952	11836
909.068	11942
909.184	11939
909.3	11923
909.415	11882
909.531	11843
909.647	11676
909.762	11646
909.878	11566
909.993	11657
910.108	11638
910.224	11577
910.339	11543
910.454	11577
910.57	11478
910.685	11436
910.8	11703
910.915	11703
911.03	11520
911.145	11326
911.259	11311
911.374	11387
911.489	11273
911.604	11178
911.718	11071
911.833	11189
911.947	10987
912.062	10908
912.176	11109
912.291	11056
912.405	11117
912.519	11288
912.633	11261
912.748	11166
912.862	11048
912.976	10965
913.09	10797
913.204	10919
913.318	10930
913.431	11045
913.545	10995
913.659	11056
913.772	10927
913.886	10831
914	10824
914.113	10892
914.226	10957
914.34	10930
914.453	10816
914.566	10892
914.68	10748
914.793	10797
914.906	10649
915.019	10523
915.132	10561
915.245	10584
915.358	10584
915.47	10523
915.583	10618
915.696	10679
915.809	10683
915.921	10736
916.034	10527
916.146	10523
916.259	10519
916.371	10550
916.483	10653
916.595	10554
916.708	10470
916.82	10527
916.932	10580
917.044	10500
917.156	10462
917.268	10303
917.38	10382
917.491	10371
917.603	10443
917.715	10558
917.826	10573
917.938	10413
918.049	10360
918.161	10474
918.272	10546
918.384	10542
918.495	10371
918.606	10280
918.717	10211
918.828	10363
918.939	10341
919.05	10227
919.161	10246
919.272	10074
919.383	10181
919.494	10356
919.604	10497
919.715	10329
919.826	10215
919.936	10200
920.047	10405
920.157	10284
920.267	10466
920.378	10344
920.488	10265
920.598	10523
920.708	10538
920.818	10554
920.928	10478
921.038	10596
921.148	10599
921.258	10276
921.368	10306
921.477	10154
921.587	10169
921.697	10017
921.806	10188
921.916	10055
922.025	9960
922.134	9766
922.244	9819
922.353	9949
922.462	9720
922.571	9713
922.68	9545
922.789	9496
922.898	9530
923.007	9534
923.116	9568
923.224	9576
923.333	9549
923.442	9466
923.55	9428
923.659	9443
923.767	9587
923.876	9397
923.984	9488
924.092	9374
924.201	9420
924.309	9431
924.417	9408
924.525	9249
924.633	9408
924.741	10257
924.849	9264
924.956	9294
925.064	9222
925.172	9146
925.279	9161
925.387	9279
925.494	9188
925.602	9359
925.709	9230
925.816	9157
925.924	9199
926.031	9260
926.138	9203
926.245	9283
926.352	9157
926.459	9287
926.566	9302
926.673	9135
926.779	9039
926.886	8982
926.993	8887
927.099	8925
927.206	8872
927.312	8842
927.419	9043
927.525	8914
927.631	8990
927.737	8868
927.843	8819
927.95	8701
928.056	8792
928.162	8830
928.267	8861
928.373	9439
928.479	8899
928.585	8697
928.69	8804
928.796	8819
928.901	8777
929.007	8564
929.112	8796
929.218	8663
929.323	8606
929.428	8629
929.533	8754
929.638	8533
929.743	8575
929.848	8629
929.953	8556
930.058	8541
930.163	8412
930.267	8431
930.372	8541
930.477	8400
930.581	8651
930.685	8549
930.79	8370
930.894	8400
930.998	8290
931.103	8480
931.207	8126
931.311	8058
931.415	8012
931.519	7890
931.623	7849
