Data from test_V78500241_2661.txt Node
Date: Fri Mar 25 14:52:14 CST 2022
User: usil
Spectrometer: V785-0024
Trigger mode: 0
Integration Time (sec): 4.000000E-1
Scans to average: 1
Nonlinearity correction enabled: false
Boxcar width: 0
Storing dark spectrum: false
XAxis mode: Wavelengths
Number of Pixels in Spectrum: 1024
>>>>>Begin Spectral Data<<<<<
801.071	22017
801.214	21831
801.356	21526
801.499	21591
801.641	21435
801.783	21382
801.926	21355
802.068	21374
802.211	21161
802.353	21154
802.496	20956
802.638	20921
802.78	20750
802.923	20743
803.065	20629
803.208	20632
803.35	20651
803.492	20792
803.635	20880
803.777	20670
803.919	20849
804.061	21036
804.204	20823
804.346	20579
804.488	20617
804.63	20693
804.773	20625
804.915	20617
805.057	20686
805.199	20602
805.341	20579
805.483	20670
805.626	20701
805.768	20587
805.91	20613
806.052	20522
806.194	20446
806.336	20511
806.478	20526
806.62	20461
806.762	20648
806.904	20743
807.046	21066
807.188	20910
807.33	20899
807.472	21017
807.614	20872
807.756	20815
807.898	20823
808.04	20659
808.182	20590
808.324	20689
808.465	20765
808.607	20857
808.749	20971
808.891	21222
809.033	21195
809.174	21070
809.316	20876
809.458	20998
809.6	20880
809.741	21001
809.883	21039
810.025	21150
810.166	21142
810.308	21192
810.45	21001
810.591	20960
810.733	20815
810.875	20758
811.016	20800
811.158	20613
811.299	20842
811.441	20944
811.582	20826
811.724	20659
811.865	20720
812.007	20811
812.148	20773
812.29	20773
812.431	20887
812.573	21089
812.714	21100
812.855	21287
812.997	21237
813.138	21450
813.279	21389
813.421	21226
813.562	21127
813.703	20982
813.845	21005
813.986	20575
814.127	20355
814.268	20343
814.41	20370
814.551	20263
814.692	20290
814.833	20271
814.974	20244
815.115	20362
815.256	20084
815.397	20138
815.539	20252
815.68	19982
815.821	19993
815.962	19986
816.103	20012
816.244	19795
816.385	19856
816.526	19685
816.666	19533
816.807	19430
816.948	19552
817.089	19514
817.23	19422
817.371	19529
817.512	19285
817.653	19301
817.793	19415
817.934	19369
818.075	19445
818.216	19415
818.356	19247
818.497	19251
818.638	19091
818.778	19088
818.919	19103
819.06	19183
819.2	19221
819.341	19171
819.481	19225
819.622	19559
819.762	19594
819.903	19567
820.043	19460
820.184	19487
820.324	19263
820.465	19487
820.605	19495
820.746	19362
820.886	19148
821.026	19384
821.167	19384
821.307	19441
821.447	19213
821.588	19255
821.728	19088
821.868	19080
822.008	18875
822.149	18848
822.289	18722
822.429	18502
822.569	18559
822.709	18502
822.849	18448
822.99	18235
823.13	18285
823.27	18178
823.41	18129
823.55	17965
823.69	18098
823.83	18079
823.97	18045
824.11	17859
824.25	17870
824.389	17836
824.529	17882
824.669	17809
824.809	17950
824.949	17996
825.089	17946
825.228	17901
825.368	17703
825.508	17726
825.648	17680
825.787	17657
825.927	17817
826.067	17661
826.206	17486
826.346	17665
826.485	17619
826.625	17634
826.765	17752
826.904	17752
827.044	17440
827.183	17376
827.323	17269
827.462	17303
827.601	17315
827.741	17315
827.88	17452
828.02	17208
828.159	17429
828.298	17315
828.437	17391
828.577	17391
828.716	17474
828.855	17269
828.994	17136
829.134	17105
829.273	17094
829.412	17010
829.551	16984
829.69	17045
829.829	17193
829.968	17181
830.107	17140
830.246	17109
830.385	17037
830.524	17109
830.663	16984
830.802	16873
830.941	16717
831.08	16752
831.219	16820
831.357	16847
831.496	16968
831.635	16835
831.774	16653
831.913	16592
832.051	16485
832.19	16405
832.329	16538
832.467	16466
832.606	16382
832.744	16443
832.883	16409
833.022	16325
833.16	16584
833.299	16470
833.437	16462
833.576	16523
833.714	16398
833.852	16538
833.991	16462
834.129	16653
834.267	16630
834.406	16421
834.544	16516
834.682	16527
834.821	16542
834.959	16588
835.097	16440
835.235	16687
835.373	16588
835.511	16489
835.65	16436
835.788	16394
835.926	16333
836.064	16192
836.202	16398
836.34	16341
836.478	16512
836.615	16314
836.753	16481
836.891	16504
837.029	16371
837.167	16405
837.305	16363
837.443	16344
837.58	16371
837.718	16394
837.856	16322
837.993	16185
838.131	16310
838.269	16204
838.406	16238
838.544	16196
838.681	15975
838.819	16044
838.956	15926
839.094	15808
839.231	15789
839.369	15835
839.506	16280
839.643	16150
839.781	15941
839.918	15838
840.055	15934
840.193	15785
840.33	15892
840.467	15831
840.604	15861
840.742	16154
840.879	15701
841.016	15800
841.153	15808
841.29	16090
841.427	15926
841.564	15854
841.701	15869
841.838	15823
841.975	15869
842.112	15869
842.249	15743
842.385	15511
842.522	15911
842.659	15667
842.796	15603
842.933	15652
843.069	15713
843.206	15576
843.343	15759
843.479	15701
843.616	15686
843.752	15511
843.889	15519
844.025	15606
844.162	15530
844.298	15545
844.435	15378
844.571	15530
844.708	15526
844.844	15564
844.98	15667
845.117	15534
845.253	15367
845.389	15230
845.525	15428
845.661	15367
845.798	15173
845.934	15268
846.07	15165
846.206	15245
846.342	15310
846.478	15176
846.614	15135
846.75	14902
846.886	14941
847.022	15036
847.158	14948
847.294	15047
847.429	15043
847.565	15009
847.701	15230
847.837	14826
847.972	14693
848.108	14781
848.244	14819
848.379	14644
848.515	14560
848.65	14526
848.786	14556
848.921	14625
849.057	14716
849.192	14750
849.328	14670
849.463	14648
849.598	14587
849.734	14530
849.869	14461
850.004	14393
850.14	14511
850.275	14358
850.41	14362
850.545	14275
850.68	14370
850.815	14381
850.95	14320
851.085	14533
851.22	14450
851.355	14446
851.49	14355
851.625	14267
851.76	14317
851.895	14290
852.03	14191
852.165	14415
852.299	14461
852.434	14362
852.569	14332
852.703	14419
852.838	14404
852.973	14530
853.107	14526
853.242	14301
853.376	14301
853.511	14149
853.645	14221
853.78	14385
853.914	14126
854.048	14199
854.183	14157
854.317	14248
854.451	14343
854.585	14199
854.72	14161
854.854	14400
854.988	14294
855.122	14278
855.256	14081
855.39	14271
855.524	14320
855.658	14267
855.792	14195
855.926	14214
856.06	14351
856.194	14332
856.327	14313
856.461	14138
856.595	14294
856.729	14168
856.862	14431
856.996	14351
857.13	14347
857.263	14355
857.397	14370
857.53	14263
857.664	14347
857.797	14313
857.931	14450
858.064	14282
858.197	14317
858.331	14317
858.464	14172
858.597	14031
858.731	14256
858.864	14206
858.997	14286
859.13	14271
859.263	14214
859.396	14370
859.529	14256
859.662	14214
859.795	14233
859.928	14233
860.061	14461
860.194	14503
860.327	14210
860.46	14180
860.592	14396
860.725	14374
860.858	14396
860.99	14286
861.123	14206
861.256	14229
861.388	14256
861.521	14807
861.653	14164
861.786	14020
861.918	14119
862.05	14180
862.183	14263
862.315	14278
862.447	14294
862.58	14149
862.712	14069
862.844	13947
862.976	14073
863.108	14084
863.24	14400
863.372	13936
863.504	14008
863.636	14069
863.768	14100
863.9	13986
864.032	13951
864.164	14024
864.296	14142
864.428	14172
864.559	14100
864.691	14172
864.823	14138
864.954	14065
865.086	14107
865.217	13940
865.349	13936
865.48	13986
865.612	14001
865.743	14130
865.875	14077
866.006	14005
866.137	14016
866.269	14043
866.4	14012
866.531	14012
866.662	14001
866.793	14065
866.924	14035
867.055	14005
867.186	13913
867.317	13849
867.448	13906
867.579	14039
867.71	13906
867.841	13906
867.972	14016
868.103	13993
868.233	13883
868.364	13959
868.495	14069
868.625	14290
868.756	14305
868.886	14164
869.017	14145
869.147	14385
869.278	14336
869.408	14351
869.539	14301
869.669	14298
869.799	14366
869.929	14351
870.06	14309
870.19	14583
870.32	14499
870.45	14560
870.58	14610
870.71	14746
870.84	14754
870.97	14678
871.1	14735
871.23	14849
871.36	14914
871.489	14845
871.619	14906
871.749	14902
871.879	14963
872.008	14994
872.138	14857
872.267	14868
872.397	14781
872.526	14689
872.656	14674
872.785	14720
872.915	14842
873.044	14929
873.173	14887
873.303	14864
873.432	14933
873.561	15013
873.69	14956
873.819	14849
873.948	14921
874.077	14960
874.206	14910
874.335	14956
874.464	15043
874.593	15283
874.722	15184
874.851	15241
874.979	15192
875.108	15321
875.237	15226
875.365	15249
875.494	15188
875.623	15332
875.751	15237
875.88	15336
876.008	15378
876.136	15507
876.265	15629
876.393	15819
876.521	15766
876.65	15698
876.778	15606
876.906	15610
877.034	15591
877.162	15751
877.29	15542
877.418	15671
877.546	15618
877.674	15656
877.802	15660
877.93	15622
878.058	15530
878.185	15534
878.313	15675
878.441	15603
878.568	15500
878.696	15564
878.824	15652
878.951	15656
879.079	15774
879.206	15964
879.333	15728
879.461	15667
879.588	15816
879.715	15819
879.842	15892
879.97	15816
880.097	15435
880.224	15488
880.351	15568
880.478	15462
880.605	15488
880.732	15389
880.859	15720
880.986	15549
881.112	15504
881.239	15321
881.366	15218
881.493	15146
881.619	15077
881.746	15184
881.872	15116
881.999	15066
882.125	15127
882.252	15226
882.378	15150
882.505	15310
882.631	15119
882.757	14986
882.883	15039
883.01	14937
883.136	14998
883.262	14845
883.388	14754
883.514	15001
883.64	15005
883.766	14864
883.892	14792
884.018	14853
884.143	15005
884.269	15085
884.395	14838
884.52	14636
884.646	14735
884.772	14617
884.897	14606
885.023	14663
885.148	14735
885.274	14804
885.399	14746
885.524	14705
885.65	14693
885.775	14632
885.9	14648
886.025	14788
886.15	14845
886.275	14651
886.4	14495
886.525	14613
886.65	14625
886.775	14552
886.9	14750
887.025	14876
887.149	14659
887.274	14533
887.399	14446
887.523	14450
887.648	14343
887.773	14404
887.897	14465
888.021	14568
888.146	14393
888.27	14640
888.395	14632
888.519	14629
888.643	14545
888.767	14530
888.891	14461
889.015	14389
889.139	14457
889.263	14305
889.387	14450
889.511	14526
889.635	14495
889.759	14362
889.883	14332
890.006	14389
890.13	14560
890.254	14233
890.377	14362
890.501	14168
890.624	14176
890.748	14271
890.871	14069
890.995	14084
891.118	14100
891.241	14092
891.364	14145
891.488	14142
891.611	14069
891.734	14100
891.857	14153
891.98	14119
892.103	14164
892.226	14123
892.349	14043
892.471	13967
892.594	14069
892.717	14107
892.839	14043
892.962	14069
893.085	14176
893.207	14050
893.33	13906
893.452	14046
893.575	14134
893.697	14065
893.819	14233
893.941	14195
894.064	14320
894.186	14043
894.308	14001
894.43	14237
894.552	14267
894.674	14240
894.796	14043
894.918	14027
895.04	14065
895.161	14142
895.283	14233
895.405	14111
895.526	14237
895.648	14187
895.769	14286
895.891	14168
896.012	14248
896.134	14381
896.255	14271
896.376	14218
896.498	14298
896.619	14233
896.74	14248
896.861	14339
896.982	14522
897.103	14708
897.224	14533
897.345	14571
897.466	14377
897.587	14598
897.708	14678
897.828	14583
897.949	14530
898.07	14332
898.19	14450
898.311	14716
898.431	14507
898.552	14632
898.672	14686
898.792	14625
898.913	14629
899.033	14492
899.153	14431
899.273	14301
899.393	14412
899.513	14461
899.633	14355
899.753	14473
899.873	14476
899.993	14404
900.113	14408
900.232	14419
900.352	14476
900.472	14454
900.591	14332
900.711	14313
900.83	14294
900.95	14286
901.069	14446
901.189	14240
901.308	14050
901.427	13906
901.546	14043
901.665	14008
901.784	13959
901.904	13852
902.023	13772
902.141	13559
902.26	13628
902.379	13575
902.498	13636
902.617	13468
902.735	13674
902.854	13510
902.973	13449
903.091	13358
903.21	13327
903.328	13255
903.446	13152
903.565	13129
903.683	13110
903.801	13099
903.919	13126
904.038	13088
904.156	12932
904.274	13015
904.392	13015
904.51	12947
904.627	12939
904.745	13019
904.863	12973
904.981	12730
905.098	12593
905.216	12597
905.334	12620
905.451	12692
905.569	12635
905.686	12673
905.803	12608
905.921	12486
906.038	12563
906.155	12536
906.272	12350
906.389	12410
906.506	12171
906.623	12251
906.74	12190
906.857	12072
906.974	12072
907.091	12289
907.208	12270
907.324	12273
907.441	12167
907.557	11999
907.674	11958
907.79	11901
907.907	11904
908.023	12011
908.139	11942
908.256	11912
908.372	11965
908.488	11859
908.604	11840
908.72	11688
908.836	11798
908.952	11707
909.068	11699
909.184	11798
909.3	11748
909.415	11840
909.531	11726
909.647	11501
909.762	11417
909.878	11349
909.993	11562
910.108	11512
910.224	11463
910.339	11532
910.454	11326
910.57	11398
910.685	11239
910.8	11604
910.915	11581
911.03	11421
911.145	11166
911.259	11216
911.374	11231
911.489	11231
911.604	11067
911.718	10995
911.833	10927
911.947	10866
912.062	10816
912.176	10900
912.291	11010
912.405	10953
912.519	11132
912.633	11227
912.748	10987
912.862	10972
912.976	10873
913.09	10691
913.204	10866
913.318	10862
913.431	10927
913.545	10930
913.659	11025
913.772	10862
913.886	10698
914	10778
914.113	10866
914.226	10828
914.34	10877
914.453	10675
914.566	10801
914.68	10656
914.793	10801
914.906	10516
915.019	10504
915.132	10424
915.245	10424
915.358	10443
915.47	10523
915.583	10569
915.696	10527
915.809	10607
915.921	10683
916.034	10493
916.146	10493
916.259	10405
916.371	10561
916.483	10531
916.595	10394
916.708	10417
916.82	10413
916.932	10367
917.044	10459
917.156	10417
917.268	10291
917.38	10402
917.491	10356
917.603	10295
917.715	10409
917.826	10402
917.938	10261
918.049	10109
918.161	10352
918.272	10500
918.384	10443
918.495	10325
918.606	10162
918.717	10154
918.828	10291
918.939	10196
919.05	10093
919.161	10215
919.272	9960
919.383	10112
919.494	10265
919.604	10367
919.715	10253
919.826	10162
919.936	10284
920.047	10219
920.157	10200
920.267	10417
920.378	10265
920.488	10261
920.598	10421
920.708	10519
920.818	10417
920.928	10508
921.038	10618
921.148	10504
921.258	10234
921.368	10246
921.477	10116
921.587	10116
921.697	9922
921.806	10215
921.916	10044
922.025	9865
922.134	9720
922.244	9800
922.353	9781
922.462	9679
922.571	9633
922.68	9439
922.789	9466
922.898	9519
923.007	9439
923.116	9473
923.224	9538
923.333	9481
923.442	9351
923.55	9359
923.659	9298
923.767	9492
923.876	9275
923.984	9355
924.092	9348
924.201	9363
924.309	9363
924.417	9424
924.525	9344
924.633	9306
924.741	9979
924.849	9112
924.956	9367
925.064	9123
925.172	9047
925.279	9093
925.387	9112
925.494	9233
925.602	9340
925.709	9264
925.816	9070
925.924	9119
926.031	9169
926.138	9135
926.245	9192
926.352	9066
926.459	9230
926.566	9203
926.673	9077
926.779	9020
926.886	9020
926.993	8830
927.099	8842
927.206	8807
927.312	8800
927.419	8800
927.525	8823
927.631	8914
927.737	8769
927.843	8716
927.95	8632
928.056	8716
928.162	8769
928.267	8792
928.373	9439
928.479	8800
928.585	8640
928.69	8724
928.796	8804
928.901	8621
929.007	8610
929.112	8625
929.218	8579
929.323	8587
929.428	8564
929.533	8670
929.638	8438
929.743	8522
929.848	8575
929.953	8533
930.058	8522
930.163	8305
930.267	8336
930.372	8488
930.477	8351
930.581	8533
930.685	8404
930.79	8218
930.894	8328
930.998	8271
931.103	8389
931.207	8084
931.311	8077
931.415	7997
931.519	7795
931.623	7719
