Data from test_V78500241_3289.txt Node
Date: Fri Mar 25 14:56:36 CST 2022
User: usil
Spectrometer: V785-0024
Trigger mode: 0
Integration Time (sec): 4.000000E-1
Scans to average: 1
Nonlinearity correction enabled: false
Boxcar width: 0
Storing dark spectrum: false
XAxis mode: Wavelengths
Number of Pixels in Spectrum: 1024
>>>>>Begin Spectral Data<<<<<
801.071	21991
801.214	21895
801.356	21504
801.499	21564
801.641	21275
801.783	21454
801.926	21389
802.068	21256
802.211	21283
802.353	21161
802.496	20861
802.638	20902
802.78	20769
802.923	20674
803.065	20545
803.208	20648
803.35	20651
803.492	20667
803.635	20819
803.777	20663
803.919	20682
804.061	21058
804.204	20640
804.346	20503
804.488	20530
804.63	20636
804.773	20450
804.915	20533
805.057	20682
805.199	20575
805.341	20682
805.483	20644
805.626	20632
805.768	20651
805.91	20663
806.052	20606
806.194	20545
806.336	20617
806.478	20442
806.62	20522
806.762	20579
806.904	20670
807.046	21013
807.188	20883
807.33	20861
807.472	20914
807.614	20708
807.756	20800
807.898	20625
808.04	20575
808.182	20648
808.324	20590
808.465	20640
808.607	20895
808.749	20990
808.891	20952
809.033	21142
809.174	21001
809.316	20826
809.458	20823
809.6	20883
809.741	21032
809.883	20956
810.025	21112
810.166	20975
810.308	21085
810.45	21017
810.591	20910
810.733	20796
810.875	20689
811.016	20564
811.158	20602
811.299	20800
811.441	20891
811.582	20678
811.724	20712
811.865	20594
812.007	20594
812.148	20613
812.29	20773
812.431	20937
812.573	21085
812.714	21051
812.855	21237
812.997	21313
813.138	21416
813.279	21161
813.421	21192
813.562	21161
813.703	20937
813.845	20785
813.986	20552
814.127	20263
814.268	20374
814.41	20309
814.551	20298
814.692	20294
814.833	20191
814.974	20282
815.115	20229
815.256	20073
815.397	20058
815.539	20122
815.68	20024
815.821	19784
815.962	19928
816.103	19906
816.244	19761
816.385	19700
816.526	19666
816.666	19571
816.807	19415
816.948	19502
817.089	19510
817.23	19441
817.371	19396
817.512	19362
817.653	19365
817.793	19324
817.934	19282
818.075	19331
818.216	19396
818.356	19327
818.497	19141
818.638	18973
818.778	19015
818.919	19053
819.06	18924
819.2	19141
819.341	19247
819.481	19194
819.622	19426
819.762	19586
819.903	19445
820.043	19365
820.184	19324
820.324	19316
820.465	19392
820.605	19362
820.746	19255
820.886	19190
821.026	19263
821.167	19301
821.307	19388
821.447	19164
821.588	19110
821.728	18928
821.868	18985
822.008	18817
822.149	18719
822.289	18696
822.429	18532
822.569	18475
822.709	18395
822.849	18296
822.99	18190
823.13	18220
823.27	18201
823.41	18079
823.55	17874
823.69	17965
823.83	18034
823.97	17946
824.11	17817
824.25	17832
824.389	17794
824.529	17855
824.669	17866
824.809	17870
824.949	17961
825.089	17931
825.228	17832
825.368	17646
825.508	17627
825.648	17707
825.787	17562
825.927	17726
826.067	17448
826.206	17558
826.346	17573
826.485	17497
826.625	17699
826.765	17665
826.904	17710
827.044	17433
827.183	17288
827.323	17273
827.462	17307
827.601	17273
827.741	17246
827.88	17185
828.02	17200
828.159	17250
828.298	17292
828.437	17414
828.577	17261
828.716	17391
828.855	17235
828.994	17045
829.134	17086
829.273	17162
829.412	16980
829.551	16995
829.69	17079
829.829	17113
829.968	17189
830.107	17045
830.246	16980
830.385	16999
830.524	16980
830.663	16869
830.802	16839
830.941	16672
831.08	16531
831.219	16786
831.357	16691
831.496	16885
831.635	16599
831.774	16626
831.913	16554
832.051	16382
832.19	16596
832.329	16493
832.467	16382
832.606	16352
832.744	16386
832.883	16375
833.022	16238
833.16	16337
833.299	16421
833.437	16443
833.576	16485
833.714	16341
833.852	16443
833.991	16299
834.129	16443
834.267	16428
834.406	16390
834.544	16432
834.682	16443
834.821	16379
834.959	16516
835.097	16485
835.235	16531
835.373	16478
835.511	16462
835.65	16261
835.788	16207
835.926	16284
836.064	16112
836.202	16181
836.34	16341
836.478	16382
836.615	16299
836.753	16394
836.891	16348
837.029	16398
837.167	16341
837.305	16196
837.443	16253
837.58	16105
837.718	16215
837.856	16204
837.993	16097
838.131	16185
838.269	16120
838.406	16234
838.544	16074
838.681	15979
838.819	15968
838.956	15705
839.094	15778
839.231	15838
839.369	16036
839.506	16226
839.643	16002
839.781	15766
839.918	15732
840.055	15797
840.193	15766
840.33	15747
840.467	15652
840.604	15728
840.742	16051
840.879	15705
841.016	15633
841.153	15671
841.29	15949
841.427	15827
841.564	15781
841.701	15774
841.838	15739
841.975	15580
842.112	15743
842.249	15534
842.385	15515
842.522	15724
842.659	15568
842.796	15481
842.933	15568
843.069	15549
843.206	15534
843.343	15580
843.479	15618
843.616	15511
843.752	15283
843.889	15340
844.025	15447
844.162	15325
844.298	15420
844.435	15310
844.571	15310
844.708	15447
844.844	15428
844.98	15462
845.117	15420
845.253	15306
845.389	15249
845.525	15363
845.661	15222
845.798	15077
845.934	15154
846.07	15047
846.206	15081
846.342	15192
846.478	15123
846.614	15032
846.75	14941
846.886	14914
847.022	14842
847.158	14925
847.294	14952
847.429	14902
847.565	14845
847.701	15108
847.837	14648
847.972	14545
848.108	14640
848.244	14701
848.379	14541
848.515	14549
848.65	14480
848.786	14492
848.921	14507
849.057	14571
849.192	14575
849.328	14583
849.463	14423
849.598	14511
849.734	14450
849.869	14442
850.004	14313
850.14	14267
850.275	14305
850.41	14301
850.545	14142
850.68	14362
850.815	14286
850.95	14271
851.085	14446
851.22	14366
851.355	14218
851.49	14282
851.625	14237
851.76	14221
851.895	14138
852.03	14199
852.165	14233
852.299	14214
852.434	14317
852.569	14252
852.703	14298
852.838	14400
852.973	14473
853.107	14423
853.242	14229
853.376	14168
853.511	13951
853.645	14069
853.78	14229
853.914	14115
854.048	14081
854.183	14115
854.317	14134
854.451	14324
854.585	14191
854.72	14077
854.854	14149
854.988	14134
855.122	14081
855.256	13974
855.39	14062
855.524	14252
855.658	14134
855.792	14218
855.926	14221
856.06	14138
856.194	14256
856.327	14176
856.461	14043
856.595	14142
856.729	14027
856.862	14267
856.996	14145
857.13	14206
857.263	14286
857.397	14278
857.53	14180
857.664	14210
857.797	14199
857.931	14248
858.064	14240
858.197	14225
858.331	14157
858.464	14115
858.597	13993
858.731	14084
858.864	14062
858.997	14107
859.13	14145
859.263	14103
859.396	14237
859.529	14183
859.662	14138
859.795	14065
859.928	14149
860.061	14305
860.194	14282
860.327	14138
860.46	14210
860.592	14233
860.725	14328
860.858	14138
860.99	14115
861.123	14031
861.256	14062
861.388	14168
861.521	14891
861.653	14005
861.786	13921
861.918	13978
862.05	14073
862.183	14123
862.315	14054
862.447	14199
862.58	14107
862.712	13947
862.844	13875
862.976	14043
863.108	13944
863.24	14298
863.372	13822
863.504	13947
863.636	13826
863.768	13913
863.9	13928
864.032	13864
864.164	13967
864.296	13959
864.428	14012
864.559	14050
864.691	14039
864.823	13967
864.954	13936
865.086	13890
865.217	13913
865.349	13856
865.48	13913
865.612	13871
865.743	14039
865.875	13989
866.006	13837
866.137	13944
866.269	13970
866.4	13940
866.531	13890
866.662	13913
866.793	13868
866.924	13849
867.055	14020
867.186	13894
867.317	13852
867.448	13757
867.579	13883
867.71	13761
867.841	13837
867.972	13898
868.103	13852
868.233	13913
868.364	13791
868.495	14027
868.625	14107
868.756	14267
868.886	14001
869.017	14157
869.147	14286
869.278	14336
869.408	14180
869.539	14164
869.669	14214
869.799	14161
869.929	14225
870.06	14317
870.19	14473
870.32	14393
870.45	14499
870.58	14590
870.71	14625
870.84	14731
870.97	14560
871.1	14606
871.23	14765
871.36	14804
871.489	14644
871.619	14659
871.749	14762
871.879	14773
872.008	14937
872.138	14758
872.267	14708
872.397	14667
872.526	14579
872.656	14594
872.785	14655
872.915	14777
873.044	14921
873.173	14796
873.303	14807
873.432	14781
873.561	14872
873.69	14785
873.819	14811
873.948	14845
874.077	14842
874.206	14765
874.335	14845
874.464	14956
874.593	15074
874.722	14998
874.851	15188
874.979	15169
875.108	15112
875.237	15001
875.365	15085
875.494	15013
875.623	15119
875.751	15017
875.88	15104
876.008	15245
876.136	15408
876.265	15564
876.393	15679
876.521	15545
876.65	15736
876.778	15584
876.906	15561
877.034	15424
877.162	15492
877.29	15420
877.418	15549
877.546	15557
877.674	15580
877.802	15614
877.93	15538
878.058	15504
878.185	15344
878.313	15428
878.441	15549
878.568	15351
878.696	15420
878.824	15580
878.951	15633
879.079	15694
879.206	15804
879.333	15656
879.461	15553
879.588	15660
879.715	15743
879.842	15762
879.97	15614
880.097	15374
880.224	15389
880.351	15424
880.478	15408
880.605	15359
880.732	15332
880.859	15545
880.986	15325
881.112	15397
881.239	15256
881.366	15093
881.493	15108
881.619	15024
881.746	15020
881.872	14960
881.999	15020
882.125	15005
882.252	15093
882.378	15119
882.505	15058
882.631	15062
882.757	14868
882.883	15001
883.01	14853
883.136	14750
883.262	14804
883.388	14590
883.514	14891
883.64	14891
883.766	14781
883.892	14750
884.018	14655
884.143	14815
884.269	14967
884.395	14602
884.52	14541
884.646	14625
884.772	14541
884.897	14552
885.023	14568
885.148	14720
885.274	14667
885.399	14727
885.524	14537
885.65	14594
885.775	14590
885.9	14617
886.025	14693
886.15	14560
886.275	14469
886.4	14431
886.525	14503
886.65	14480
886.775	14541
886.9	14750
887.025	14804
887.149	14640
887.274	14362
887.399	14431
887.523	14370
887.648	14423
887.773	14278
887.897	14617
888.021	14446
888.146	14301
888.27	14533
888.395	14499
888.519	14423
888.643	14473
888.767	14404
888.891	14457
889.015	14271
889.139	14313
889.263	14221
889.387	14412
889.511	14488
889.635	14415
889.759	14180
889.883	14267
890.006	14206
890.13	14339
890.254	14271
890.377	14172
890.501	14065
890.624	14123
890.748	14069
890.871	14027
890.995	14001
891.118	13947
891.241	13887
891.364	13890
891.488	14111
891.611	13932
891.734	14012
891.857	14008
891.98	13978
892.103	14088
892.226	14008
892.349	13940
892.471	13890
892.594	13913
892.717	13982
892.839	13947
892.962	13928
893.085	14115
893.207	14024
893.33	13833
893.452	13902
893.575	13997
893.697	13890
893.819	14180
893.941	14119
894.064	14111
894.186	14016
894.308	14008
894.43	14065
894.552	14134
894.674	14092
894.796	13963
894.918	14062
895.04	13970
895.161	14199
895.283	14031
895.405	13909
895.526	14069
895.648	14126
895.769	14123
895.891	14157
896.012	14142
896.134	14225
896.255	14149
896.376	14153
896.498	14134
896.619	14240
896.74	14187
896.861	14145
896.982	14530
897.103	14644
897.224	14434
897.345	14339
897.466	14431
897.587	14568
897.708	14575
897.828	14469
897.949	14423
898.07	14214
898.19	14396
898.311	14587
898.431	14404
898.552	14514
898.672	14590
898.792	14594
898.913	14537
899.033	14438
899.153	14419
899.273	14271
899.393	14275
899.513	14412
899.633	14313
899.753	14389
899.873	14438
899.993	14446
900.113	14393
900.232	14328
900.352	14313
900.472	14221
900.591	14145
900.711	14214
900.83	14187
900.95	14286
901.069	14290
901.189	14123
901.308	13890
901.427	13883
901.546	13906
901.665	13951
901.784	13940
901.904	13814
902.023	13753
902.141	13491
902.26	13502
902.379	13578
902.498	13476
902.617	13396
902.735	13422
902.854	13525
902.973	13407
903.091	13217
903.21	13183
903.328	13187
903.446	13114
903.565	12977
903.683	13091
903.801	13015
903.919	13061
904.038	13019
904.156	12901
904.274	13004
904.392	12783
904.51	12844
904.627	12897
904.745	12981
904.863	12943
904.981	12711
905.098	12517
905.216	12513
905.334	12654
905.451	12479
905.569	12517
905.686	12696
905.803	12494
905.921	12365
906.038	12464
906.155	12346
906.272	12251
906.389	12342
906.506	12197
906.623	12194
906.74	12087
906.857	12072
906.974	12110
907.091	12178
907.208	12270
907.324	12167
907.441	12049
907.557	11882
907.674	11912
907.79	11832
907.907	11832
908.023	11927
908.139	11893
908.256	11790
908.372	11870
908.488	11779
908.604	11741
908.72	11737
908.836	11680
908.952	11661
909.068	11668
909.184	11771
909.3	11710
909.415	11699
909.531	11699
909.647	11448
909.762	11493
909.878	11364
909.993	11379
910.108	11360
910.224	11429
910.339	11429
910.454	11269
910.57	11277
910.685	11197
910.8	11406
910.915	11471
911.03	11303
911.145	11128
911.259	11109
911.374	11140
911.489	11151
911.604	10980
911.718	10881
911.833	10930
911.947	10839
912.062	10615
912.176	10908
912.291	10877
912.405	10828
912.519	11064
912.633	11067
912.748	10934
912.862	10850
912.976	10835
913.09	10607
913.204	10748
913.318	10736
913.431	10835
913.545	10850
913.659	10949
913.772	10812
913.886	10630
914	10588
914.113	10778
914.226	10763
914.34	10672
914.453	10630
914.566	10778
914.68	10630
914.793	10512
914.906	10428
915.019	10436
915.132	10360
915.245	10409
915.358	10432
915.47	10402
915.583	10462
915.696	10402
915.809	10538
915.921	10516
916.034	10428
916.146	10379
916.259	10299
916.371	10447
916.483	10379
916.595	10238
916.708	10310
916.82	10325
916.932	10295
917.044	10341
917.156	10337
917.268	10204
917.38	10230
917.491	10295
917.603	10139
917.715	10322
917.826	10287
917.938	10211
918.049	10071
918.161	10230
918.272	10261
918.384	10382
918.495	10227
918.606	10067
918.717	10063
918.828	10082
918.939	10071
919.05	10078
919.161	10036
919.272	9884
919.383	9930
919.494	10143
919.604	10352
919.715	10086
919.826	10051
919.936	10139
920.047	10200
920.157	10101
920.267	10367
920.378	10154
920.488	10192
920.598	10261
920.708	10421
920.818	10367
920.928	10268
921.038	10443
921.148	10459
921.258	10223
921.368	10124
921.477	10017
921.587	10021
921.697	9865
921.806	10010
921.916	9915
922.025	9736
922.134	9694
922.244	9644
922.353	9751
922.462	9504
922.571	9538
922.68	9439
922.789	9355
922.898	9401
923.007	9374
923.116	9408
923.224	9393
923.333	9359
923.442	9279
923.55	9218
923.659	9329
923.767	9329
923.876	9218
923.984	9344
924.092	9256
924.201	9298
924.309	9226
924.417	9264
924.525	9222
924.633	9138
924.741	10192
924.849	9097
924.956	9203
925.064	9089
925.172	8967
925.279	9112
925.387	9005
925.494	9154
925.602	9180
925.709	9184
925.816	8971
925.924	9047
926.031	9119
926.138	9039
926.245	9100
926.352	8933
926.459	9119
926.566	9089
926.673	8998
926.779	8883
926.886	9001
926.993	8731
927.099	8701
927.206	8739
927.312	8777
927.419	8842
927.525	8735
927.631	8777
927.737	8724
927.843	8724
927.95	8530
928.056	8636
928.162	8655
928.267	8689
928.373	9218
928.479	8826
928.585	8492
928.69	8686
928.796	8689
928.901	8625
929.007	8370
929.112	8602
929.218	8537
929.323	8526
929.428	8465
929.533	8613
929.638	8351
929.743	8412
929.848	8514
929.953	8537
930.058	8427
930.163	8256
930.267	8282
930.372	8412
930.477	8244
930.581	8423
930.685	8377
930.79	8214
930.894	8225
930.998	8210
931.103	8286
931.207	8001
931.311	7974
931.415	7849
931.519	7727
931.623	7658
