Data from test_V78500241_3046.txt Node
Date: Fri Mar 25 14:54:55 CST 2022
User: usil
Spectrometer: V785-0024
Trigger mode: 0
Integration Time (sec): 4.000000E-1
Scans to average: 1
Nonlinearity correction enabled: false
Boxcar width: 0
Storing dark spectrum: false
XAxis mode: Wavelengths
Number of Pixels in Spectrum: 1024
>>>>>Begin Spectral Data<<<<<
801.071	22006
801.214	21983
801.356	21762
801.499	21553
801.641	21504
801.783	21443
801.926	21477
802.068	21473
802.211	21207
802.353	21214
802.496	21043
802.638	21032
802.78	20910
802.923	20914
803.065	20823
803.208	20743
803.35	20845
803.492	20853
803.635	20895
803.777	20750
803.919	20914
804.061	21146
804.204	20819
804.346	20834
804.488	20762
804.63	20693
804.773	20655
804.915	20830
805.057	20849
805.199	20598
805.341	20743
805.483	20857
805.626	20796
805.768	20617
805.91	20648
806.052	20819
806.194	20659
806.336	20743
806.478	20678
806.62	20659
806.762	20708
806.904	20819
807.046	21032
807.188	21047
807.33	20925
807.472	21104
807.614	20979
807.756	21039
807.898	21001
808.04	20781
808.182	20754
808.324	20864
808.465	20887
808.607	20880
808.749	21150
808.891	21173
809.033	21249
809.174	21119
809.316	21176
809.458	21123
809.6	20975
809.741	21096
809.883	21142
810.025	21264
810.166	21184
810.308	21283
810.45	21150
810.591	21199
810.733	20921
810.875	20861
811.016	20754
811.158	20823
811.299	20864
811.441	21009
811.582	20960
811.724	20929
811.865	20849
812.007	20800
812.148	20849
812.29	20982
812.431	21081
812.573	21188
812.714	21218
812.855	21336
812.997	21477
813.138	21576
813.279	21450
813.421	21256
813.562	21329
813.703	21055
813.845	21017
813.986	20716
814.127	20503
814.268	20454
814.41	20594
814.551	20442
814.692	20389
814.833	20393
814.974	20366
815.115	20298
815.256	20385
815.397	20286
815.539	20191
815.68	20332
815.821	20065
815.962	20122
816.103	20119
816.244	20054
816.385	19845
816.526	19837
816.666	19704
816.807	19582
816.948	19666
817.089	19742
817.23	19628
817.371	19495
817.512	19487
817.653	19628
817.793	19499
817.934	19552
818.075	19628
818.216	19476
818.356	19502
818.497	19339
818.638	19152
818.778	19175
818.919	19141
819.06	19274
819.2	19388
819.341	19282
819.481	19403
819.622	19620
819.762	19575
819.903	19681
820.043	19597
820.184	19460
820.324	19499
820.465	19575
820.605	19472
820.746	19422
820.886	19369
821.026	19552
821.167	19396
821.307	19563
821.447	19422
821.588	19308
821.728	19209
821.868	18932
822.008	18863
822.149	18871
822.289	18867
822.429	18681
822.569	18623
822.709	18566
822.849	18395
822.99	18380
823.13	18235
823.27	18410
823.41	18224
823.55	18026
823.69	18155
823.83	18247
823.97	18102
824.11	17954
824.25	17836
824.389	17908
824.529	18015
824.669	17931
824.809	17984
824.949	18091
825.089	18102
825.228	18019
825.368	17764
825.508	17775
825.648	17760
825.787	17726
825.927	17832
826.067	17676
826.206	17672
826.346	17760
826.485	17726
826.625	17752
826.765	17893
826.904	17691
827.044	17562
827.183	17471
827.323	17448
827.462	17471
827.601	17463
827.741	17436
827.88	17414
828.02	17341
828.159	17414
828.298	17406
828.437	17452
828.577	17421
828.716	17573
828.855	17395
828.994	17128
829.134	17162
829.273	17200
829.412	17083
829.551	17124
829.69	17140
829.829	17124
829.968	17261
830.107	17155
830.246	17242
830.385	17098
830.524	17067
830.663	16942
830.802	16828
830.941	16774
831.08	16717
831.219	16881
831.357	16782
831.496	16999
831.635	16717
831.774	16641
831.913	16618
832.051	16656
832.19	16577
832.329	16470
832.467	16466
832.606	16470
832.744	16459
832.883	16424
833.022	16379
833.16	16523
833.299	16474
833.437	16550
833.576	16527
833.714	16531
833.852	16580
833.991	16508
834.129	16554
834.267	16603
834.406	16527
834.544	16558
834.682	16443
834.821	16470
834.959	16637
835.097	16462
835.235	16755
835.373	16558
835.511	16508
835.65	16432
835.788	16375
835.926	16211
836.064	16215
836.202	16322
836.34	16337
836.478	16500
836.615	16436
836.753	16550
836.891	16424
837.029	16360
837.167	16424
837.305	16341
837.443	16356
837.58	16230
837.718	16432
837.856	16310
837.993	16318
838.131	16322
838.269	16253
838.406	16215
838.544	16101
838.681	15983
838.819	16010
838.956	15831
839.094	15812
839.231	16006
839.369	15838
839.506	16207
839.643	16105
839.781	15808
839.918	15793
840.055	15846
840.193	15785
840.33	15873
840.467	15880
840.604	15835
840.742	16090
840.879	15603
841.016	15720
841.153	15717
841.29	15876
841.427	15831
841.564	15823
841.701	15732
841.838	15850
841.975	15633
842.112	15644
842.249	15717
842.385	15633
842.522	15800
842.659	15549
842.796	15561
842.933	15641
843.069	15534
843.206	15473
843.343	15633
843.479	15671
843.616	15637
843.752	15359
843.889	15317
844.025	15507
844.162	15287
844.298	15595
844.435	15386
844.571	15294
844.708	15412
844.844	15652
844.98	15526
845.117	15526
845.253	15252
845.389	15302
845.525	15279
845.661	15245
845.798	15123
845.934	15272
846.07	15085
846.206	15131
846.342	15291
846.478	15279
846.614	14861
846.75	14830
846.886	14933
847.022	15051
847.158	14910
847.294	14967
847.429	14979
847.565	14895
847.701	15241
847.837	14705
847.972	14682
848.108	14842
848.244	14781
848.379	14579
848.515	14583
848.65	14526
848.786	14606
848.921	14530
849.057	14625
849.192	14590
849.328	14518
849.463	14583
849.598	14476
849.734	14514
849.869	14362
850.004	14377
850.14	14442
850.275	14351
850.41	14328
850.545	14313
850.68	14305
850.815	14347
850.95	14317
851.085	14457
851.22	14415
851.355	14355
851.49	14271
851.625	14263
851.76	14259
851.895	14225
852.03	14195
852.165	14351
852.299	14370
852.434	14381
852.569	14290
852.703	14396
852.838	14317
852.973	14492
853.107	14518
853.242	14275
853.376	14183
853.511	14043
853.645	14130
853.78	14278
853.914	14214
854.048	14142
854.183	14111
854.317	14221
854.451	14355
854.585	14107
854.72	14081
854.854	14240
854.988	14142
855.122	14077
855.256	14107
855.39	14161
855.524	14233
855.658	14225
855.792	14180
855.926	14298
856.06	14206
856.194	14237
856.327	14271
856.461	14096
856.595	14180
856.729	14092
856.862	14355
856.996	14252
857.13	14176
857.263	14290
857.397	14351
857.53	14199
857.664	14313
857.797	14278
857.931	14408
858.064	14259
858.197	14275
858.331	14210
858.464	14153
858.597	14065
858.731	14130
858.864	14183
858.997	14237
859.13	14126
859.263	14218
859.396	14271
859.529	14229
859.662	14138
859.795	14164
859.928	14195
860.061	14309
860.194	14385
860.327	14225
860.46	14126
860.592	14278
860.725	14313
860.858	14362
860.99	14164
861.123	14157
861.256	14024
861.388	14172
861.521	14872
861.653	14202
861.786	13993
861.918	14039
862.05	14111
862.183	14138
862.315	14134
862.447	14294
862.58	14092
862.712	13986
862.844	13921
862.976	14039
863.108	13978
863.24	14351
863.372	13982
863.504	14012
863.636	13936
863.768	13982
863.9	14081
864.032	13967
864.164	13871
864.296	13978
864.428	14123
864.559	14024
864.691	14065
864.823	13997
864.954	13970
865.086	13944
865.217	13879
865.349	14001
865.48	13940
865.612	14001
865.743	14084
865.875	13989
866.006	13982
866.137	13936
866.269	13944
866.4	13902
866.531	13864
866.662	13944
866.793	13833
866.924	13852
867.055	13947
867.186	14065
867.317	13845
867.448	13898
867.579	13868
867.71	13818
867.841	13871
867.972	14050
868.103	13898
868.233	13890
868.364	13997
868.495	14092
868.625	14115
868.756	14256
868.886	14115
869.017	14130
869.147	14282
869.278	14343
869.408	14206
869.539	14202
869.669	14309
869.799	14259
869.929	14377
870.06	14393
870.19	14571
870.32	14457
870.45	14556
870.58	14606
870.71	14705
870.84	14629
870.97	14537
871.1	14613
871.23	14693
871.36	14800
871.489	14659
871.619	14842
871.749	14754
871.879	14762
872.008	14914
872.138	14811
872.267	14796
872.397	14648
872.526	14602
872.656	14625
872.785	14587
872.915	14838
873.044	14963
873.173	14838
873.303	14853
873.432	14891
873.561	14941
873.69	14925
873.819	14849
873.948	14826
874.077	14853
874.206	14777
874.335	14792
874.464	15013
874.593	15157
874.722	15081
874.851	15176
874.979	15245
875.108	15199
875.237	15169
875.365	15176
875.494	15180
875.623	15268
875.751	15211
875.88	15188
876.008	15325
876.136	15363
876.265	15698
876.393	15622
876.521	15629
876.65	15568
876.778	15599
876.906	15542
877.034	15473
877.162	15599
877.29	15530
877.418	15553
877.546	15679
877.674	15526
877.802	15599
877.93	15530
878.058	15644
878.185	15428
878.313	15603
878.441	15629
878.568	15370
878.696	15481
878.824	15507
878.951	15637
879.079	15698
879.206	15930
879.333	15720
879.461	15591
879.588	15743
879.715	15850
879.842	15869
879.97	15561
880.097	15500
880.224	15340
880.351	15428
880.478	15340
880.605	15321
880.732	15397
880.859	15637
880.986	15485
881.112	15492
881.239	15313
881.366	15245
881.493	15146
881.619	15058
881.746	15039
881.872	15108
881.999	15058
882.125	15051
882.252	15169
882.378	15020
882.505	15169
882.631	15066
882.757	14925
882.883	14956
883.01	14990
883.136	14861
883.262	14754
883.388	14678
883.514	14944
883.64	14933
883.766	14788
883.892	14705
884.018	14777
884.143	14925
884.269	14910
884.395	14667
884.52	14545
884.646	14613
884.772	14549
884.897	14556
885.023	14689
885.148	14705
885.274	14804
885.399	14743
885.524	14602
885.65	14648
885.775	14670
885.9	14636
886.025	14746
886.15	14655
886.275	14575
886.4	14545
886.525	14579
886.65	14545
886.775	14507
886.9	14708
887.025	14872
887.149	14610
887.274	14465
887.399	14434
887.523	14473
887.648	14442
887.773	14370
887.897	14556
888.021	14408
888.146	14400
888.27	14503
888.395	14495
888.519	14533
888.643	14533
888.767	14537
888.891	14339
889.015	14263
889.139	14256
889.263	14218
889.387	14438
889.511	14583
889.635	14396
889.759	14301
889.883	14286
890.006	14408
890.13	14492
890.254	14214
890.377	14256
890.501	14119
890.624	14035
890.748	14153
890.871	14092
890.995	13959
891.118	13917
891.241	14001
891.364	14020
891.488	14096
891.611	13970
891.734	13932
891.857	14119
891.98	14058
892.103	14103
892.226	14100
892.349	13940
892.471	13951
892.594	14020
892.717	14081
892.839	14016
892.962	14088
893.085	14065
893.207	13978
893.33	13925
893.452	13944
893.575	14012
893.697	13921
893.819	14107
893.941	14164
894.064	14172
894.186	14039
894.308	14069
894.43	14199
894.552	14119
894.674	14107
894.796	13909
894.918	14107
895.04	14027
895.161	14123
895.283	14187
895.405	14012
895.526	14065
895.648	14244
895.769	14149
895.891	14176
896.012	14267
896.134	14252
896.255	14263
896.376	14210
896.498	14115
896.619	14366
896.74	14183
896.861	14218
896.982	14503
897.103	14602
897.224	14495
897.345	14511
897.466	14351
897.587	14408
897.708	14632
897.828	14454
897.949	14389
898.07	14336
898.19	14336
898.311	14617
898.431	14541
898.552	14438
898.672	14632
898.792	14693
898.913	14629
899.033	14530
899.153	14480
899.273	14336
899.393	14317
899.513	14385
899.633	14450
899.753	14495
899.873	14328
899.993	14457
900.113	14336
900.232	14480
900.352	14415
900.472	14259
900.591	14218
900.711	14263
900.83	14259
900.95	14336
901.069	14324
901.189	14240
901.308	13967
901.427	14039
901.546	13993
901.665	13970
901.784	13970
901.904	13879
902.023	13700
902.141	13540
902.26	13457
902.379	13651
902.498	13548
902.617	13434
902.735	13483
902.854	13537
902.973	13445
903.091	13232
903.21	13213
903.328	13255
903.446	13168
903.565	13057
903.683	13126
903.801	13053
903.919	13164
904.038	13008
904.156	12894
904.274	13042
904.392	12859
904.51	12916
904.627	12863
904.745	12928
904.863	12947
904.981	12764
905.098	12601
905.216	12612
905.334	12582
905.451	12585
905.569	12517
905.686	12585
905.803	12536
905.921	12399
906.038	12456
906.155	12414
906.272	12289
906.389	12247
906.506	12125
906.623	12224
906.74	12163
906.857	12110
906.974	12064
907.091	12235
907.208	12251
907.324	12186
907.441	12079
907.557	11931
907.674	12015
907.79	11859
907.907	11843
908.023	11950
908.139	11874
908.256	11710
908.372	11874
908.488	11828
908.604	11718
908.72	11646
908.836	11752
908.952	11680
909.068	11611
909.184	11741
909.3	11722
909.415	11802
909.531	11707
909.647	11505
909.762	11497
909.878	11440
909.993	11474
910.108	11459
910.224	11543
910.339	11452
910.454	11360
910.57	11284
910.685	11242
910.8	11604
910.915	11501
911.03	11322
911.145	11220
911.259	11181
911.374	11147
911.489	11090
911.604	11090
911.718	11052
911.833	10976
911.947	10729
912.062	10714
912.176	10961
912.291	10885
912.405	10930
912.519	11143
912.633	11109
912.748	11045
912.862	10953
912.976	10729
913.09	10740
913.204	10675
913.318	10721
913.431	10911
913.545	10900
913.659	10938
913.772	10850
913.886	10645
914	10592
914.113	10850
914.226	10797
914.34	10801
914.453	10561
914.566	10721
914.68	10656
914.793	10615
914.906	10489
915.019	10402
915.132	10394
915.245	10352
915.358	10436
915.47	10459
915.583	10504
915.696	10470
915.809	10596
915.921	10546
916.034	10417
916.146	10402
916.259	10341
916.371	10550
916.483	10432
916.595	10299
916.708	10436
916.82	10272
916.932	10341
917.044	10386
917.156	10284
917.268	10246
917.38	10257
917.491	10261
917.603	10280
917.715	10421
917.826	10306
917.938	10211
918.049	10116
918.161	10268
918.272	10390
918.384	10329
918.495	10276
918.606	10074
918.717	10074
918.828	10188
918.939	10192
919.05	10112
919.161	10090
919.272	9857
919.383	9998
919.494	10166
919.604	10371
919.715	10135
919.826	9975
919.936	10086
920.047	10181
920.157	10188
920.267	10363
920.378	10162
920.488	10162
920.598	10291
920.708	10546
920.818	10337
920.928	10325
921.038	10504
921.148	10470
921.258	10242
921.368	10207
921.477	10074
921.587	10013
921.697	9979
921.806	10139
921.916	9869
922.025	9797
922.134	9724
922.244	9679
922.353	9709
922.462	9637
922.571	9576
922.68	9515
922.789	9443
922.898	9431
923.007	9401
923.116	9454
923.224	9477
923.333	9424
923.442	9374
923.55	9291
923.659	9325
923.767	9344
923.876	9302
923.984	9325
924.092	9279
924.201	9298
924.309	9344
924.417	9306
924.525	9332
924.633	9222
924.741	10204
924.849	9055
924.956	9283
925.064	9058
925.172	9009
925.279	9074
925.387	9062
925.494	9173
925.602	9237
925.709	9157
925.816	9058
925.924	9146
926.031	9188
926.138	9081
926.245	9169
926.352	9020
926.459	9085
926.566	9256
926.673	9051
926.779	8933
926.886	8937
926.993	8838
927.099	8758
927.206	8800
927.312	8796
927.419	8925
927.525	8823
927.631	8891
927.737	8830
927.843	8663
927.95	8606
928.056	8708
928.162	8697
928.267	8769
928.373	9249
928.479	8792
928.585	8568
928.69	8636
928.796	8788
928.901	8625
929.007	8526
929.112	8636
929.218	8564
929.323	8598
929.428	8522
929.533	8670
929.638	8526
929.743	8492
929.848	8579
929.953	8469
930.058	8469
930.163	8347
930.267	8370
930.372	8446
930.477	8317
930.581	8568
930.685	8408
930.79	8275
930.894	8301
930.998	8279
931.103	8343
931.207	8062
931.311	7986
931.415	7894
931.519	7769
931.623	7677
