Data from test_V78500241_1122.txt Node
Date: Fri Mar 25 14:41:31 CST 2022
User: usil
Spectrometer: V785-0024
Trigger mode: 0
Integration Time (sec): 4.000000E-1
Scans to average: 1
Nonlinearity correction enabled: false
Boxcar width: 0
Storing dark spectrum: false
XAxis mode: Wavelengths
Number of Pixels in Spectrum: 1024
>>>>>Begin Spectral Data<<<<<
801.071	22672
801.214	22409
801.356	22272
801.499	22196
801.641	21934
801.783	22036
801.926	21945
802.068	21972
802.211	21861
802.353	21743
802.496	21504
802.638	21351
802.78	21412
802.923	21370
803.065	21310
803.208	21291
803.35	21283
803.492	21367
803.635	21412
803.777	21252
803.919	21291
804.061	21686
804.204	21344
804.346	21230
804.488	21165
804.63	21214
804.773	21214
804.915	21237
805.057	21332
805.199	21146
805.341	21317
805.483	21416
805.626	21344
805.768	21207
805.91	21214
806.052	21294
806.194	21245
806.336	21458
806.478	21378
806.62	21127
806.762	21367
806.904	21519
807.046	21724
807.188	21599
807.33	21660
807.472	21644
807.614	21447
807.756	21667
807.898	21523
808.04	21473
808.182	21485
808.324	21473
808.465	21469
808.607	21724
808.749	22013
808.891	22055
809.033	22120
809.174	21994
809.316	21827
809.458	21827
809.6	21705
809.741	21709
809.883	21945
810.025	21922
810.166	21861
810.308	21964
810.45	21720
810.591	21671
810.733	21667
810.875	21439
811.016	21332
811.158	21416
811.299	21553
811.441	21496
811.582	21545
811.724	21492
811.865	21355
812.007	21382
812.148	21321
812.29	21462
812.431	21686
812.573	21675
812.714	21781
812.855	21884
812.997	21998
813.138	22067
813.279	21930
813.421	21926
813.562	21915
813.703	21789
813.845	21614
813.986	21245
814.127	21150
814.268	21062
814.41	21074
814.551	21017
814.692	21093
814.833	20868
814.974	20963
815.115	20948
815.256	20720
815.397	20773
815.539	20800
815.68	20823
815.821	20644
815.962	20693
816.103	20746
816.244	20533
816.385	20495
816.526	20476
816.666	20351
816.807	20145
816.948	20149
817.089	20183
817.23	20195
817.371	20176
817.512	20237
817.653	20107
817.793	20065
817.934	20202
818.075	20062
818.216	20081
818.356	20111
818.497	19986
818.638	19746
818.778	19772
818.919	19788
819.06	19772
819.2	19959
819.341	19928
819.481	19986
819.622	20206
819.762	20244
819.903	20362
820.043	20168
820.184	20138
820.324	20081
820.465	20122
820.605	20092
820.746	20096
820.886	19982
821.026	20005
821.167	20103
821.307	20073
821.447	19936
821.588	19871
821.728	19746
821.868	19647
822.008	19613
822.149	19491
822.289	19468
822.429	19339
822.569	19171
822.709	19164
822.849	18996
822.99	19031
823.13	18993
823.27	18966
823.41	18760
823.55	18726
823.69	18829
823.83	18817
823.97	18734
824.11	18635
824.25	18540
824.389	18585
824.529	18741
824.669	18597
824.809	18768
824.949	18654
825.089	18684
825.228	18536
825.368	18410
825.508	18395
825.648	18376
825.787	18391
825.927	18399
826.067	18380
826.206	18285
826.346	18388
826.485	18498
826.625	18403
826.765	18559
826.904	18361
827.044	18266
827.183	18190
827.323	18114
827.462	18114
827.601	18144
827.741	17999
827.88	18098
828.02	17931
828.159	18117
828.298	18068
828.437	18133
828.577	18049
828.716	18144
828.855	18007
828.994	17783
829.134	17855
829.273	17813
829.412	17745
829.551	17729
829.69	17726
829.829	17889
829.968	17859
830.107	17904
830.246	17870
830.385	17783
830.524	17771
830.663	17573
830.802	17691
830.941	17379
831.08	17433
831.219	17493
831.357	17455
831.496	17665
831.635	17395
831.774	17349
831.913	17376
832.051	17246
832.19	17166
832.329	17296
832.467	17147
832.606	17155
832.744	17010
832.883	17269
833.022	17048
833.16	17155
833.299	17117
833.437	17185
833.576	17197
833.714	17189
833.852	17235
833.991	17360
834.129	17258
834.267	17170
834.406	17269
834.544	17288
834.682	17193
834.821	17136
834.959	17417
835.097	17200
835.235	17349
835.373	17204
835.511	17212
835.65	17098
835.788	17124
835.926	16873
836.064	16923
836.202	16995
836.34	17109
836.478	17147
836.615	17109
836.753	17117
836.891	17079
837.029	17086
837.167	17048
837.305	16984
837.443	16919
837.58	16915
837.718	17052
837.856	16938
837.993	16911
838.131	16995
838.269	16946
838.406	16900
838.544	16900
838.681	16675
838.819	16634
838.956	16599
839.094	16531
839.231	16577
839.369	16664
839.506	16938
839.643	16729
839.781	16451
839.918	16466
840.055	16478
840.193	16443
840.33	16470
840.467	16405
840.604	16542
840.742	16702
840.879	16367
841.016	16474
841.153	16462
841.29	16569
841.427	16455
841.564	16466
841.701	16459
841.838	16432
841.975	16402
842.112	16409
842.249	16234
842.385	16261
842.522	16489
842.659	16367
842.796	16242
842.933	16337
843.069	16306
843.206	16234
843.343	16284
843.479	16265
843.616	16303
843.752	16090
843.889	16025
844.025	16143
844.162	15979
844.298	16124
844.435	16074
844.571	16055
844.708	16139
844.844	16150
844.98	16230
845.117	16226
845.253	16017
845.389	15994
845.525	15998
845.661	16105
845.798	16036
845.934	16284
846.07	16234
846.206	16310
846.342	16318
846.478	16086
846.614	15823
846.75	15705
846.886	15652
847.022	15705
847.158	15808
847.294	15698
847.429	15701
847.565	15606
847.701	15838
847.837	15279
847.972	15249
848.108	15412
848.244	15313
848.379	15340
848.515	15237
848.65	15157
848.786	15256
848.921	15237
849.057	15344
849.192	15268
849.328	15256
849.463	15283
849.598	15173
849.734	15154
849.869	15097
850.004	15009
850.14	15039
850.275	15005
850.41	14895
850.545	14864
850.68	15089
850.815	14998
850.95	14895
851.085	15249
851.22	15051
851.355	14925
851.49	14925
851.625	14929
851.76	15051
851.895	14891
852.03	14929
852.165	14933
852.299	14948
852.434	15051
852.569	15043
852.703	14982
852.838	15058
852.973	15032
853.107	15123
853.242	14960
853.376	14960
853.511	14765
853.645	14857
853.78	14891
853.914	14925
854.048	14838
854.183	14868
854.317	14895
854.451	14998
854.585	14868
854.72	14830
854.854	14887
854.988	14834
855.122	14876
855.256	14724
855.39	14811
855.524	14887
855.658	14929
855.792	14899
855.926	14849
856.06	14948
856.194	14864
856.327	14834
856.461	14754
856.595	14727
856.729	14785
856.862	14952
856.996	14872
857.13	14857
857.263	14944
857.397	14921
857.53	14842
857.664	14872
857.797	14941
857.931	14990
858.064	14933
858.197	14948
858.331	14788
858.464	14819
858.597	14758
858.731	14785
858.864	14807
858.997	14823
859.13	14735
859.263	14910
859.396	14971
859.529	14823
859.662	14701
859.795	14842
859.928	14864
860.061	15028
860.194	14971
860.327	14921
860.46	14883
860.592	14891
860.725	15013
860.858	14914
860.99	14823
861.123	14849
861.256	14826
861.388	14864
861.521	15553
861.653	14727
861.786	14727
861.918	14811
862.05	14750
862.183	14800
862.315	14887
862.447	14845
862.58	14811
862.712	14655
862.844	14640
862.976	14667
863.108	14655
863.24	15055
863.372	14541
863.504	14636
863.636	14571
863.768	14720
863.9	14556
864.032	14598
864.164	14644
864.296	14587
864.428	14724
864.559	14625
864.691	14720
864.823	14720
864.954	14689
865.086	14674
865.217	14613
865.349	14575
865.48	14541
865.612	14632
865.743	14674
865.875	14636
866.006	14644
866.137	14583
866.269	14617
866.4	14564
866.531	14621
866.662	14537
866.793	14598
866.924	14564
867.055	14556
867.186	14587
867.317	14522
867.448	14590
867.579	14480
867.71	14511
867.841	14507
867.972	14518
868.103	14587
868.233	14697
868.364	14590
868.495	14701
868.625	14800
868.756	14895
868.886	14701
869.017	14804
869.147	14982
869.278	14929
869.408	14823
869.539	14921
869.669	14960
869.799	14796
869.929	14944
870.06	14937
870.19	15313
870.32	15138
870.45	15272
870.58	15321
870.71	15348
870.84	15321
870.97	15195
871.1	15226
871.23	15397
871.36	15431
871.489	15382
871.619	15389
871.749	15405
871.879	15466
872.008	15530
872.138	15431
872.267	15431
872.397	15370
872.526	15310
872.656	15230
872.785	15214
872.915	15458
873.044	15523
873.173	15549
873.303	15401
873.432	15473
873.561	15530
873.69	15584
873.819	15466
873.948	15530
874.077	15450
874.206	15439
874.335	15568
874.464	15564
874.593	15751
874.722	15728
874.851	15747
874.979	15819
875.108	15880
875.237	15690
875.365	15751
875.494	15686
875.623	15903
875.751	15755
875.88	15827
876.008	15975
876.136	16021
876.265	16268
876.393	16322
876.521	16181
876.65	16367
876.778	16344
876.906	16071
877.034	16242
877.162	16188
877.29	16173
877.418	16120
877.546	16261
877.674	16253
877.802	16188
877.93	16344
878.058	16162
878.185	16086
878.313	16112
878.441	16143
878.568	16109
878.696	16192
878.824	16276
878.951	16329
879.079	16390
879.206	16622
879.333	16489
879.461	16508
879.588	16474
879.715	16485
879.842	16702
879.97	16436
880.097	16261
880.224	16078
880.351	16196
880.478	16082
880.605	16147
880.732	16147
880.859	16329
880.986	16093
881.112	16147
881.239	16010
881.366	15911
881.493	15823
881.619	15709
881.746	15789
881.872	15694
881.999	15778
882.125	15751
882.252	15808
882.378	15766
882.505	15956
882.631	15732
882.757	15545
882.883	15610
883.01	15580
883.136	15504
883.262	15420
883.388	15355
883.514	15587
883.64	15663
883.766	15545
883.892	15378
884.018	15511
884.143	15507
884.269	15580
884.395	15306
884.52	15249
884.646	15241
884.772	15237
884.897	15237
885.023	15317
885.148	15291
885.274	15447
885.399	15264
885.524	15245
885.65	15252
885.775	15378
885.9	15214
886.025	15386
886.15	15291
886.275	15180
886.4	15154
886.525	15241
886.65	15245
886.775	15268
886.9	15355
887.025	15523
887.149	15272
887.274	15165
887.399	15058
887.523	15146
887.648	14963
887.773	14910
887.897	15154
888.021	15104
888.146	15043
888.27	15104
888.395	15207
888.519	15146
888.643	15173
888.767	15157
888.891	15062
889.015	14902
889.139	14929
889.263	14887
889.387	15036
889.511	15123
889.635	14971
889.759	14921
889.883	14792
890.006	14979
890.13	15047
890.254	14781
890.377	14925
890.501	14693
890.624	14674
890.748	14781
890.871	14659
890.995	14511
891.118	14484
891.241	14552
891.364	14549
891.488	14754
891.611	14575
891.734	14552
891.857	14716
891.98	14526
892.103	14663
892.226	14674
892.349	14590
892.471	14431
892.594	14556
892.717	14533
892.839	14568
892.962	14598
893.085	14785
893.207	14571
893.33	14480
893.452	14549
893.575	14670
893.697	14526
893.819	14765
893.941	14800
894.064	14693
894.186	14480
894.308	14473
894.43	14640
894.552	14929
894.674	14712
894.796	14492
894.918	14621
895.04	14598
895.161	14712
895.283	14705
895.405	14651
895.526	14621
895.648	14636
895.769	14686
895.891	14746
896.012	14758
896.134	14800
896.255	14819
896.376	14689
896.498	14746
896.619	14750
896.74	14720
896.861	14788
896.982	15058
897.103	15268
897.224	14941
897.345	14891
897.466	14967
897.587	15039
897.708	15146
897.828	15036
897.949	14933
898.07	14872
898.19	15005
898.311	15188
898.431	15043
898.552	15039
898.672	15135
898.792	15199
898.913	15077
899.033	15157
899.153	14834
899.273	14815
899.393	14811
899.513	14910
899.633	14956
899.753	14910
899.873	14864
899.993	15036
900.113	14830
900.232	14929
900.352	14937
900.472	14853
900.591	14762
900.711	14731
900.83	14640
900.95	14929
901.069	14921
901.189	14727
901.308	14587
901.427	14434
901.546	14461
901.665	14446
901.784	14377
901.904	14446
902.023	14301
902.141	14111
902.26	13951
902.379	14138
902.498	14058
902.617	13978
902.735	14065
902.854	13928
902.973	13921
903.091	13757
903.21	13685
903.328	13704
903.446	13658
903.565	13616
903.683	13575
903.801	13453
903.919	13525
904.038	13548
904.156	13369
904.274	13552
904.392	13373
904.51	13407
904.627	13358
904.745	13403
904.863	13415
904.981	13263
905.098	13031
905.216	13046
905.334	13084
905.451	13088
905.569	13046
905.686	13213
905.803	12958
905.921	12882
906.038	13000
906.155	12890
906.272	12753
906.389	12825
906.506	12719
906.623	12631
906.74	12597
906.857	12525
906.974	12601
907.091	12738
907.208	12852
907.324	12650
907.441	12582
907.557	12410
907.674	12399
907.79	12407
907.907	12448
908.023	12441
908.139	12403
908.256	12334
908.372	12330
908.488	12235
908.604	12220
908.72	12121
908.836	12148
908.952	12167
909.068	12167
909.184	12319
909.3	12053
909.415	12163
909.531	12110
909.647	11920
909.762	11950
909.878	11961
909.993	11969
910.108	11882
910.224	11942
910.339	11920
910.454	11824
910.57	11745
910.685	11688
910.8	11977
910.915	11889
911.03	11809
911.145	11623
911.259	11539
911.374	11551
911.489	11554
911.604	11471
911.718	11311
911.833	11330
911.947	11261
912.062	11166
912.176	11288
912.291	11402
912.405	11387
912.519	11543
912.633	11596
912.748	11425
912.862	11345
912.976	11242
913.09	11098
913.204	11178
913.318	11216
913.431	11303
913.545	11273
913.659	11311
913.772	11201
913.886	11090
914	11117
914.113	11155
914.226	11201
914.34	11128
914.453	10991
914.566	11193
914.68	11151
914.793	10949
914.906	10854
915.019	10797
915.132	10736
915.245	10839
915.358	10854
915.47	10965
915.583	10850
915.696	10919
915.809	11022
915.921	11041
916.034	10839
916.146	10778
916.259	10752
916.371	10889
916.483	10919
916.595	10755
916.708	10801
916.82	10721
916.932	10717
917.044	10752
917.156	10714
917.268	10660
917.38	10710
917.491	10679
917.603	10687
917.715	10759
917.826	10717
917.938	10683
918.049	10500
918.161	10702
918.272	10797
918.384	10725
918.495	10653
918.606	10523
918.717	10451
918.828	10538
918.939	10596
919.05	10443
919.161	10554
919.272	10295
919.383	10443
919.494	10622
919.604	10782
919.715	10508
919.826	10470
919.936	10535
920.047	10637
920.157	10535
920.267	10755
920.378	10561
920.488	10542
920.598	10786
920.708	10854
920.818	10801
920.928	10740
921.038	10831
921.148	10896
921.258	10523
921.368	10478
921.477	10455
921.587	10306
921.697	10268
921.806	10402
921.916	10242
922.025	10128
922.134	9998
922.244	10078
922.353	10135
922.462	9964
922.571	9873
922.68	9747
922.789	9709
922.898	9816
923.007	9717
923.116	9857
923.224	9774
923.333	9800
923.442	9667
923.55	9614
923.659	9663
923.767	9717
923.876	9557
923.984	9724
924.092	9515
924.201	9663
924.309	9614
924.417	9679
924.525	9530
924.633	9603
924.741	10443
924.849	9367
924.956	9606
925.064	9450
925.172	9348
925.279	9382
925.387	9466
925.494	9496
925.602	9519
925.709	9553
925.816	9363
925.924	9424
926.031	9447
926.138	9431
926.245	9435
926.352	9363
926.459	9500
926.566	9458
926.673	9431
926.779	9260
926.886	9275
926.993	9192
927.099	9089
927.206	9081
927.312	9093
927.419	9165
927.525	9108
927.631	9116
927.737	9043
927.843	8982
927.95	8861
928.056	9005
928.162	9020
928.267	9043
928.373	9629
928.479	9085
928.585	8815
928.69	8971
928.796	8967
928.901	8921
929.007	8727
929.112	8906
929.218	8849
929.323	8842
929.428	8804
929.533	8941
929.638	8826
929.743	8773
929.848	8830
929.953	8788
930.058	8777
930.163	8541
930.267	8617
930.372	8777
930.477	8541
930.581	8758
930.685	8648
930.79	8533
930.894	8644
930.998	8556
931.103	8640
931.207	8275
931.311	8263
931.415	8191
931.519	8050
931.623	8054
