Data from test_V78500241_3568.txt Node
Date: Fri Mar 25 14:58:33 CST 2022
User: usil
Spectrometer: V785-0024
Trigger mode: 0
Integration Time (sec): 4.000000E-1
Scans to average: 1
Nonlinearity correction enabled: false
Boxcar width: 0
Storing dark spectrum: false
XAxis mode: Wavelengths
Number of Pixels in Spectrum: 1024
>>>>>Begin Spectral Data<<<<<
801.071	21899
801.214	21785
801.356	21553
801.499	21515
801.641	21332
801.783	21218
801.926	21306
802.068	21211
802.211	21176
802.353	21017
802.496	20845
802.638	20762
802.78	20686
802.923	20670
803.065	20640
803.208	20514
803.35	20606
803.492	20720
803.635	20731
803.777	20636
803.919	20583
804.061	21024
804.204	20461
804.346	20461
804.488	20571
804.63	20495
804.773	20480
804.915	20530
805.057	20579
805.199	20522
805.341	20564
805.483	20651
805.626	20663
805.768	20469
805.91	20507
806.052	20545
806.194	20431
806.336	20590
806.478	20389
806.62	20374
806.762	20480
806.904	20724
807.046	20895
807.188	20731
807.33	20830
807.472	20845
807.614	20826
807.756	20701
807.898	20617
808.04	20499
808.182	20590
808.324	20537
808.465	20522
808.607	20899
808.749	20864
808.891	20887
809.033	21017
809.174	20914
809.316	20849
809.458	20811
809.6	20720
809.741	21005
809.883	20891
810.025	21017
810.166	21024
810.308	20998
810.45	20902
810.591	20826
810.733	20727
810.875	20739
811.016	20484
811.158	20503
811.299	20579
811.441	20708
811.582	20659
811.724	20648
811.865	20537
812.007	20629
812.148	20606
812.29	20552
812.431	20762
812.573	20910
812.714	20948
812.855	21138
812.997	21252
813.138	21355
813.279	21176
813.421	21123
813.562	21013
813.703	20872
813.845	20777
813.986	20549
814.127	20252
814.268	20263
814.41	20191
814.551	20206
814.692	20294
814.833	20115
814.974	20119
815.115	20119
815.256	19974
815.397	20024
815.539	19997
815.68	19978
815.821	19750
815.962	19917
816.103	19864
816.244	19655
816.385	19647
816.526	19620
816.666	19483
816.807	19350
816.948	19339
817.089	19377
817.23	19354
817.371	19164
817.512	19255
817.653	19278
817.793	19168
817.934	19217
818.075	19240
818.216	19266
818.356	19282
818.497	19133
818.638	18859
818.778	18970
818.919	18989
819.06	18951
819.2	19107
819.341	19126
819.481	19110
819.622	19244
819.762	19396
819.903	19377
820.043	19381
820.184	19377
820.324	19247
820.465	19365
820.605	19373
820.746	19274
820.886	19133
821.026	19285
821.167	19247
821.307	19297
821.447	19179
821.588	19088
821.728	18989
821.868	18798
822.008	18627
822.149	18673
822.289	18608
822.429	18494
822.569	18350
822.709	18357
822.849	18224
822.99	18102
823.13	18076
823.27	18159
823.41	18106
823.55	17882
823.69	17942
823.83	17980
823.97	17893
824.11	17748
824.25	17760
824.389	17737
824.529	17828
824.669	17714
824.809	17851
824.949	17752
825.089	17729
825.228	17786
825.368	17547
825.508	17638
825.648	17528
825.787	17493
825.927	17619
826.067	17452
826.206	17497
826.346	17554
826.485	17512
826.625	17497
826.765	17634
826.904	17395
827.044	17337
827.183	17307
827.323	17246
827.462	17265
827.601	17227
827.741	17303
827.88	17292
828.02	17159
828.159	17235
828.298	17197
828.437	17345
828.577	17258
828.716	17326
828.855	17208
828.994	16984
829.134	17014
829.273	17006
829.412	16999
829.551	17018
829.69	16991
829.829	17083
829.968	17159
830.107	17083
830.246	16995
830.385	16911
830.524	16919
830.663	16934
830.802	16877
830.941	16733
831.08	16649
831.219	16752
831.357	16675
831.496	16797
831.635	16565
831.774	16493
831.913	16580
832.051	16363
832.19	16432
832.329	16470
832.467	16413
832.606	16246
832.744	16413
832.883	16348
833.022	16234
833.16	16440
833.299	16333
833.437	16337
833.576	16447
833.714	16485
833.852	16459
833.991	16462
834.129	16527
834.267	16500
834.406	16421
834.544	16443
834.682	16436
834.821	16436
834.959	16653
835.097	16413
835.235	16493
835.373	16409
835.511	16481
835.65	16295
835.788	16333
835.926	16219
836.064	16074
836.202	16192
836.34	16204
836.478	16367
836.615	16276
836.753	16360
836.891	16344
837.029	16272
837.167	16306
837.305	16223
837.443	16192
837.58	16242
837.718	16337
837.856	16139
837.993	16128
838.131	16204
838.269	16082
838.406	16128
838.544	16166
838.681	15972
838.819	15949
838.956	15793
839.094	15694
839.231	15667
839.369	15907
839.506	16242
839.643	15991
839.781	15850
839.918	15698
840.055	15785
840.193	15762
840.33	15743
840.467	15816
840.604	15751
840.742	15876
840.879	15584
841.016	15656
841.153	15618
841.29	15846
841.427	15686
841.564	15854
841.701	15816
841.838	15720
841.975	15660
842.112	15682
842.249	15523
842.385	15530
842.522	15747
842.659	15629
842.796	15511
842.933	15526
843.069	15523
843.206	15629
843.343	15637
843.479	15549
843.616	15629
843.752	15355
843.889	15313
844.025	15538
844.162	15260
844.298	15428
844.435	15363
844.571	15317
844.708	15526
844.844	15564
844.98	15466
845.117	15492
845.253	15245
845.389	15226
845.525	15275
845.661	15272
845.798	15119
845.934	15123
846.07	15085
846.206	15112
846.342	15279
846.478	15199
846.614	14918
846.75	14956
846.886	14963
847.022	15112
847.158	14891
847.294	14956
847.429	14941
847.565	14838
847.701	15138
847.837	14610
847.972	14564
848.108	14655
848.244	14724
848.379	14583
848.515	14606
848.65	14434
848.786	14549
848.921	14514
849.057	14579
849.192	14587
849.328	14556
849.463	14438
849.598	14560
849.734	14450
849.869	14351
850.004	14278
850.14	14377
850.275	14294
850.41	14157
850.545	14263
850.68	14248
850.815	14381
850.95	14362
851.085	14526
851.22	14328
851.355	14275
851.49	14233
851.625	14237
851.76	14210
851.895	14233
852.03	14195
852.165	14202
852.299	14229
852.434	14431
852.569	14263
852.703	14271
852.838	14339
852.973	14488
853.107	14450
853.242	14313
853.376	14210
853.511	14088
853.645	14096
853.78	14187
853.914	14214
854.048	14058
854.183	14153
854.317	14164
854.451	14328
854.585	14130
854.72	14149
854.854	14221
854.988	14027
855.122	14161
855.256	13959
855.39	14065
855.524	14237
855.658	14126
855.792	14134
855.926	14221
856.06	14336
856.194	14294
856.327	14191
856.461	14100
856.595	14119
856.729	14126
856.862	14278
856.996	14168
857.13	14233
857.263	14202
857.397	14221
857.53	14142
857.664	14290
857.797	14218
857.931	14256
858.064	14172
858.197	14328
858.331	14039
858.464	14130
858.597	14111
858.731	14103
858.864	14088
858.997	14084
859.13	14240
859.263	14096
859.396	14191
859.529	14103
859.662	14100
859.795	14103
859.928	14206
860.061	14244
860.194	14271
860.327	14187
860.46	14180
860.592	14168
860.725	14324
860.858	14191
860.99	14172
861.123	14058
861.256	14024
861.388	14187
861.521	14952
861.653	14001
861.786	13970
861.918	13993
862.05	14027
862.183	14096
862.315	14142
862.447	14107
862.58	14115
862.712	14035
862.844	13852
862.976	14039
863.108	13921
863.24	14332
863.372	13868
863.504	14008
863.636	14008
863.768	14005
863.9	13830
864.032	13883
864.164	13864
864.296	13963
864.428	14069
864.559	14008
864.691	14050
864.823	13932
864.954	13898
865.086	14016
865.217	13928
865.349	13814
865.48	13898
865.612	13970
865.743	14081
865.875	13917
866.006	13852
866.137	13887
866.269	13917
866.4	13947
866.531	13970
866.662	13898
866.793	13841
866.924	13833
867.055	13906
867.186	13894
867.317	13807
867.448	13818
867.579	13856
867.71	13757
867.841	13799
867.972	13932
868.103	13963
868.233	13951
868.364	13951
868.495	14001
868.625	14149
868.756	14252
868.886	14115
869.017	14172
869.147	14271
869.278	14244
869.408	14267
869.539	14225
869.669	14278
869.799	14214
869.929	14206
870.06	14324
870.19	14362
870.32	14454
870.45	14492
870.58	14579
870.71	14716
870.84	14670
870.97	14560
871.1	14571
871.23	14705
871.36	14727
871.489	14648
871.619	14678
871.749	14800
871.879	14864
872.008	14910
872.138	14819
872.267	14731
872.397	14625
872.526	14564
872.656	14613
872.785	14602
872.915	14788
873.044	14811
873.173	14758
873.303	14804
873.432	14845
873.561	14933
873.69	14830
873.819	14811
873.948	14902
874.077	14910
874.206	14796
874.335	14845
874.464	14986
874.593	15085
874.722	15039
874.851	15199
874.979	15127
875.108	15268
875.237	15005
875.365	15028
875.494	15138
875.623	15233
875.751	15085
875.88	15104
876.008	15279
876.136	15336
876.265	15561
876.393	15701
876.521	15660
876.65	15545
876.778	15663
876.906	15496
877.034	15466
877.162	15481
877.29	15458
877.418	15610
877.546	15534
877.674	15481
877.802	15637
877.93	15515
878.058	15553
878.185	15424
878.313	15572
878.441	15587
878.568	15416
878.696	15534
878.824	15500
878.951	15705
879.079	15698
879.206	15922
879.333	15618
879.461	15595
879.588	15603
879.715	15755
879.842	15835
879.97	15709
880.097	15313
880.224	15256
880.351	15428
880.478	15420
880.605	15393
880.732	15325
880.859	15622
880.986	15466
881.112	15454
881.239	15218
881.366	15161
881.493	15100
881.619	15108
881.746	15138
881.872	15108
881.999	15138
882.125	15024
882.252	15157
882.378	15104
882.505	15161
882.631	14963
882.757	14933
882.883	14891
883.01	14925
883.136	14918
883.262	14739
883.388	14796
883.514	14933
883.64	14842
883.766	14864
883.892	14701
884.018	14826
884.143	14769
884.269	14899
884.395	14632
884.52	14583
884.646	14564
884.772	14465
884.897	14442
885.023	14655
885.148	14689
885.274	14686
885.399	14735
885.524	14613
885.65	14587
885.775	14667
885.9	14457
886.025	14746
886.15	14667
886.275	14583
886.4	14465
886.525	14571
886.65	14518
886.775	14507
886.9	14697
887.025	14762
887.149	14541
887.274	14419
887.399	14366
887.523	14374
887.648	14393
887.773	14282
887.897	14427
888.021	14484
888.146	14362
888.27	14507
888.395	14545
888.519	14514
888.643	14476
888.767	14503
888.891	14343
889.015	14324
889.139	14362
889.263	14317
889.387	14389
889.511	14533
889.635	14484
889.759	14225
889.883	14229
890.006	14282
890.13	14423
890.254	14267
890.377	14221
890.501	14088
890.624	14016
890.748	14180
890.871	13963
890.995	14005
891.118	14005
891.241	13986
891.364	13974
891.488	14092
891.611	13890
891.734	14020
891.857	13993
891.98	13913
892.103	14111
892.226	14092
892.349	13928
892.471	13932
892.594	13917
892.717	13993
892.839	14031
892.962	13906
893.085	13967
893.207	13947
893.33	13883
893.452	13997
893.575	14077
893.697	13978
893.819	14046
893.941	14202
894.064	14176
894.186	14069
894.308	13967
894.43	14180
894.552	14210
894.674	14126
894.796	14043
894.918	14111
895.04	14081
895.161	14069
895.283	14020
895.405	13959
895.526	14149
895.648	14180
895.769	14199
895.891	14176
896.012	14214
896.134	14210
896.255	14088
896.376	14111
896.498	14115
896.619	14187
896.74	14126
896.861	14278
896.982	14514
897.103	14610
897.224	14423
897.345	14385
897.466	14324
897.587	14362
897.708	14495
897.828	14571
897.949	14313
898.07	14362
898.19	14377
898.311	14545
898.431	14431
898.552	14503
898.672	14583
898.792	14507
898.913	14511
899.033	14454
899.153	14431
899.273	14240
899.393	14309
899.513	14278
899.633	14343
899.753	14400
899.873	14294
899.993	14415
900.113	14317
900.232	14434
900.352	14324
900.472	14275
900.591	14183
900.711	14248
900.83	14176
900.95	14259
901.069	14240
901.189	14168
901.308	13944
901.427	13986
901.546	13849
901.665	13955
901.784	13883
901.904	13765
902.023	13689
902.141	13590
902.26	13525
902.379	13651
902.498	13464
902.617	13445
902.735	13537
902.854	13499
902.973	13422
903.091	13133
903.21	13175
903.328	13236
903.446	13141
903.565	13065
903.683	13015
903.801	12985
903.919	13027
904.038	13000
904.156	12821
904.274	12867
904.392	12958
904.51	12894
904.627	12852
904.745	12897
904.863	12951
904.981	12707
905.098	12574
905.216	12601
905.334	12601
905.451	12498
905.569	12593
905.686	12631
905.803	12627
905.921	12441
906.038	12536
906.155	12399
906.272	12285
906.389	12254
906.506	12171
906.623	12235
906.74	12216
906.857	12049
906.974	12079
907.091	12247
907.208	12376
907.324	12186
907.441	12148
907.557	11973
907.674	11984
907.79	11863
907.907	11923
908.023	12102
908.139	12011
908.256	11843
908.372	11885
908.488	11821
908.604	11726
908.72	11707
908.836	11726
908.952	11680
909.068	11710
909.184	11824
909.3	11608
909.415	11843
909.531	11714
909.647	11512
909.762	11497
909.878	11414
909.993	11474
910.108	11425
910.224	11395
910.339	11474
910.454	11368
910.57	11296
910.685	11254
910.8	11566
910.915	11505
911.03	11311
911.145	11178
911.259	11140
911.374	11117
911.489	11041
911.604	11014
911.718	10965
911.833	10881
911.947	10805
912.062	10755
912.176	10999
912.291	10976
912.405	10904
912.519	11109
912.633	11128
912.748	11025
912.862	10965
912.976	10866
913.09	10698
913.204	10733
913.318	10820
913.431	10911
913.545	10900
913.659	10889
913.772	10816
913.886	10653
914	10672
914.113	10790
914.226	10816
914.34	10771
914.453	10668
914.566	10797
914.68	10645
914.793	10599
914.906	10500
915.019	10405
915.132	10284
915.245	10424
915.358	10424
915.47	10455
915.583	10428
915.696	10485
915.809	10577
915.921	10607
916.034	10394
916.146	10390
916.259	10314
916.371	10481
916.483	10500
916.595	10363
916.708	10402
916.82	10352
916.932	10360
917.044	10428
917.156	10238
917.268	10196
917.38	10295
917.491	10257
917.603	10268
917.715	10417
917.826	10238
917.938	10188
918.049	10131
918.161	10242
918.272	10424
918.384	10371
918.495	10306
918.606	10154
918.717	10059
918.828	10097
918.939	10185
919.05	10071
919.161	10051
919.272	9945
919.383	9987
919.494	10238
919.604	10379
919.715	10169
919.826	10067
919.936	10131
920.047	10188
920.157	10169
920.267	10329
920.378	10246
920.488	10192
920.598	10344
920.708	10478
920.818	10337
920.928	10363
921.038	10481
921.148	10424
921.258	10246
921.368	10128
921.477	9987
921.587	9994
921.697	9953
921.806	10048
921.916	9972
922.025	9774
922.134	9755
922.244	9663
922.353	9793
922.462	9599
922.571	9595
922.68	9481
922.789	9420
922.898	9435
923.007	9332
923.116	9416
923.224	9408
923.333	9454
923.442	9378
923.55	9321
923.659	9336
923.767	9367
923.876	9237
923.984	9340
924.092	9275
924.201	9294
924.309	9279
924.417	9279
924.525	9192
924.633	9329
924.741	10036
924.849	9062
924.956	9218
925.064	9032
925.172	8990
925.279	9009
925.387	9017
925.494	9123
925.602	9321
925.709	9154
925.816	8967
925.924	9146
926.031	9123
926.138	9070
926.245	9199
926.352	9070
926.459	9119
926.566	9176
926.673	9039
926.779	8952
926.886	8929
926.993	8830
927.099	8708
927.206	8712
927.312	8716
927.419	8864
927.525	8796
927.631	8826
927.737	8750
927.843	8693
927.95	8492
928.056	8651
928.162	8731
928.267	8693
928.373	9405
928.479	8785
928.585	8564
928.69	8659
928.796	8705
928.901	8564
929.007	8484
929.112	8587
929.218	8629
929.323	8476
929.428	8457
929.533	8686
929.638	8488
929.743	8511
929.848	8594
929.953	8473
930.058	8427
930.163	8267
930.267	8263
930.372	8400
930.477	8271
930.581	8476
930.685	8328
930.79	8221
930.894	8294
930.998	8233
931.103	8317
931.207	7909
931.311	7967
931.415	7906
931.519	7689
931.623	7753
