Data from test_V78500241_758.txt Node
Date: Fri Mar 25 14:38:59 CST 2022
User: usil
Spectrometer: V785-0024
Trigger mode: 0
Integration Time (sec): 4.000000E-1
Scans to average: 1
Nonlinearity correction enabled: false
Boxcar width: 0
Storing dark spectrum: false
XAxis mode: Wavelengths
Number of Pixels in Spectrum: 1024
>>>>>Begin Spectral Data<<<<<
801.071	27070
801.214	26895
801.356	26670
801.499	26545
801.641	26453
801.783	26377
801.926	26351
802.068	26183
802.211	26069
802.353	26096
802.496	25879
802.638	25818
802.78	25890
802.923	25875
803.065	25765
803.208	25795
803.35	25799
803.492	25879
803.635	26103
803.777	25776
803.919	26077
804.061	26343
804.204	26138
804.346	26058
804.488	26020
804.63	26058
804.773	26035
804.915	26294
805.057	26309
805.199	26324
805.341	26385
805.483	26389
805.626	26621
805.768	26598
805.91	26693
806.052	26826
806.194	26838
806.336	27287
806.478	27291
806.62	27427
806.762	27690
806.904	28337
807.046	28698
807.188	28999
807.33	29334
807.472	30068
807.614	30696
807.756	31544
807.898	32663
808.04	34200
808.182	36232
808.324	38849
808.465	41836
808.607	45264
808.749	48133
808.891	49704
809.033	50039
809.174	48486
809.316	45557
809.458	42049
809.6	38636
809.741	35916
809.883	33679
810.025	32267
810.166	30890
810.308	30136
810.45	29600
810.591	29018
810.733	28573
810.875	28154
811.016	27747
811.158	27408
811.299	27397
811.441	27466
811.582	27245
811.724	26952
811.865	26823
812.007	26872
812.148	26697
812.29	26640
812.431	26682
812.573	26876
812.714	26895
812.855	26963
812.997	26982
813.138	26895
813.279	26921
813.421	26940
813.562	26724
813.703	26511
813.845	26256
813.986	25970
814.127	25788
814.268	25723
814.41	25624
814.551	25586
814.692	25651
814.833	25365
814.974	25479
815.115	25419
815.256	25415
815.397	25137
815.539	25160
815.68	24989
815.821	24943
815.962	25076
816.103	25015
816.244	24852
816.385	24684
816.526	24673
816.666	24574
816.807	24319
816.948	24540
817.089	24467
817.23	24494
817.371	24228
817.512	24350
817.653	24243
817.793	24110
817.934	24201
818.075	24273
818.216	24304
818.356	24228
818.497	24060
818.638	23988
818.778	23897
818.919	23977
819.06	24011
819.2	23977
819.341	24076
819.481	24232
819.622	24258
819.762	24448
819.903	24281
820.043	24190
820.184	24110
820.324	24060
820.465	24262
820.605	24026
820.746	24095
820.886	23920
821.026	23958
821.167	24015
821.307	24064
821.447	24007
821.588	23855
821.728	23680
821.868	23509
822.008	23349
822.149	23490
822.289	23284
822.429	23018
822.569	22984
822.709	23014
822.849	22816
822.99	22649
823.13	22672
823.27	22786
823.41	22683
823.55	22535
823.69	22565
823.83	22470
823.97	22413
824.11	22360
824.25	22382
824.389	22371
824.529	22333
824.669	22325
824.809	22474
824.949	22436
825.089	22363
825.228	22398
825.368	22090
825.508	22173
825.648	22177
825.787	22139
825.927	22177
826.067	22070
826.206	22013
826.346	22036
826.485	22249
826.625	21994
826.765	22143
826.904	22147
827.044	21823
827.183	21876
827.323	21838
827.462	21827
827.601	21842
827.741	21717
827.88	21793
828.02	21709
828.159	21762
828.298	21728
828.437	21880
828.577	21656
828.716	21899
828.855	21728
828.994	21431
829.134	21576
829.273	21496
829.412	21462
829.551	21450
829.69	21496
829.829	21507
829.968	21405
830.107	21507
830.246	21530
830.385	21458
830.524	21264
830.663	21359
830.802	21237
830.941	21096
831.08	21001
831.219	21032
831.357	21043
831.496	21272
831.635	21070
831.774	21066
831.913	20902
832.051	20998
832.19	20910
832.329	20994
832.467	20941
832.606	20849
832.744	20963
832.883	21013
833.022	21020
833.16	21077
833.299	21230
833.437	21355
833.576	21450
833.714	21698
833.852	21808
833.991	21994
834.129	22013
834.267	22010
834.406	22006
834.544	21941
834.682	21766
834.821	21770
834.959	21671
835.097	21370
835.235	21287
835.373	21218
835.511	21173
835.65	21058
835.788	20838
835.926	20651
836.064	20571
836.202	20457
836.34	20701
836.478	20804
836.615	20492
836.753	20560
836.891	20754
837.029	20579
837.167	20552
837.305	20484
837.443	20370
837.58	20336
837.718	20419
837.856	20575
837.993	20339
838.131	20438
838.269	20355
838.406	20240
838.544	20149
838.681	20103
838.819	19913
838.956	19879
839.094	19765
839.231	19818
839.369	19997
839.506	20252
839.643	20050
839.781	19811
839.918	19723
840.055	19845
840.193	19746
840.33	19643
840.467	19860
840.604	19814
840.742	20035
840.879	19765
841.016	19639
841.153	19639
841.29	19928
841.427	19734
841.564	19811
841.701	19883
841.838	19818
841.975	19624
842.112	19594
842.249	19575
842.385	19616
842.522	19799
842.659	19643
842.796	19578
842.933	19719
843.069	19658
843.206	19685
843.343	19856
843.479	19799
843.616	19704
843.752	19662
843.889	19609
844.025	19940
844.162	19776
844.298	19974
844.435	20031
844.571	20187
844.708	20507
844.844	20975
844.98	21420
845.117	22109
845.253	22999
845.389	24890
845.525	28451
845.661	34531
845.798	41512
845.934	46470
846.07	48273
846.206	46763
846.342	41912
846.478	35113
846.614	29417
846.75	25556
846.886	23200
847.022	21876
847.158	20967
847.294	20377
847.429	20031
847.565	19769
847.701	19837
847.837	19129
847.972	18977
848.108	19053
848.244	19110
848.379	18905
848.515	18730
848.65	18661
848.786	18681
848.921	18745
849.057	18806
849.192	18722
849.328	18677
849.463	18612
849.598	18540
849.734	18475
849.869	18418
850.004	18346
850.14	18342
850.275	18323
850.41	18209
850.545	18239
850.68	18209
850.815	18270
850.95	18186
851.085	18308
851.22	18338
851.355	18243
851.49	18102
851.625	18194
851.76	18281
851.895	18117
852.03	18171
852.165	18190
852.299	18235
852.434	18407
852.569	18213
852.703	18327
852.838	18376
852.973	18547
853.107	18452
853.242	18334
853.376	18372
853.511	18273
853.645	18399
853.78	18551
853.914	18486
854.048	18445
854.183	18486
854.317	18692
854.451	18642
854.585	18509
854.72	18574
854.854	18559
854.988	18403
855.122	18308
855.256	18197
855.39	18220
855.524	18338
855.658	18205
855.792	18232
855.926	18251
856.06	18205
856.194	18258
856.327	18041
856.461	18057
856.595	18144
856.729	18087
856.862	18296
856.996	18117
857.13	18213
857.263	18190
857.397	18289
857.53	18083
857.664	18117
857.797	18140
857.931	18079
858.064	18049
858.197	18243
858.331	17961
858.464	18015
858.597	17885
858.731	17984
858.864	17965
858.997	18038
859.13	17920
859.263	17996
859.396	18064
859.529	17969
859.662	17939
859.795	17958
859.928	17939
860.061	18155
860.194	18133
860.327	18007
860.46	17923
860.592	18057
860.725	18019
860.858	18007
860.99	17889
861.123	17843
861.256	17973
861.388	17973
861.521	18635
861.653	17828
861.786	17760
861.918	17874
862.05	17866
862.183	17916
862.315	17885
862.447	17984
862.58	17821
862.712	17726
862.844	17627
862.976	17699
863.108	17665
863.24	18121
863.372	17573
863.504	17585
863.636	17547
863.768	17707
863.9	17551
864.032	17497
864.164	17592
864.296	17752
864.428	17790
864.559	17680
864.691	17623
864.823	17729
864.954	17619
865.086	17722
865.217	17630
865.349	17467
865.48	17619
865.612	17642
865.743	17790
865.875	17577
866.006	17455
866.137	17474
866.269	17520
866.4	17668
866.531	17558
866.662	17532
866.793	17551
866.924	17524
867.055	17524
867.186	17486
867.317	17528
867.448	17387
867.579	17478
867.71	17463
867.841	17395
867.972	17501
868.103	17505
868.233	17535
868.364	17520
868.495	17615
868.625	17718
868.756	17790
868.886	17737
869.017	17828
869.147	17977
869.278	17904
869.408	17794
869.539	17859
869.669	17874
869.799	17809
869.929	17885
870.06	18030
870.19	18152
870.32	18098
870.45	18186
870.58	18186
870.71	18361
870.84	18209
870.97	18342
871.1	18247
871.23	18479
871.36	18498
871.489	18350
871.619	18426
871.749	18475
871.879	18448
872.008	18604
872.138	18547
872.267	18471
872.397	18517
872.526	18441
872.656	18445
872.785	18422
872.915	18639
873.044	18715
873.173	18658
873.303	18806
873.432	18798
873.561	18783
873.69	18745
873.819	18913
873.948	18932
874.077	18894
874.206	18859
874.335	18890
874.464	18951
874.593	19209
874.722	19228
874.851	19255
874.979	19407
875.108	19434
875.237	19263
875.365	19327
875.494	19346
875.623	19540
875.751	19441
875.88	19571
876.008	19841
876.136	19769
876.265	20130
876.393	20278
876.521	20301
876.65	20396
876.778	20358
876.906	20381
877.034	20454
877.162	20507
877.29	20457
877.418	20746
877.546	20670
877.674	20834
877.802	20948
877.93	21039
878.058	21310
878.185	21405
878.313	21656
878.441	22090
878.568	22398
878.696	23010
878.824	23786
878.951	24932
879.079	26530
879.206	28637
879.333	30764
879.461	32389
879.588	33523
879.715	33625
879.842	32629
879.97	30612
880.097	28599
880.224	26933
880.351	25704
880.478	24821
880.605	24155
880.732	23805
880.859	23805
880.986	23436
881.112	23368
881.239	23113
881.366	22946
881.493	22896
881.619	22877
881.746	22850
881.872	22896
881.999	23048
882.125	23010
882.252	23075
882.378	23178
882.505	23216
882.631	23060
882.757	22968
882.883	23033
883.01	23151
883.136	22968
883.262	22843
883.388	22744
883.514	22927
883.64	23025
883.766	22839
883.892	22778
884.018	22809
884.143	22896
884.269	22976
884.395	22755
884.52	22660
884.646	22828
884.772	22653
884.897	22542
885.023	22702
885.148	22721
885.274	22698
885.399	22588
885.524	22481
885.65	22314
885.775	22272
885.9	22013
886.025	21937
886.15	21850
886.275	21633
886.4	21504
886.525	21408
886.65	20994
886.775	21051
886.9	21112
887.025	21100
887.149	20838
887.274	20438
887.399	20476
887.523	20377
887.648	20084
887.773	20126
887.897	20229
888.021	20069
888.146	19864
888.27	19932
888.395	19997
888.519	19868
888.643	19734
888.767	19700
888.891	19685
889.015	19426
889.139	19510
889.263	19369
889.387	19521
889.511	19491
889.635	19411
889.759	19270
889.883	19114
890.006	19168
890.13	19339
890.254	18985
890.377	19004
890.501	18810
890.624	18757
890.748	18882
890.871	18677
890.995	18513
891.118	18486
891.241	18544
891.364	18494
891.488	18612
891.611	18597
891.734	18486
891.857	18471
891.98	18353
892.103	18391
892.226	18353
892.349	18235
892.471	18167
892.594	18095
892.717	18117
892.839	18140
892.962	18167
893.085	18197
893.207	18079
893.33	17863
893.452	17874
893.575	17958
893.697	17969
893.819	18049
893.941	18079
894.064	18003
894.186	17824
894.308	17760
894.43	17821
894.552	17996
894.674	17863
894.796	17581
894.918	17707
895.04	17665
895.161	17817
895.283	17756
895.405	17532
895.526	17611
895.648	17604
895.769	17623
895.891	17630
896.012	17687
896.134	17726
896.255	17630
896.376	17558
896.498	17676
896.619	17665
896.74	17653
896.861	17684
896.982	17783
897.103	18026
897.224	17764
897.345	17752
897.466	17805
897.587	17798
897.708	17771
897.828	17824
897.949	17642
898.07	17657
898.19	17646
898.311	17790
898.431	17687
898.552	17722
898.672	18007
898.792	17809
898.913	17676
899.033	17649
899.153	17520
899.273	17455
899.393	17474
899.513	17535
899.633	17463
899.753	17558
899.873	17482
899.993	17657
900.113	17501
900.232	17573
900.352	17490
900.472	17341
900.591	17341
900.711	17387
900.83	17193
900.95	17440
901.069	17391
901.189	17288
901.308	17022
901.427	16976
901.546	16942
901.665	16991
901.784	16942
901.904	16713
902.023	16778
902.141	16466
902.26	16531
902.379	16470
902.498	16474
902.617	16310
902.735	16409
902.854	16314
902.973	16413
903.091	16055
903.21	16063
903.328	16040
903.446	15865
903.565	15945
903.683	15781
903.801	15739
903.919	15846
904.038	15747
904.156	15545
904.274	15690
904.392	15679
904.51	15606
904.627	15732
904.745	15545
904.863	15523
904.981	15355
905.098	15203
905.216	15256
905.334	15329
905.451	15389
905.569	15176
905.686	15283
905.803	15195
905.921	15047
906.038	15135
906.155	15066
906.272	14887
906.389	14853
906.506	14727
906.623	14754
906.74	14708
906.857	14617
906.974	14731
907.091	14743
907.208	14887
907.324	14739
907.441	14632
907.557	14495
907.674	14499
907.79	14396
907.907	14396
908.023	14503
908.139	14404
908.256	14374
908.372	14358
908.488	14294
908.604	14275
908.72	14199
908.836	14119
908.952	14176
909.068	14294
909.184	14298
909.3	14153
909.415	14263
909.531	14195
909.647	13970
909.762	13913
909.878	13902
909.993	13906
910.108	13879
910.224	13917
910.339	13959
910.454	13734
910.57	13620
910.685	13708
910.8	14005
910.915	13845
911.03	13788
911.145	13597
911.259	13499
911.374	13540
911.489	13533
911.604	13559
911.718	13301
911.833	13270
911.947	13255
912.062	13129
912.176	13270
912.291	13228
912.405	13282
912.519	13449
912.633	13518
912.748	13377
912.862	13259
912.976	13137
913.09	13149
913.204	13095
913.318	13175
913.431	13217
913.545	13228
913.659	13232
913.772	13133
913.886	13076
914	13023
914.113	13088
914.226	13217
914.34	13114
914.453	12878
914.566	13031
914.68	12954
914.793	12833
914.906	12681
915.019	12662
915.132	12681
915.245	12757
915.358	12684
915.47	12677
915.583	12711
915.696	12684
915.809	12867
915.921	12916
916.034	12673
916.146	12684
916.259	12658
916.371	12688
916.483	12749
916.595	12635
916.708	12692
916.82	12627
916.932	12635
917.044	12665
917.156	12555
917.268	12536
917.38	12517
917.491	12475
917.603	12429
917.715	12547
917.826	12551
917.938	12517
918.049	12361
918.161	12445
918.272	12623
918.384	12536
918.495	12475
918.606	12262
918.717	12232
918.828	12190
918.939	12319
919.05	12102
919.161	12266
919.272	12072
919.383	12125
919.494	12251
919.604	12380
919.715	12281
919.826	12095
919.936	12205
920.047	12266
920.157	12308
920.267	12429
920.378	12224
920.488	12163
920.598	12403
920.708	12551
920.818	12342
920.928	12311
921.038	12540
921.148	12502
921.258	12201
921.368	12144
921.477	12007
921.587	11958
921.697	11847
921.806	11939
921.916	11901
922.025	11684
922.134	11729
922.244	11676
922.353	11707
922.462	11600
922.571	11558
922.68	11318
922.789	11349
922.898	11341
923.007	11288
923.116	11349
923.224	11265
923.333	11337
923.442	11254
923.55	11178
923.659	11174
923.767	11273
923.876	11159
923.984	11254
924.092	11003
924.201	11159
924.309	11201
924.417	11132
924.525	11041
924.633	11083
924.741	11832
924.849	10908
924.956	11075
925.064	10923
925.172	10809
925.279	10866
925.387	10942
925.494	10869
925.602	10965
925.709	10942
925.816	10858
925.924	10919
926.031	10991
926.138	10835
926.245	10934
926.352	10786
926.459	10991
926.566	10987
926.673	10797
926.779	10714
926.886	10740
926.993	10573
927.099	10546
927.206	10504
927.312	10569
927.419	10558
927.525	10481
927.631	10565
927.737	10500
927.843	10394
927.95	10398
928.056	10440
928.162	10436
928.267	10561
928.373	11086
928.479	10428
928.585	10253
928.69	10299
928.796	10318
928.901	10242
929.007	10169
929.112	10284
929.218	10276
929.323	10128
929.428	10150
929.533	10287
929.638	10139
929.743	10143
929.848	10207
929.953	10154
930.058	10063
930.163	9937
930.267	9964
930.372	10082
930.477	9972
930.581	10120
930.685	10021
930.79	9865
930.894	9854
930.998	9842
931.103	9960
931.207	9656
931.311	9519
931.415	9412
931.519	9253
931.623	9256
