Data from test_V78500241_3429.txt Node
Date: Fri Mar 25 14:57:35 CST 2022
User: usil
Spectrometer: V785-0024
Trigger mode: 0
Integration Time (sec): 4.000000E-1
Scans to average: 1
Nonlinearity correction enabled: false
Boxcar width: 0
Storing dark spectrum: false
XAxis mode: Wavelengths
Number of Pixels in Spectrum: 1024
>>>>>Begin Spectral Data<<<<<
801.071	21972
801.214	21819
801.356	21568
801.499	21511
801.641	21359
801.783	21348
801.926	21313
802.068	21207
802.211	21313
802.353	21093
802.496	20842
802.638	20849
802.78	20891
802.923	20682
803.065	20450
803.208	20560
803.35	20602
803.492	20644
803.635	20735
803.777	20750
803.919	20739
804.061	20990
804.204	20655
804.346	20583
804.488	20507
804.63	20609
804.773	20393
804.915	20461
805.057	20571
805.199	20609
805.341	20621
805.483	20590
805.626	20541
805.768	20503
805.91	20450
806.052	20568
806.194	20446
806.336	20617
806.478	20434
806.62	20374
806.762	20625
806.904	20655
807.046	20883
807.188	20765
807.33	20868
807.472	20902
807.614	20804
807.756	20750
807.898	20674
808.04	20594
808.182	20457
808.324	20670
808.465	20625
808.607	20796
808.749	20769
808.891	20990
809.033	21058
809.174	21020
809.316	20796
809.458	20819
809.6	20731
809.741	21051
809.883	20895
810.025	21047
810.166	21028
810.308	20941
810.45	20918
810.591	20735
810.733	20773
810.875	20765
811.016	20480
811.158	20446
811.299	20552
811.441	20815
811.582	20689
811.724	20693
811.865	20617
812.007	20632
812.148	20556
812.29	20743
812.431	20724
812.573	20906
812.714	21055
812.855	21112
812.997	21355
813.138	21249
813.279	21173
813.421	21108
813.562	21051
813.703	20925
813.845	20834
813.986	20480
814.127	20324
814.268	20199
814.41	20294
814.551	20164
814.692	20237
814.833	20115
814.974	20176
815.115	20142
815.256	20069
815.397	20054
815.539	20065
815.68	19833
815.821	19864
815.962	20008
816.103	19883
816.244	19696
816.385	19670
816.526	19575
816.666	19544
816.807	19308
816.948	19331
817.089	19426
817.23	19407
817.371	19400
817.512	19312
817.653	19297
817.793	19240
817.934	19266
818.075	19411
818.216	19460
818.356	19343
818.497	19103
818.638	18875
818.778	18951
818.919	18973
819.06	19099
819.2	19084
819.341	19263
819.481	19088
819.622	19324
819.762	19544
819.903	19430
820.043	19312
820.184	19194
820.324	19346
820.465	19247
820.605	19297
820.746	19175
820.886	19145
821.026	19285
821.167	19240
821.307	19339
821.447	19301
821.588	19156
821.728	18882
821.868	18825
822.008	18665
822.149	18684
822.289	18597
822.429	18445
822.569	18540
822.709	18445
822.849	18213
822.99	18182
823.13	18190
823.27	18247
823.41	18038
823.55	18019
823.69	18003
823.83	17969
823.97	17965
824.11	17920
824.25	17798
824.389	17843
824.529	17824
824.669	17802
824.809	17885
824.949	17923
825.089	17897
825.228	17748
825.368	17589
825.508	17680
825.648	17627
825.787	17619
825.927	17558
826.067	17528
826.206	17611
826.346	17596
826.485	17684
826.625	17478
826.765	17752
826.904	17547
827.044	17376
827.183	17296
827.323	17349
827.462	17303
827.601	17311
827.741	17250
827.88	17334
828.02	17159
828.159	17239
828.298	17174
828.437	17299
828.577	17162
828.716	17383
828.855	17261
828.994	17064
829.134	16949
829.273	17067
829.412	16991
829.551	16930
829.69	17003
829.829	17014
829.968	17124
830.107	17147
830.246	17143
830.385	16999
830.524	17022
830.663	16820
830.802	16759
830.941	16706
831.08	16679
831.219	16755
831.357	16736
831.496	16793
831.635	16653
831.774	16538
831.913	16565
832.051	16535
832.19	16352
832.329	16497
832.467	16367
832.606	16344
832.744	16295
832.883	16390
833.022	16280
833.16	16462
833.299	16402
833.437	16421
833.576	16398
833.714	16352
833.852	16363
833.991	16394
834.129	16451
834.267	16459
834.406	16546
834.544	16417
834.682	16394
834.821	16386
834.959	16554
835.097	16413
835.235	16462
835.373	16394
835.511	16584
835.65	16329
835.788	16276
835.926	16192
836.064	16143
836.202	16204
836.34	16424
836.478	16447
836.615	16390
836.753	16268
836.891	16470
837.029	16341
837.167	16265
837.305	16276
837.443	16280
837.58	16128
837.718	16284
837.856	16207
837.993	16135
838.131	16249
838.269	16109
838.406	16257
838.544	16116
838.681	15930
838.819	15953
838.956	15724
839.094	15842
839.231	15861
839.369	15934
839.506	16177
839.643	16002
839.781	15709
839.918	15736
840.055	15671
840.193	15800
840.33	15785
840.467	15781
840.604	15804
840.742	16135
840.879	15660
841.016	15644
841.153	15591
841.29	15884
841.427	15660
841.564	15846
841.701	15789
841.838	15793
841.975	15660
842.112	15736
842.249	15534
842.385	15515
842.522	15720
842.659	15538
842.796	15610
842.933	15469
843.069	15564
843.206	15496
843.343	15557
843.479	15553
843.616	15717
843.752	15386
843.889	15283
844.025	15496
844.162	15348
844.298	15382
844.435	15329
844.571	15291
844.708	15450
844.844	15576
844.98	15504
845.117	15603
845.253	15252
845.389	15138
845.525	15279
845.661	15302
845.798	15154
845.934	15119
846.07	15119
846.206	15203
846.342	15252
846.478	15077
846.614	14929
846.75	14773
846.886	15013
847.022	15009
847.158	14986
847.294	14982
847.429	14910
847.565	14872
847.701	15138
847.837	14644
847.972	14648
848.108	14788
848.244	14708
848.379	14552
848.515	14514
848.65	14530
848.786	14621
848.921	14511
849.057	14560
849.192	14514
849.328	14556
849.463	14537
849.598	14518
849.734	14381
849.869	14434
850.004	14237
850.14	14305
850.275	14324
850.41	14286
850.545	14252
850.68	14218
850.815	14233
850.95	14195
851.085	14446
851.22	14415
851.355	14370
851.49	14221
851.625	14248
851.76	14187
851.895	14202
852.03	14202
852.165	14282
852.299	14259
852.434	14256
852.569	14377
852.703	14263
852.838	14298
852.973	14442
853.107	14442
853.242	14199
853.376	14164
853.511	14001
853.645	14130
853.78	14233
853.914	14142
854.048	14107
854.183	14050
854.317	14202
854.451	14206
854.585	14183
854.72	14145
854.854	14233
854.988	14012
855.122	14176
855.256	14031
855.39	14214
855.524	14164
855.658	14229
855.792	14202
855.926	14069
856.06	14286
856.194	14267
856.327	14115
856.461	14073
856.595	14092
856.729	14062
856.862	14202
856.996	14092
857.13	14229
857.263	14214
857.397	14282
857.53	14157
857.664	14233
857.797	14263
857.931	14256
858.064	14195
858.197	14138
858.331	14138
858.464	14119
858.597	14077
858.731	14149
858.864	14149
858.997	14096
859.13	14119
859.263	14210
859.396	14214
859.529	14027
859.662	14126
859.795	14111
859.928	14180
860.061	14301
860.194	14286
860.327	14153
860.46	14221
860.592	14309
860.725	14263
860.858	14244
860.99	14138
861.123	13993
861.256	14043
861.388	14183
861.521	14872
861.653	14016
861.786	14050
861.918	13917
862.05	14092
862.183	14107
862.315	14111
862.447	14183
862.58	14126
862.712	13947
862.844	13868
862.976	13974
863.108	13963
863.24	14278
863.372	13913
863.504	14039
863.636	13898
863.768	14043
863.9	13925
864.032	13917
864.164	13967
864.296	13982
864.428	13978
864.559	14077
864.691	14039
864.823	13993
864.954	13887
865.086	13955
865.217	13947
865.349	13837
865.48	13917
865.612	13955
865.743	14016
865.875	13902
866.006	13807
866.137	13932
866.269	13986
866.4	13868
866.531	13826
866.662	13803
866.793	13822
866.924	13906
867.055	14024
867.186	13940
867.317	13898
867.448	13837
867.579	13932
867.71	13772
867.841	13788
867.972	13947
868.103	13944
868.233	13936
868.364	13955
868.495	14031
868.625	14035
868.756	14229
868.886	14084
869.017	14172
869.147	14336
869.278	14343
869.408	14275
869.539	14195
869.669	14263
869.799	14191
869.929	14240
870.06	14237
870.19	14564
870.32	14381
870.45	14473
870.58	14556
870.71	14667
870.84	14636
870.97	14602
871.1	14579
871.23	14720
871.36	14838
871.489	14610
871.619	14602
871.749	14708
871.879	14777
872.008	14872
872.138	14724
872.267	14826
872.397	14697
872.526	14556
872.656	14632
872.785	14663
872.915	14731
873.044	14743
873.173	14743
873.303	14952
873.432	14880
873.561	14830
873.69	14876
873.819	14807
873.948	14857
874.077	14880
874.206	14792
874.335	14872
874.464	15039
874.593	15024
874.722	15024
874.851	15108
874.979	15230
875.108	15146
875.237	15226
875.365	15024
875.494	15131
875.623	15283
875.751	15028
875.88	15169
876.008	15359
876.136	15359
876.265	15504
876.393	15713
876.521	15614
876.65	15774
876.778	15538
876.906	15507
877.034	15458
877.162	15584
877.29	15488
877.418	15576
877.546	15435
877.674	15504
877.802	15587
877.93	15599
878.058	15504
878.185	15519
878.313	15477
878.441	15561
878.568	15488
878.696	15545
878.824	15580
878.951	15625
879.079	15717
879.206	15838
879.333	15568
879.461	15519
879.588	15690
879.715	15736
879.842	15819
879.97	15564
880.097	15393
880.224	15412
880.351	15515
880.478	15397
880.605	15416
880.732	15374
880.859	15496
880.986	15367
881.112	15473
881.239	15344
881.366	15138
881.493	15062
881.619	15055
881.746	15055
881.872	15017
881.999	15119
882.125	15051
882.252	15020
882.378	15161
882.505	15150
882.631	15093
882.757	14811
882.883	14857
883.01	14826
883.136	14830
883.262	14621
883.388	14773
883.514	14933
883.64	14906
883.766	14834
883.892	14754
884.018	14636
884.143	14815
884.269	14918
884.395	14583
884.52	14568
884.646	14530
884.772	14514
884.897	14503
885.023	14533
885.148	14621
885.274	14739
885.399	14708
885.524	14629
885.65	14617
885.775	14556
885.9	14568
886.025	14712
886.15	14667
886.275	14503
886.4	14541
886.525	14545
886.65	14606
886.775	14560
886.9	14697
887.025	14765
887.149	14610
887.274	14427
887.399	14400
887.523	14393
887.648	14370
887.773	14309
887.897	14465
888.021	14454
888.146	14305
888.27	14488
888.395	14541
888.519	14374
888.643	14450
888.767	14507
888.891	14362
889.015	14195
889.139	14332
889.263	14313
889.387	14347
889.511	14393
889.635	14377
889.759	14248
889.883	14282
890.006	14298
890.13	14263
890.254	14240
890.377	14259
890.501	14005
890.624	14100
890.748	14138
890.871	14039
890.995	13955
891.118	13963
891.241	13940
891.364	13936
891.488	14123
891.611	14001
891.734	13970
891.857	14016
891.98	14027
892.103	14065
892.226	13997
892.349	13974
892.471	13791
892.594	13940
892.717	13963
892.839	13860
892.962	13947
893.085	14149
893.207	13944
893.33	13913
893.452	13852
893.575	14092
893.697	13989
893.819	14271
893.941	14199
894.064	14126
894.186	14001
894.308	13978
894.43	14084
894.552	14172
894.674	14168
894.796	13944
894.918	14031
895.04	13986
895.161	14100
895.283	14138
895.405	13970
895.526	14142
895.648	14111
895.769	14138
895.891	14164
896.012	14225
896.134	14153
896.255	14191
896.376	14229
896.498	14202
896.619	14126
896.74	14115
896.861	14252
896.982	14514
897.103	14716
897.224	14389
897.345	14389
897.466	14427
897.587	14355
897.708	14480
897.828	14419
897.949	14400
898.07	14256
898.19	14282
898.311	14674
898.431	14450
898.552	14473
898.672	14537
898.792	14594
898.913	14644
899.033	14484
899.153	14404
899.273	14313
899.393	14389
899.513	14396
899.633	14431
899.753	14381
899.873	14442
899.993	14404
900.113	14358
900.232	14393
900.352	14362
900.472	14206
900.591	14149
900.711	14191
900.83	14240
900.95	14305
901.069	14206
901.189	14191
901.308	14008
901.427	13841
901.546	13898
901.665	14001
901.784	13868
901.904	13795
902.023	13731
902.141	13491
902.26	13441
902.379	13483
902.498	13514
902.617	13407
902.735	13529
902.854	13422
902.973	13373
903.091	13187
903.21	13080
903.328	13168
903.446	13137
903.565	13057
903.683	13099
903.801	12977
903.919	13031
904.038	13015
904.156	12859
904.274	12973
904.392	12901
904.51	12875
904.627	12886
904.745	12920
904.863	12886
904.981	12665
905.098	12551
905.216	12589
905.334	12627
905.451	12563
905.569	12536
905.686	12631
905.803	12532
905.921	12372
906.038	12456
906.155	12395
906.272	12334
906.389	12296
906.506	12171
906.623	12072
906.74	12136
906.857	12057
906.974	12064
907.091	12311
907.208	12308
907.324	12197
907.441	12038
907.557	11916
907.674	11855
907.79	11836
907.907	11889
908.023	11973
908.139	11935
908.256	11851
908.372	11779
908.488	11783
908.604	11665
908.72	11672
908.836	11665
908.952	11653
909.068	11680
909.184	11726
909.3	11661
909.415	11695
909.531	11726
909.647	11528
909.762	11459
909.878	11368
909.993	11455
910.108	11509
910.224	11391
910.339	11421
910.454	11254
910.57	11193
910.685	11288
910.8	11501
910.915	11444
911.03	11303
911.145	11079
911.259	11197
911.374	11124
911.489	11071
911.604	10961
911.718	10881
911.833	10953
911.947	10839
912.062	10759
912.176	10885
912.291	10923
912.405	10904
912.519	11037
912.633	11170
912.748	11018
912.862	10873
912.976	10854
913.09	10691
913.204	10809
913.318	10740
913.431	10889
913.545	10843
913.659	10938
913.772	10790
913.886	10706
914	10668
914.113	10729
914.226	10816
914.34	10645
914.453	10626
914.566	10698
914.68	10569
914.793	10637
914.906	10436
915.019	10295
915.132	10337
915.245	10386
915.358	10447
915.47	10379
915.583	10405
915.696	10455
915.809	10550
915.921	10573
916.034	10363
916.146	10341
916.259	10363
916.371	10485
916.483	10386
916.595	10291
916.708	10333
916.82	10341
916.932	10257
917.044	10348
917.156	10337
917.268	10169
917.38	10284
917.491	10188
917.603	10249
917.715	10265
917.826	10333
917.938	10306
918.049	10181
918.161	10215
918.272	10417
918.384	10360
918.495	10265
918.606	10143
918.717	10055
918.828	10131
918.939	10219
919.05	10021
919.161	10093
919.272	9911
919.383	9972
919.494	10135
919.604	10261
919.715	10082
919.826	10074
919.936	10124
920.047	10135
920.157	10166
920.267	10329
920.378	10188
920.488	10086
920.598	10356
920.708	10485
920.818	10375
920.928	10371
921.038	10493
921.148	10497
921.258	10162
921.368	10021
921.477	10055
921.587	9956
921.697	9857
921.806	10059
921.916	9915
922.025	9743
922.134	9709
922.244	9637
922.353	9701
922.462	9584
922.571	9473
922.68	9351
922.789	9386
922.898	9386
923.007	9408
923.116	9443
923.224	9325
923.333	9367
923.442	9321
923.55	9222
923.659	9260
923.767	9329
923.876	9287
923.984	9348
924.092	9169
924.201	9329
924.309	9272
924.417	9298
924.525	9157
924.633	9253
924.741	10185
924.849	9017
924.956	9157
925.064	9001
925.172	8937
925.279	9058
925.387	9062
925.494	9051
925.602	9245
925.709	9058
925.816	8956
925.924	9055
926.031	9165
926.138	9043
926.245	9089
926.352	8956
926.459	9157
926.566	9142
926.673	8998
926.779	8876
926.886	8963
926.993	8788
927.099	8758
927.206	8754
927.312	8724
927.419	8815
927.525	8773
927.631	8777
927.737	8602
927.843	8648
927.95	8537
928.056	8667
928.162	8613
928.267	8731
928.373	9302
928.479	8807
928.585	8511
928.69	8693
928.796	8682
928.901	8663
929.007	8473
929.112	8610
929.218	8564
929.323	8469
929.428	8503
929.533	8610
929.638	8400
929.743	8457
929.848	8488
929.953	8488
930.058	8396
930.163	8229
930.267	8259
930.372	8423
930.477	8263
930.581	8419
930.685	8343
930.79	8153
930.894	8221
930.998	8191
931.103	8347
931.207	7997
931.311	8027
931.415	7917
931.519	7715
931.623	7761
