Data from test_V78500241_1151.txt Node
Date: Fri Mar 25 14:41:43 CST 2022
User: usil
Spectrometer: V785-0024
Trigger mode: 0
Integration Time (sec): 4.000000E-1
Scans to average: 1
Nonlinearity correction enabled: false
Boxcar width: 0
Storing dark spectrum: false
XAxis mode: Wavelengths
Number of Pixels in Spectrum: 1024
>>>>>Begin Spectral Data<<<<<
801.071	22508
801.214	22428
801.356	22230
801.499	22017
801.641	21991
801.783	21797
801.926	21899
802.068	21732
802.211	21739
802.353	21762
802.496	21428
802.638	21401
802.78	21313
802.923	21317
803.065	21241
803.208	21192
803.35	21203
803.492	21268
803.635	21458
803.777	21222
803.919	21412
804.061	21614
804.204	21370
804.346	21237
804.488	21131
804.63	21108
804.773	21032
804.915	21249
805.057	21401
805.199	21077
805.341	21100
805.483	21252
805.626	21275
805.768	21146
805.91	21199
806.052	21119
806.194	21157
806.336	21291
806.478	21203
806.62	21199
806.762	21306
806.904	21382
807.046	21595
807.188	21622
807.33	21530
807.472	21431
807.614	21488
807.756	21473
807.898	21466
808.04	21298
808.182	21351
808.324	21355
808.465	21310
808.607	21614
808.749	21819
808.891	21888
809.033	21983
809.174	21857
809.316	21686
809.458	21698
809.6	21599
809.741	21823
809.883	21720
810.025	21869
810.166	21861
810.308	21781
810.45	21637
810.591	21580
810.733	21393
810.875	21439
811.016	21211
811.158	21203
811.299	21397
811.441	21447
811.582	21439
811.724	21370
811.865	21275
812.007	21294
812.148	21332
812.29	21348
812.431	21538
812.573	21656
812.714	21747
812.855	21819
812.997	21941
813.138	22078
813.279	22032
813.421	21884
813.562	22013
813.703	21728
813.845	21614
813.986	21287
814.127	21161
814.268	20979
814.41	21051
814.551	20929
814.692	20956
814.833	20773
814.974	20842
815.115	20948
815.256	20746
815.397	20705
815.539	20724
815.68	20735
815.821	20568
815.962	20613
816.103	20590
816.244	20575
816.385	20320
816.526	20366
816.666	20202
816.807	20149
816.948	20164
817.089	20145
817.23	20100
817.371	20069
817.512	20050
817.653	20050
817.793	20100
817.934	20088
818.075	20206
818.216	20058
818.356	19993
818.497	19795
818.638	19753
818.778	19723
818.919	19769
819.06	19723
819.2	19925
819.341	20020
819.481	19875
819.622	20115
819.762	20305
819.903	20195
820.043	20005
820.184	20020
820.324	20126
820.465	20115
820.605	20138
820.746	20065
820.886	19932
821.026	20024
821.167	19898
821.307	20092
821.447	19993
821.588	19826
821.728	19731
821.868	19628
822.008	19339
822.149	19495
822.289	19434
822.429	19133
822.569	19031
822.709	19080
822.849	18916
822.99	18875
823.13	18996
823.27	18901
823.41	18791
823.55	18760
823.69	18745
823.83	18707
823.97	18654
824.11	18498
824.25	18433
824.389	18570
824.529	18642
824.669	18661
824.809	18658
824.949	18665
825.089	18536
825.228	18536
825.368	18334
825.508	18384
825.648	18506
825.787	18285
825.927	18296
826.067	18273
826.206	18342
826.346	18254
826.485	18342
826.625	18243
826.765	18243
826.904	18232
827.044	17984
827.183	18053
827.323	17984
827.462	18038
827.601	18079
827.741	17977
827.88	17969
828.02	17965
828.159	17988
828.298	18110
828.437	17999
828.577	17999
828.716	18152
828.855	17946
828.994	17882
829.134	17771
829.273	17798
829.412	17703
829.551	17672
829.69	17668
829.829	17794
829.968	17874
830.107	17779
830.246	17710
830.385	17703
830.524	17699
830.663	17570
830.802	17509
830.941	17395
831.08	17429
831.219	17356
831.357	17433
831.496	17630
831.635	17364
831.774	17334
831.913	17292
832.051	17102
832.19	17220
832.329	17166
832.467	17067
832.606	17052
832.744	17098
832.883	17079
833.022	16965
833.16	17102
833.299	17223
833.437	17052
833.576	17121
833.714	17075
833.852	17147
833.991	17155
834.129	17147
834.267	17170
834.406	17105
834.544	17193
834.682	17220
834.821	17045
834.959	17261
835.097	17067
835.235	17227
835.373	17018
835.511	17143
835.65	17064
835.788	16999
835.926	16873
836.064	16873
836.202	16850
836.34	17064
836.478	17132
836.615	16953
836.753	17105
836.891	17143
837.029	17090
837.167	16900
837.305	16965
837.443	16915
837.58	16949
837.718	17006
837.856	16900
837.993	16771
838.131	16919
838.269	16820
838.406	16843
838.544	16778
838.681	16626
838.819	16713
838.956	16478
839.094	16478
839.231	16466
839.369	16538
839.506	16923
839.643	16717
839.781	16485
839.918	16409
840.055	16485
840.193	16603
840.33	16447
840.467	16436
840.604	16409
840.742	16694
840.879	16386
841.016	16443
841.153	16363
841.29	16577
841.427	16500
841.564	16440
841.701	16542
841.838	16493
841.975	16360
842.112	16398
842.249	16280
842.385	16276
842.522	16504
842.659	16253
842.796	16215
842.933	16188
843.069	16200
843.206	16185
843.343	16310
843.479	16188
843.616	16268
843.752	15994
843.889	16105
844.025	16120
844.162	15941
844.298	16101
844.435	15972
844.571	15956
844.708	16055
844.844	16173
844.98	16128
845.117	16097
845.253	16029
845.389	15907
845.525	15991
845.661	15979
845.798	16048
845.934	15998
846.07	15975
846.206	16169
846.342	16059
846.478	15876
846.614	15644
846.75	15572
846.886	15641
847.022	15701
847.158	15618
847.294	15587
847.429	15591
847.565	15447
847.701	15800
847.837	15298
847.972	15378
848.108	15488
848.244	15283
848.379	15256
848.515	15192
848.65	15070
848.786	15127
848.921	15188
849.057	15294
849.192	15241
849.328	15176
849.463	15138
849.598	15146
849.734	15028
849.869	15032
850.004	14921
850.14	15055
850.275	15013
850.41	14868
850.545	14868
850.68	14986
850.815	14948
850.95	14796
851.085	15108
851.22	15051
851.355	14925
851.49	15005
851.625	14975
851.76	14853
851.895	14800
852.03	14830
852.165	14933
852.299	14952
852.434	14975
852.569	14982
852.703	14979
852.838	15051
852.973	15131
853.107	15093
853.242	14910
853.376	14762
853.511	14724
853.645	14682
853.78	14902
853.914	14701
854.048	14788
854.183	14758
854.317	14857
854.451	14979
854.585	14849
854.72	14819
854.854	14842
854.988	14613
855.122	14716
855.256	14655
855.39	14697
855.524	14834
855.658	14823
855.792	14899
855.926	14876
856.06	14883
856.194	14868
856.327	14777
856.461	14689
856.595	14727
856.729	14845
856.862	14925
856.996	14842
857.13	14910
857.263	14929
857.397	14857
857.53	14861
857.664	14880
857.797	14826
857.931	14876
858.064	14842
858.197	15013
858.331	14788
858.464	14845
858.597	14678
858.731	14716
858.864	14727
858.997	14762
859.13	14765
859.263	14800
859.396	14868
859.529	14819
859.662	14815
859.795	14716
859.928	14826
860.061	14796
860.194	14929
860.327	14887
860.46	14701
860.592	14921
860.725	14914
860.858	14933
860.99	14785
861.123	14720
861.256	14811
861.388	14743
861.521	15564
861.653	14735
861.786	14705
861.918	14613
862.05	14781
862.183	14750
862.315	14792
862.447	14773
862.58	14823
862.712	14606
862.844	14427
862.976	14560
863.108	14568
863.24	14971
863.372	14564
863.504	14651
863.636	14564
863.768	14632
863.9	14522
864.032	14492
864.164	14579
864.296	14549
864.428	14610
864.559	14636
864.691	14667
864.823	14708
864.954	14674
865.086	14629
865.217	14541
865.349	14499
865.48	14507
865.612	14629
865.743	14689
865.875	14640
866.006	14530
866.137	14518
866.269	14545
866.4	14579
866.531	14613
866.662	14457
866.793	14587
866.924	14526
867.055	14667
867.186	14465
867.317	14568
867.448	14454
867.579	14476
867.71	14473
867.841	14412
867.972	14541
868.103	14610
868.233	14564
868.364	14571
868.495	14716
868.625	14819
868.756	14899
868.886	14743
869.017	14777
869.147	14906
869.278	14830
869.408	14826
869.539	14842
869.669	14880
869.799	14838
869.929	14838
870.06	14982
870.19	15089
870.32	15024
870.45	15055
870.58	15195
870.71	15287
870.84	15252
870.97	15195
871.1	15176
871.23	15401
871.36	15428
871.489	15344
871.619	15355
871.749	15370
871.879	15389
872.008	15519
872.138	15389
872.267	15386
872.397	15283
872.526	15203
872.656	15070
872.785	15310
872.915	15428
873.044	15485
873.173	15424
873.303	15496
873.432	15386
873.561	15466
873.69	15466
873.819	15447
873.948	15462
874.077	15389
874.206	15382
874.335	15477
874.464	15614
874.593	15701
874.722	15766
874.851	15770
874.979	15751
875.108	15759
875.237	15652
875.365	15606
875.494	15724
875.623	15895
875.751	15705
875.88	15800
876.008	15838
876.136	15956
876.265	16162
876.393	16405
876.521	16268
876.65	16204
876.778	16120
876.906	16188
877.034	16135
877.162	16219
877.29	16074
877.418	16063
877.546	16116
877.674	16147
877.802	16147
877.93	16032
878.058	16162
878.185	16029
878.313	16177
878.441	16131
878.568	15991
878.696	16238
878.824	16158
878.951	16299
879.079	16360
879.206	16558
879.333	16390
879.461	16421
879.588	16325
879.715	16622
879.842	16584
879.97	16268
880.097	16131
880.224	16013
880.351	16135
880.478	16017
880.605	16029
880.732	15941
880.859	16325
880.986	16090
881.112	16150
881.239	15846
881.366	15759
881.493	15671
881.619	15641
881.746	15701
881.872	15705
881.999	15641
882.125	15625
882.252	15686
882.378	15686
882.505	15854
882.631	15675
882.757	15507
882.883	15519
883.01	15500
883.136	15481
883.262	15351
883.388	15321
883.514	15500
883.64	15511
883.766	15405
883.892	15306
884.018	15321
884.143	15580
884.269	15641
884.395	15283
884.52	15211
884.646	15184
884.772	15199
884.897	15093
885.023	15291
885.148	15321
885.274	15405
885.399	15275
885.524	15230
885.65	15237
885.775	15157
885.9	15237
886.025	15287
886.15	15245
886.275	15237
886.4	14986
886.525	15131
886.65	15135
886.775	15100
886.9	15272
887.025	15466
887.149	15173
887.274	15024
887.399	14967
887.523	15028
887.648	14998
887.773	14956
887.897	15043
888.021	15142
888.146	14925
888.27	15127
888.395	15199
888.519	15009
888.643	15116
888.767	15005
888.891	14887
889.015	14826
889.139	14891
889.263	14788
889.387	14887
889.511	15047
889.635	14982
889.759	14849
889.883	14883
890.006	14861
890.13	14986
890.254	14746
890.377	14773
890.501	14670
890.624	14629
890.748	14712
890.871	14644
890.995	14495
891.118	14412
891.241	14613
891.364	14488
891.488	14716
891.611	14530
891.734	14617
891.857	14682
891.98	14571
892.103	14583
892.226	14587
892.349	14549
892.471	14465
892.594	14571
892.717	14541
892.839	14549
892.962	14488
893.085	14503
893.207	14541
893.33	14480
893.452	14518
893.575	14598
893.697	14484
893.819	14663
893.941	14750
894.064	14754
894.186	14480
894.308	14560
894.43	14587
894.552	14754
894.674	14667
894.796	14541
894.918	14556
895.04	14590
895.161	14632
895.283	14701
895.405	14568
895.526	14541
895.648	14655
895.769	14648
895.891	14708
896.012	14762
896.134	14712
896.255	14762
896.376	14697
896.498	14598
896.619	14720
896.74	14689
896.861	14788
896.982	15039
897.103	15173
897.224	14975
897.345	14963
897.466	14899
897.587	14899
897.708	15070
897.828	15058
897.949	14960
898.07	14826
898.19	14948
898.311	15039
898.431	14963
898.552	14925
898.672	15131
898.792	15173
898.913	15013
899.033	14975
899.153	14921
899.273	14727
899.393	14872
899.513	14811
899.633	14948
899.753	14823
899.873	14796
899.993	14883
900.113	15028
900.232	14948
900.352	14967
900.472	14720
900.591	14651
900.711	14750
900.83	14689
900.95	14952
901.069	14887
901.189	14724
901.308	14469
901.427	14446
901.546	14396
901.665	14457
901.784	14450
901.904	14377
902.023	14195
902.141	13970
902.26	14027
902.379	13997
902.498	13993
902.617	13940
902.735	14058
902.854	14069
902.973	13906
903.091	13693
903.21	13613
903.328	13601
903.446	13636
903.565	13537
903.683	13563
903.801	13400
903.919	13438
904.038	13464
904.156	13407
904.274	13350
904.392	13331
904.51	13324
904.627	13381
904.745	13381
904.863	13377
904.981	13110
905.098	13065
905.216	13034
905.334	13122
905.451	13012
905.569	12996
905.686	13038
905.803	13114
905.921	12920
906.038	12958
906.155	12901
906.272	12776
906.389	12844
906.506	12719
906.623	12642
906.74	12673
906.857	12551
906.974	12494
907.091	12662
907.208	12779
907.324	12700
907.441	12559
907.557	12342
907.674	12292
907.79	12281
907.907	12384
908.023	12388
908.139	12334
908.256	12262
908.372	12410
908.488	12270
908.604	12186
908.72	12144
908.836	12106
908.952	12019
909.068	12102
909.184	12327
909.3	12114
909.415	12102
909.531	12079
909.647	11912
909.762	11904
909.878	11912
909.993	11916
910.108	11885
910.224	11775
910.339	11855
910.454	11798
910.57	11764
910.685	11627
910.8	11996
910.915	11840
911.03	11783
911.145	11646
911.259	11592
911.374	11646
911.489	11532
911.604	11539
911.718	11337
911.833	11353
911.947	11315
912.062	11258
912.176	11277
912.291	11383
912.405	11315
912.519	11482
912.633	11589
912.748	11303
912.862	11265
912.976	11201
913.09	11174
913.204	11147
913.318	11261
913.431	11356
913.545	11239
913.659	11311
913.772	11193
913.886	11064
914	11033
914.113	11113
914.226	11223
914.34	11102
914.453	11033
914.566	11159
914.68	11117
914.793	11029
914.906	10793
915.019	10744
915.132	10801
915.245	10759
915.358	10820
915.47	10774
915.583	10809
915.696	10881
915.809	10991
915.921	10961
916.034	10786
916.146	10691
916.259	10721
916.371	10809
916.483	10847
916.595	10740
916.708	10774
916.82	10675
916.932	10774
917.044	10744
917.156	10622
917.268	10630
917.38	10641
917.491	10649
917.603	10679
917.715	10641
917.826	10683
917.938	10592
918.049	10455
918.161	10637
918.272	10645
918.384	10736
918.495	10694
918.606	10478
918.717	10413
918.828	10531
918.939	10550
919.05	10417
919.161	10447
919.272	10303
919.383	10382
919.494	10538
919.604	10710
919.715	10535
919.826	10424
919.936	10512
920.047	10656
920.157	10569
920.267	10721
920.378	10577
920.488	10436
920.598	10721
920.708	10805
920.818	10691
920.928	10691
921.038	10839
921.148	10843
921.258	10599
921.368	10542
921.477	10371
921.587	10432
921.697	10268
921.806	10356
921.916	10291
922.025	10093
922.134	10017
922.244	10010
922.353	10162
922.462	9945
922.571	9945
922.68	9770
922.789	9736
922.898	9743
923.007	9682
923.116	9812
923.224	9713
923.333	9759
923.442	9644
923.55	9625
923.659	9622
923.767	9682
923.876	9603
923.984	9679
924.092	9568
924.201	9580
924.309	9572
924.417	9587
924.525	9561
924.633	9603
924.741	10390
924.849	9386
924.956	9557
925.064	9386
925.172	9317
925.279	9306
925.387	9408
925.494	9447
925.602	9553
925.709	9538
925.816	9233
925.924	9431
926.031	9485
926.138	9348
926.245	9382
926.352	9325
926.459	9477
926.566	9439
926.673	9325
926.779	9302
926.886	9249
926.993	9097
927.099	9150
927.206	9116
927.312	9108
927.419	9108
927.525	9135
927.631	9135
927.737	9028
927.843	9032
927.95	8826
928.056	9017
928.162	9013
928.267	9001
928.373	9572
928.479	9066
928.585	8861
928.69	8982
928.796	8967
928.901	8921
929.007	8788
929.112	8899
929.218	8849
929.323	8834
929.428	8804
929.533	8944
929.638	8705
929.743	8796
929.848	8845
929.953	8811
930.058	8720
930.163	8587
930.267	8564
930.372	8663
930.477	8522
930.581	8743
930.685	8606
930.79	8499
930.894	8571
930.998	8495
931.103	8682
931.207	8279
931.311	8282
931.415	8206
931.519	8012
931.623	7982
