Data from test_V78500241_3556.txt Node
Date: Fri Mar 25 14:58:28 CST 2022
User: usil
Spectrometer: V785-0024
Trigger mode: 0
Integration Time (sec): 4.000000E-1
Scans to average: 1
Nonlinearity correction enabled: false
Boxcar width: 0
Storing dark spectrum: false
XAxis mode: Wavelengths
Number of Pixels in Spectrum: 1024
>>>>>Begin Spectral Data<<<<<
801.071	22044
801.214	21835
801.356	21633
801.499	21545
801.641	21283
801.783	21283
801.926	21287
802.068	21249
802.211	21055
802.353	21020
802.496	20918
802.638	20739
802.78	20621
802.923	20648
803.065	20499
803.208	20602
803.35	20640
803.492	20720
803.635	20720
803.777	20590
803.919	20769
804.061	20990
804.204	20651
804.346	20514
804.488	20427
804.63	20545
804.773	20480
804.915	20488
805.057	20545
805.199	20629
805.341	20568
805.483	20560
805.626	20598
805.768	20446
805.91	20499
806.052	20507
806.194	20442
806.336	20644
806.478	20461
806.62	20484
806.762	20511
806.904	20663
807.046	20910
807.188	20849
807.33	20876
807.472	20830
807.614	20659
807.756	20853
807.898	20651
808.04	20503
808.182	20674
808.324	20659
808.465	20701
808.607	20792
808.749	20880
808.891	20887
809.033	21024
809.174	20773
809.316	20849
809.458	20838
809.6	20720
809.741	20944
809.883	20883
810.025	21131
810.166	20948
810.308	21032
810.45	20933
810.591	20918
810.733	20644
810.875	20613
811.016	20583
811.158	20507
811.299	20583
811.441	20762
811.582	20724
811.724	20518
811.865	20587
812.007	20606
812.148	20613
812.29	20636
812.431	20720
812.573	20861
812.714	20994
812.855	21157
812.997	21165
813.138	21454
813.279	21207
813.421	21085
813.562	21055
813.703	20994
813.845	20781
813.986	20533
814.127	20263
814.268	20161
814.41	20122
814.551	20145
814.692	20240
814.833	20134
814.974	20111
815.115	20138
815.256	20012
815.397	20020
815.539	19982
815.68	19951
815.821	19871
815.962	19890
816.103	19856
816.244	19712
816.385	19662
816.526	19548
816.666	19548
816.807	19251
816.948	19362
817.089	19491
817.23	19369
817.371	19301
817.512	19266
817.653	19320
817.793	19259
817.934	19312
818.075	19289
818.216	19232
818.356	19255
818.497	19164
818.638	18939
818.778	18966
818.919	18875
819.06	19126
819.2	19065
819.341	19152
819.481	19320
819.622	19365
819.762	19483
819.903	19476
820.043	19244
820.184	19278
820.324	19266
820.465	19377
820.605	19289
820.746	19259
820.886	19095
821.026	19190
821.167	19194
821.307	19244
821.447	19164
821.588	19148
821.728	18909
821.868	18821
822.008	18635
822.149	18696
822.289	18525
822.429	18407
822.569	18216
822.709	18391
822.849	18205
822.99	18182
823.13	18091
823.27	18129
823.41	17984
823.55	17927
823.69	17893
823.83	18049
823.97	17847
824.11	17627
824.25	17779
824.389	17771
824.529	17912
824.669	17627
824.809	17828
824.949	17813
825.089	17790
825.228	17767
825.368	17585
825.508	17528
825.648	17547
825.787	17608
825.927	17638
826.067	17452
826.206	17543
826.346	17608
826.485	17551
826.625	17459
826.765	17558
826.904	17623
827.044	17223
827.183	17284
827.323	17200
827.462	17322
827.601	17178
827.741	17231
827.88	17212
828.02	17075
828.159	17269
828.298	17155
828.437	17299
828.577	17246
828.716	17311
828.855	17277
828.994	17037
829.134	16991
829.273	17075
829.412	16957
829.551	16953
829.69	17033
829.829	17086
829.968	17094
830.107	17067
830.246	17022
830.385	16968
830.524	16965
830.663	16820
830.802	16710
830.941	16668
831.08	16588
831.219	16869
831.357	16782
831.496	16816
831.635	16565
831.774	16550
831.913	16535
832.051	16462
832.19	16409
832.329	16466
832.467	16329
832.606	16265
832.744	16276
832.883	16223
833.022	16215
833.16	16322
833.299	16344
833.437	16409
833.576	16333
833.714	16379
833.852	16314
833.991	16409
834.129	16447
834.267	16432
834.406	16405
834.544	16413
834.682	16363
834.821	16382
834.959	16550
835.097	16348
835.235	16386
835.373	16405
835.511	16284
835.65	16280
835.788	16276
835.926	16181
836.064	16082
836.202	16082
836.34	16348
836.478	16272
836.615	16287
836.753	16352
836.891	16344
837.029	16424
837.167	16356
837.305	16230
837.443	16185
837.58	16105
837.718	16226
837.856	16135
837.993	16071
838.131	16177
838.269	16082
838.406	16116
838.544	16059
838.681	15915
838.819	15842
838.956	15698
839.094	15698
839.231	15797
839.369	15869
839.506	16158
839.643	15911
839.781	15743
839.918	15648
840.055	15755
840.193	15694
840.33	15743
840.467	15709
840.604	15705
840.742	15918
840.879	15561
841.016	15622
841.153	15667
841.29	15861
841.427	15694
841.564	15747
841.701	15728
841.838	15717
841.975	15564
842.112	15618
842.249	15530
842.385	15466
842.522	15717
842.659	15572
842.796	15466
842.933	15488
843.069	15389
843.206	15439
843.343	15580
843.479	15599
843.616	15622
843.752	15260
843.889	15386
844.025	15344
844.162	15302
844.298	15389
844.435	15321
844.571	15294
844.708	15420
844.844	15431
844.98	15538
845.117	15458
845.253	15165
845.389	15218
845.525	15218
845.661	15195
845.798	15108
845.934	15100
846.07	15081
846.206	15135
846.342	15203
846.478	15199
846.614	14952
846.75	14845
846.886	14826
847.022	14941
847.158	14979
847.294	14876
847.429	14952
847.565	14811
847.701	15070
847.837	14648
847.972	14590
848.108	14697
848.244	14712
848.379	14514
848.515	14514
848.65	14518
848.786	14556
848.921	14476
849.057	14484
849.192	14541
849.328	14480
849.463	14545
849.598	14476
849.734	14389
849.869	14332
850.004	14195
850.14	14256
850.275	14317
850.41	14149
850.545	14176
850.68	14259
850.815	14286
850.95	14225
851.085	14389
851.22	14301
851.355	14282
851.49	14370
851.625	14142
851.76	14214
851.895	14134
852.03	14153
852.165	14275
852.299	14256
852.434	14332
852.569	14233
852.703	14275
852.838	14336
852.973	14313
853.107	14343
853.242	14259
853.376	14123
853.511	14046
853.645	14043
853.78	14278
853.914	14069
854.048	14088
854.183	14107
854.317	14107
854.451	14187
854.585	14092
854.72	14065
854.854	14214
854.988	14008
855.122	14058
855.256	14084
855.39	14161
855.524	14233
855.658	14164
855.792	14027
855.926	14119
856.06	14180
856.194	14214
856.327	14031
856.461	14077
856.595	14126
856.729	14111
856.862	14259
856.996	14149
857.13	14130
857.263	14210
857.397	14206
857.53	14123
857.664	14126
857.797	14206
857.931	14248
858.064	14153
858.197	14225
858.331	14176
858.464	14065
858.597	13963
858.731	14050
858.864	14107
858.997	14111
859.13	14111
859.263	14065
859.396	14153
859.529	14081
859.662	14134
859.795	14050
859.928	14115
860.061	14229
860.194	14343
860.327	14187
860.46	14119
860.592	14240
860.725	14191
860.858	14263
860.99	14164
861.123	14081
861.256	14031
861.388	14123
861.521	14937
861.653	14088
861.786	13944
861.918	13947
862.05	14054
862.183	14161
862.315	14134
862.447	14157
862.58	14081
862.712	13909
862.844	13864
862.976	13940
863.108	13871
863.24	14176
863.372	13814
863.504	13978
863.636	13875
863.768	13936
863.9	13951
864.032	13738
864.164	13868
864.296	13978
864.428	14054
864.559	13928
864.691	13955
864.823	13970
864.954	13860
865.086	14020
865.217	13856
865.349	13788
865.48	13906
865.612	13902
865.743	14012
865.875	13875
866.006	13871
866.137	13902
866.269	13852
866.4	13856
866.531	13788
866.662	13879
866.793	13852
866.924	13803
867.055	13963
867.186	13852
867.317	13894
867.448	13837
867.579	13917
867.71	13811
867.841	13791
867.972	13925
868.103	13913
868.233	13928
868.364	13864
868.495	13879
868.625	14130
868.756	14134
868.886	14016
869.017	14263
869.147	14183
869.278	14271
869.408	14092
869.539	14164
869.669	14210
869.799	14210
869.929	14313
870.06	14267
870.19	14495
870.32	14343
870.45	14446
870.58	14583
870.71	14575
870.84	14606
870.97	14598
871.1	14568
871.23	14785
871.36	14720
871.489	14689
871.619	14724
871.749	14743
871.879	14739
872.008	14781
872.138	14735
872.267	14826
872.397	14613
872.526	14583
872.656	14598
872.785	14655
872.915	14701
873.044	14883
873.173	14800
873.303	14754
873.432	14796
873.561	14788
873.69	14872
873.819	14705
873.948	14830
874.077	14750
874.206	14773
874.335	14853
874.464	14941
874.593	15123
874.722	15013
874.851	15100
874.979	15085
875.108	15131
875.237	15055
875.365	15058
875.494	15108
875.623	15218
875.751	15028
875.88	15142
876.008	15218
876.136	15294
876.265	15523
876.393	15698
876.521	15614
876.65	15625
876.778	15595
876.906	15473
877.034	15477
877.162	15500
877.29	15458
877.418	15519
877.546	15576
877.674	15504
877.802	15443
877.93	15454
878.058	15515
878.185	15477
878.313	15515
878.441	15542
878.568	15325
878.696	15370
878.824	15526
878.951	15580
879.079	15736
879.206	15819
879.333	15622
879.461	15504
879.588	15587
879.715	15717
879.842	15751
879.97	15553
880.097	15287
880.224	15321
880.351	15382
880.478	15355
880.605	15374
880.732	15443
880.859	15595
880.986	15393
881.112	15389
881.239	15249
881.366	15173
881.493	15089
881.619	14998
881.746	15005
881.872	15081
881.999	14975
882.125	15009
882.252	15077
882.378	15154
882.505	15104
882.631	14975
882.757	14868
882.883	14902
883.01	14929
883.136	14804
883.262	14769
883.388	14716
883.514	14918
883.64	14857
883.766	14819
883.892	14579
884.018	14788
884.143	14781
884.269	14876
884.395	14552
884.52	14590
884.646	14533
884.772	14579
884.897	14480
885.023	14648
885.148	14670
885.274	14883
885.399	14594
885.524	14575
885.65	14640
885.775	14537
885.9	14632
886.025	14731
886.15	14629
886.275	14530
886.4	14355
886.525	14511
886.65	14590
886.775	14419
886.9	14644
887.025	14632
887.149	14564
887.274	14427
887.399	14339
887.523	14351
887.648	14290
887.773	14282
887.897	14484
888.021	14374
888.146	14309
888.27	14507
888.395	14571
888.519	14400
888.643	14446
888.767	14450
888.891	14298
889.015	14138
889.139	14355
889.263	14237
889.387	14317
889.511	14465
889.635	14492
889.759	14138
889.883	14263
890.006	14290
890.13	14404
890.254	14248
890.377	14267
890.501	14138
890.624	14096
890.748	14138
890.871	14008
890.995	13902
891.118	13947
891.241	13959
891.364	14005
891.488	14214
891.611	14027
891.734	13940
891.857	14062
891.98	13944
892.103	14016
892.226	14062
892.349	13936
892.471	13776
892.594	13986
892.717	13982
892.839	13856
892.962	13963
893.085	14008
893.207	13925
893.33	13868
893.452	13902
893.575	14062
893.697	13944
893.819	14263
893.941	14157
894.064	14157
894.186	13852
894.308	13993
894.43	14062
894.552	14145
894.674	14100
894.796	13913
894.918	13959
895.04	13936
895.161	14103
895.283	13963
895.405	14024
895.526	14046
895.648	13978
895.769	14107
895.891	14077
896.012	14153
896.134	14267
896.255	14218
896.376	14001
896.498	14123
896.619	14050
896.74	14027
896.861	14256
896.982	14480
897.103	14621
897.224	14450
897.345	14389
897.466	14343
897.587	14385
897.708	14495
897.828	14556
897.949	14377
898.07	14278
898.19	14434
898.311	14583
898.431	14347
898.552	14552
898.672	14594
898.792	14659
898.913	14598
899.033	14465
899.153	14370
899.273	14317
899.393	14343
899.513	14355
899.633	14305
899.753	14320
899.873	14286
899.993	14393
900.113	14370
900.232	14355
900.352	14347
900.472	14263
900.591	14142
900.711	14282
900.83	14138
900.95	14305
901.069	14305
901.189	14176
901.308	13967
901.427	13856
901.546	13928
901.665	13951
901.784	13883
901.904	13803
902.023	13719
902.141	13533
902.26	13400
902.379	13609
902.498	13445
902.617	13308
902.735	13407
902.854	13343
902.973	13354
903.091	13156
903.21	13168
903.328	13206
903.446	13175
903.565	13023
903.683	13000
903.801	12901
903.919	12932
904.038	12966
904.156	12833
904.274	12947
904.392	12928
904.51	12825
904.627	12871
904.745	12871
904.863	12897
904.981	12635
905.098	12551
905.216	12551
905.334	12513
905.451	12559
905.569	12547
905.686	12585
905.803	12566
905.921	12342
906.038	12456
906.155	12369
906.272	12258
906.389	12167
906.506	12171
906.623	12102
906.74	12148
906.857	12057
906.974	12019
907.091	12258
907.208	12220
907.324	12232
907.441	12068
907.557	11885
907.674	11912
907.79	11729
907.907	11840
908.023	11969
908.139	11912
908.256	11824
908.372	11798
908.488	11737
908.604	11748
908.72	11665
908.836	11630
908.952	11611
909.068	11665
909.184	11824
909.3	11653
909.415	11707
909.531	11676
909.647	11467
909.762	11391
909.878	11429
909.993	11463
910.108	11395
910.224	11433
910.339	11383
910.454	11356
910.57	11204
910.685	11124
910.8	11436
910.915	11398
911.03	11265
911.145	11121
911.259	11117
911.374	11071
911.489	11067
911.604	11086
911.718	10854
911.833	10885
911.947	10759
912.062	10729
912.176	10782
912.291	10854
912.405	10843
912.519	11132
912.633	11086
912.748	10927
912.862	10892
912.976	10771
913.09	10630
913.204	10736
913.318	10759
913.431	10847
913.545	10847
913.659	10889
913.772	10771
913.886	10698
914	10603
914.113	10805
914.226	10805
914.34	10672
914.453	10618
914.566	10702
914.68	10584
914.793	10565
914.906	10402
915.019	10344
915.132	10333
915.245	10394
915.358	10382
915.47	10398
915.583	10375
915.696	10428
915.809	10565
915.921	10550
916.034	10291
916.146	10291
916.259	10337
916.371	10455
916.483	10466
916.595	10356
916.708	10360
916.82	10322
916.932	10375
917.044	10265
917.156	10295
917.268	10150
917.38	10253
917.491	10246
917.603	10211
917.715	10303
917.826	10276
917.938	10188
918.049	10162
918.161	10192
918.272	10360
918.384	10318
918.495	10200
918.606	10059
918.717	10074
918.828	10128
918.939	10204
919.05	10051
919.161	10086
919.272	9949
919.383	9975
919.494	10124
919.604	10375
919.715	10230
919.826	10090
919.936	10177
920.047	10200
920.157	10204
920.267	10249
920.378	10185
920.488	10101
920.598	10303
920.708	10485
920.818	10299
920.928	10287
921.038	10436
921.148	10493
921.258	10158
921.368	10150
921.477	9972
921.587	9991
921.697	9876
921.806	10040
921.916	9911
922.025	9793
922.134	9717
922.244	9622
922.353	9667
922.462	9530
922.571	9481
922.68	9363
922.789	9355
922.898	9359
923.007	9386
923.116	9348
923.224	9450
923.333	9351
923.442	9237
923.55	9268
923.659	9374
923.767	9367
923.876	9256
923.984	9355
924.092	9214
924.201	9260
924.309	9302
924.417	9195
924.525	9180
924.633	9176
924.741	9994
924.849	9032
924.956	9207
925.064	8963
925.172	8960
925.279	8948
925.387	9081
925.494	9058
925.602	9157
925.709	9077
925.816	9047
925.924	9020
926.031	9127
926.138	9074
926.245	9127
926.352	8963
926.459	9039
926.566	9150
926.673	9055
926.779	8899
926.886	8967
926.993	8743
927.099	8819
927.206	8804
927.312	8762
927.419	8823
927.525	8826
927.631	8807
927.737	8686
927.843	8621
927.95	8530
928.056	8632
928.162	8640
928.267	8750
928.373	9283
928.479	8708
928.585	8545
928.69	8621
928.796	8663
928.901	8583
929.007	8396
929.112	8648
929.218	8530
929.323	8507
929.428	8473
929.533	8530
929.638	8385
929.743	8438
929.848	8492
929.953	8484
930.058	8366
930.163	8229
930.267	8256
930.372	8339
930.477	8263
930.581	8434
930.685	8301
930.79	8206
930.894	8252
930.998	8240
931.103	8332
931.207	8024
931.311	7970
931.415	7894
931.519	7723
931.623	7704
