Data from test_V78500241_2477.txt Node
Date: Fri Mar 25 14:50:57 CST 2022
User: usil
Spectrometer: V785-0024
Trigger mode: 0
Integration Time (sec): 4.000000E-1
Scans to average: 1
Nonlinearity correction enabled: false
Boxcar width: 0
Storing dark spectrum: false
XAxis mode: Wavelengths
Number of Pixels in Spectrum: 1024
>>>>>Begin Spectral Data<<<<<
801.071	22120
801.214	22032
801.356	21671
801.499	21507
801.641	21496
801.783	21412
801.926	21313
802.068	21405
802.211	21131
802.353	21272
802.496	21055
802.638	20937
802.78	20906
802.923	20815
803.065	20651
803.208	20701
803.35	20811
803.492	20941
803.635	20807
803.777	20769
803.919	20826
804.061	21192
804.204	20674
804.346	20670
804.488	20670
804.63	20762
804.773	20609
804.915	20788
805.057	20811
805.199	20724
805.341	20686
805.483	20788
805.626	20902
805.768	20629
805.91	20845
806.052	20746
806.194	20663
806.336	20769
806.478	20609
806.62	20583
806.762	20682
806.904	20899
807.046	21237
807.188	21036
807.33	21039
807.472	21077
807.614	20986
807.756	20956
807.898	20777
808.04	20716
808.182	20750
808.324	20769
808.465	20796
808.607	20960
808.749	20826
808.891	21150
809.033	21203
809.174	21001
809.316	20963
809.458	20986
809.6	21036
809.741	21043
809.883	21104
810.025	21123
810.166	21146
810.308	21329
810.45	21230
810.591	21051
810.733	20952
810.875	20918
811.016	20682
811.158	20754
811.299	20758
811.441	20967
811.582	20895
811.724	20830
811.865	20762
812.007	20769
812.148	20739
812.29	20880
812.431	20944
812.573	21074
812.714	21135
812.855	21279
812.997	21378
813.138	21473
813.279	21428
813.421	21313
813.562	21214
813.703	21131
813.845	20948
813.986	20625
814.127	20552
814.268	20415
814.41	20465
814.551	20355
814.692	20256
814.833	20298
814.974	20305
815.115	20358
815.256	20214
815.397	20248
815.539	20339
815.68	20183
815.821	20138
815.962	20043
816.103	19963
816.244	19913
816.385	19788
816.526	19772
816.666	19738
816.807	19491
816.948	19518
817.089	19708
817.23	19567
817.371	19510
817.512	19537
817.653	19369
817.793	19411
817.934	19445
818.075	19506
818.216	19308
818.356	19495
818.497	19388
818.638	19190
818.778	19069
818.919	19232
819.06	19148
819.2	19225
819.341	19354
819.481	19331
819.622	19514
819.762	19674
819.903	19632
820.043	19499
820.184	19422
820.324	19422
820.465	19571
820.605	19491
820.746	19548
820.886	19320
821.026	19285
821.167	19384
821.307	19434
821.447	19624
821.588	19213
821.728	19206
821.868	18985
822.008	18856
822.149	18859
822.289	18848
822.429	18574
822.569	18654
822.709	18673
822.849	18422
822.99	18372
823.13	18323
823.27	18311
823.41	18232
823.55	18232
823.69	18251
823.83	18182
823.97	18114
824.11	18053
824.25	17996
824.389	17931
824.529	17946
824.669	17939
824.809	17965
824.949	17950
825.089	17916
825.228	17999
825.368	17691
825.508	17786
825.648	17737
825.787	17828
825.927	17718
826.067	17642
826.206	17604
826.346	17775
826.485	17691
826.625	17668
826.765	17859
826.904	17771
827.044	17478
827.183	17425
827.323	17376
827.462	17512
827.601	17406
827.741	17417
827.88	17562
828.02	17322
828.159	17360
828.298	17398
828.437	17516
828.577	17433
828.716	17520
828.855	17235
828.994	17220
829.134	17121
829.273	17269
829.412	17105
829.551	17060
829.69	17136
829.829	17231
829.968	17261
830.107	17246
830.246	17174
830.385	17102
830.524	17025
830.663	17010
830.802	16866
830.941	16744
831.08	16717
831.219	16786
831.357	16801
831.496	17045
831.635	16759
831.774	16721
831.913	16717
832.051	16565
832.19	16443
832.329	16580
832.467	16489
832.606	16436
832.744	16489
832.883	16546
833.022	16489
833.16	16459
833.299	16516
833.437	16447
833.576	16398
833.714	16599
833.852	16596
833.991	16493
834.129	16504
834.267	16645
834.406	16550
834.544	16451
834.682	16622
834.821	16596
834.959	16630
835.097	16440
835.235	16649
835.373	16516
835.511	16481
835.65	16409
835.788	16394
835.926	16314
836.064	16325
836.202	16246
836.34	16478
836.478	16558
836.615	16371
836.753	16409
836.891	16474
837.029	16459
837.167	16394
837.305	16306
837.443	16284
837.58	16253
837.718	16375
837.856	16360
837.993	16188
838.131	16261
838.269	16169
838.406	16341
838.544	16150
838.681	16025
838.819	15937
838.956	15827
839.094	15911
839.231	15876
839.369	15949
839.506	16261
839.643	16150
839.781	15812
839.918	15823
840.055	15964
840.193	15960
840.33	15762
840.467	15838
840.604	15911
840.742	16063
840.879	15644
841.016	15846
841.153	15736
841.29	15937
841.427	15987
841.564	15968
841.701	15831
841.838	15816
841.975	15850
842.112	15823
842.249	15637
842.385	15504
842.522	15812
842.659	15728
842.796	15595
842.933	15587
843.069	15663
843.206	15580
843.343	15648
843.479	15675
843.616	15641
843.752	15386
843.889	15378
844.025	15534
844.162	15428
844.298	15545
844.435	15435
844.571	15351
844.708	15458
844.844	15534
844.98	15580
845.117	15526
845.253	15374
845.389	15272
845.525	15359
845.661	15173
845.798	15195
845.934	15332
846.07	15237
846.206	15203
846.342	15397
846.478	15195
846.614	15089
846.75	14990
846.886	14918
847.022	15074
847.158	14952
847.294	14998
847.429	14948
847.565	14929
847.701	15272
847.837	14731
847.972	14678
848.108	14720
848.244	14727
848.379	14686
848.515	14518
848.65	14667
848.786	14568
848.921	14667
849.057	14785
849.192	14663
849.328	14670
849.463	14651
849.598	14503
849.734	14590
849.869	14549
850.004	14465
850.14	14339
850.275	14412
850.41	14366
850.545	14374
850.68	14362
850.815	14461
850.95	14503
851.085	14461
851.22	14571
851.355	14438
851.49	14317
851.625	14400
851.76	14355
851.895	14244
852.03	14271
852.165	14362
852.299	14434
852.434	14434
852.569	14370
852.703	14355
852.838	14465
852.973	14484
853.107	14503
853.242	14286
853.376	14339
853.511	14130
853.645	14218
853.78	14320
853.914	14259
854.048	14214
854.183	14225
854.317	14180
854.451	14301
854.585	14324
854.72	14157
854.854	14267
854.988	14233
855.122	14111
855.256	14138
855.39	14176
855.524	14370
855.658	14328
855.792	14244
855.926	14298
856.06	14252
856.194	14336
856.327	14263
856.461	14195
856.595	14100
856.729	14168
856.862	14355
856.996	14294
857.13	14324
857.263	14309
857.397	14263
857.53	14225
857.664	14366
857.797	14332
857.931	14419
858.064	14351
858.197	14355
858.331	14195
858.464	14164
858.597	14221
858.731	14180
858.864	14183
858.997	14210
859.13	14328
859.263	14305
859.396	14343
859.529	14176
859.662	14282
859.795	14195
859.928	14199
860.061	14389
860.194	14343
860.327	14294
860.46	14229
860.592	14305
860.725	14370
860.858	14347
860.99	14355
861.123	14130
861.256	14119
861.388	14320
861.521	14830
861.653	14062
861.786	14027
861.918	14115
862.05	14119
862.183	14130
862.315	14229
862.447	14317
862.58	14134
862.712	14050
862.844	14005
862.976	14024
863.108	14081
863.24	14347
863.372	13856
863.504	13913
863.636	13970
863.768	14084
863.9	14001
864.032	13883
864.164	13940
864.296	14035
864.428	14229
864.559	14111
864.691	14065
864.823	13993
864.954	14005
865.086	14153
865.217	14065
865.349	13913
865.48	14050
865.612	14005
865.743	14206
865.875	13993
866.006	14005
866.137	13959
866.269	14008
866.4	14005
866.531	13959
866.662	13879
866.793	14008
866.924	13955
867.055	14020
867.186	14024
867.317	13932
867.448	13837
867.579	13913
867.71	13841
867.841	13936
867.972	13997
868.103	13947
868.233	13986
868.364	14039
868.495	14024
868.625	14187
868.756	14336
868.886	14221
869.017	14252
869.147	14396
869.278	14358
869.408	14278
869.539	14343
869.669	14408
869.799	14275
869.929	14492
870.06	14305
870.19	14556
870.32	14476
870.45	14610
870.58	14727
870.71	14743
870.84	14724
870.97	14712
871.1	14587
871.23	14849
871.36	14811
871.489	14773
871.619	14716
871.749	14807
871.879	14899
872.008	14925
872.138	14819
872.267	14785
872.397	14849
872.526	14792
872.656	14693
872.785	14686
872.915	14811
873.044	14925
873.173	14845
873.303	14963
873.432	14979
873.561	15085
873.69	14861
873.819	14872
873.948	15043
874.077	15005
874.206	14887
874.335	15005
874.464	15020
874.593	15146
874.722	15097
874.851	15245
874.979	15272
875.108	15199
875.237	15085
875.365	15142
875.494	15199
875.623	15283
875.751	15154
875.88	15211
876.008	15237
876.136	15329
876.265	15682
876.393	15724
876.521	15728
876.65	15709
876.778	15800
876.906	15561
877.034	15534
877.162	15622
877.29	15610
877.418	15587
877.546	15542
877.674	15641
877.802	15599
877.93	15625
878.058	15481
878.185	15576
878.313	15606
878.441	15633
878.568	15431
878.696	15713
878.824	15641
878.951	15747
879.079	15770
879.206	15915
879.333	15759
879.461	15713
879.588	15717
879.715	15804
879.842	15930
879.97	15701
880.097	15477
880.224	15561
880.351	15473
880.478	15443
880.605	15458
880.732	15428
880.859	15827
880.986	15530
881.112	15515
881.239	15317
881.366	15195
881.493	15203
881.619	15199
881.746	15165
881.872	15150
881.999	15131
882.125	15173
882.252	15176
882.378	15161
882.505	15260
882.631	15097
882.757	14899
882.883	15047
883.01	14838
883.136	14804
883.262	14804
883.388	14834
883.514	15017
883.64	15017
883.766	14853
883.892	14720
884.018	14807
884.143	14902
884.269	15039
884.395	14804
884.52	14659
884.646	14663
884.772	14625
884.897	14556
885.023	14682
885.148	14701
885.274	14792
885.399	14731
885.524	14587
885.65	14762
885.775	14811
885.9	14678
886.025	14861
886.15	14819
886.275	14621
886.4	14495
886.525	14625
886.65	14465
886.775	14629
886.9	14716
887.025	14823
887.149	14746
887.274	14423
887.399	14374
887.523	14450
887.648	14450
887.773	14328
887.897	14583
888.021	14514
888.146	14454
888.27	14564
888.395	14701
888.519	14587
888.643	14545
888.767	14541
888.891	14415
889.015	14419
889.139	14385
889.263	14400
889.387	14465
889.511	14518
889.635	14461
889.759	14309
889.883	14423
890.006	14393
890.13	14377
890.254	14317
890.377	14218
890.501	14103
890.624	14138
890.748	14282
890.871	14180
890.995	14100
891.118	14005
891.241	14119
891.364	14031
891.488	14187
891.611	14073
891.734	14031
891.857	14107
891.98	14092
892.103	14126
892.226	14111
892.349	14043
892.471	13921
892.594	14043
892.717	14065
892.839	14062
892.962	14084
893.085	14119
893.207	14065
893.33	13879
893.452	14008
893.575	14168
893.697	14111
893.819	14225
893.941	14259
894.064	14298
894.186	13986
894.308	13963
894.43	14187
894.552	14282
894.674	14294
894.796	14005
894.918	14031
895.04	14103
895.161	14278
895.283	14149
895.405	14130
895.526	14149
895.648	14233
895.769	14157
895.891	14267
896.012	14301
896.134	14275
896.255	14206
896.376	14107
896.498	14142
896.619	14248
896.74	14267
896.861	14339
896.982	14571
897.103	14697
897.224	14549
897.345	14370
897.466	14332
897.587	14476
897.708	14590
897.828	14480
897.949	14503
898.07	14412
898.19	14423
898.311	14594
898.431	14495
898.552	14552
898.672	14606
898.792	14674
898.913	14602
899.033	14522
899.153	14434
899.273	14412
899.393	14476
899.513	14511
899.633	14396
899.753	14507
899.873	14412
899.993	14526
900.113	14454
900.232	14492
900.352	14362
900.472	14282
900.591	14233
900.711	14320
900.83	14298
900.95	14362
901.069	14450
901.189	14191
901.308	14081
901.427	13898
901.546	14024
901.665	14046
901.784	14020
901.904	13868
902.023	13761
902.141	13647
902.26	13548
902.379	13674
902.498	13544
902.617	13533
902.735	13605
902.854	13506
902.973	13506
903.091	13285
903.21	13274
903.328	13247
903.446	13190
903.565	13179
903.683	13213
903.801	12993
903.919	13152
904.038	13080
904.156	12951
904.274	13015
904.392	12886
904.51	12890
904.627	12985
904.745	12943
904.863	13015
904.981	12764
905.098	12551
905.216	12677
905.334	12738
905.451	12658
905.569	12585
905.686	12692
905.803	12601
905.921	12426
906.038	12544
906.155	12410
906.272	12304
906.389	12441
906.506	12148
906.623	12273
906.74	12205
906.857	12110
906.974	12232
907.091	12277
907.208	12239
907.324	12205
907.441	12076
907.557	12072
907.674	12007
907.79	11954
907.907	11954
908.023	11965
908.139	11923
908.256	11996
908.372	11927
908.488	11939
908.604	11786
908.72	11714
908.836	11764
908.952	11714
909.068	11688
909.184	11866
909.3	11748
909.415	11718
909.531	11646
909.647	11512
909.762	11539
909.878	11493
909.993	11490
910.108	11459
910.224	11478
910.339	11528
910.454	11459
910.57	11376
910.685	11307
910.8	11623
910.915	11429
911.03	11429
911.145	11231
911.259	11212
911.374	11246
911.489	11071
911.604	11117
911.718	11006
911.833	10995
911.947	10816
912.062	10778
912.176	10968
912.291	10927
912.405	11045
912.519	11204
912.633	11197
912.748	11041
912.862	10923
912.976	10843
913.09	10714
913.204	10816
913.318	10831
913.431	10911
913.545	10862
913.659	10900
913.772	10908
913.886	10683
914	10679
914.113	10828
914.226	10801
914.34	10752
914.453	10535
914.566	10778
914.68	10573
914.793	10645
914.906	10542
915.019	10432
915.132	10360
915.245	10455
915.358	10519
915.47	10470
915.583	10493
915.696	10459
915.809	10603
915.921	10618
916.034	10436
916.146	10382
916.259	10398
916.371	10519
916.483	10485
916.595	10363
916.708	10348
916.82	10375
916.932	10367
917.044	10272
917.156	10375
917.268	10223
917.38	10276
917.491	10386
917.603	10322
917.715	10409
917.826	10360
917.938	10306
918.049	10109
918.161	10261
918.272	10436
918.384	10424
918.495	10352
918.606	10200
918.717	10188
918.828	10112
918.939	10253
919.05	10059
919.161	10105
919.272	9964
919.383	10071
919.494	10230
919.604	10424
919.715	10173
919.826	10139
919.936	10204
920.047	10322
920.157	10261
920.267	10371
920.378	10219
920.488	10265
920.598	10390
920.708	10542
920.818	10402
920.928	10409
921.038	10508
921.148	10493
921.258	10158
921.368	10207
921.477	10040
921.587	9975
921.697	9804
921.806	10082
921.916	9975
922.025	9740
922.134	9804
922.244	9667
922.353	9774
922.462	9679
922.571	9564
922.68	9466
922.789	9401
922.898	9450
923.007	9397
923.116	9485
923.224	9416
923.333	9412
923.442	9401
923.55	9283
923.659	9367
923.767	9408
923.876	9340
923.984	9310
924.092	9306
924.201	9336
924.309	9291
924.417	9313
924.525	9279
924.633	9367
924.741	10006
924.849	9135
924.956	9306
925.064	9100
925.172	8998
925.279	9017
925.387	9108
925.494	9131
925.602	9214
925.709	9150
925.816	9036
925.924	9089
926.031	9184
926.138	9051
926.245	9127
926.352	9043
926.459	9127
926.566	9184
926.673	9097
926.779	8967
926.886	8960
926.993	8864
927.099	8807
927.206	8773
927.312	8769
927.419	8792
927.525	8773
927.631	8887
927.737	8693
927.843	8701
927.95	8587
928.056	8678
928.162	8640
928.267	8750
928.373	9336
928.479	8815
928.585	8587
928.69	8682
928.796	8659
928.901	8621
929.007	8457
929.112	8560
929.218	8598
929.323	8587
929.428	8518
929.533	8663
929.638	8514
929.743	8518
929.848	8556
929.953	8514
930.058	8415
930.163	8256
930.267	8286
930.372	8434
930.477	8275
930.581	8518
930.685	8404
930.79	8233
930.894	8290
930.998	8267
931.103	8355
931.207	8073
931.311	7959
931.415	7947
931.519	7753
931.623	7738
