Data from test_V78500241_1671.txt Node
Date: Fri Mar 25 14:45:20 CST 2022
User: usil
Spectrometer: V785-0024
Trigger mode: 0
Integration Time (sec): 4.000000E-1
Scans to average: 1
Nonlinearity correction enabled: false
Boxcar width: 0
Storing dark spectrum: false
XAxis mode: Wavelengths
Number of Pixels in Spectrum: 1024
>>>>>Begin Spectral Data<<<<<
801.071	22341
801.214	22139
801.356	21880
801.499	21831
801.641	21724
801.783	21572
801.926	21682
802.068	21675
802.211	21469
802.353	21500
802.496	21161
802.638	21207
802.78	21096
802.923	21024
803.065	20960
803.208	20861
803.35	20979
803.492	21104
803.635	21070
803.777	20960
803.919	21085
804.061	21351
804.204	21081
804.346	20807
804.488	20853
804.63	20876
804.773	20849
804.915	20819
805.057	21104
805.199	20842
805.341	20986
805.483	21039
805.626	20944
805.768	20971
805.91	20864
806.052	20819
806.194	20773
806.336	20998
806.478	20967
806.62	20815
806.762	20975
806.904	21116
807.046	21279
807.188	21245
807.33	21283
807.472	21317
807.614	21070
807.756	21188
807.898	21074
808.04	21119
808.182	20979
808.324	21028
808.465	21154
808.607	21260
808.749	21336
808.891	21462
809.033	21504
809.174	21435
809.316	21351
809.458	21260
809.6	21340
809.741	21317
809.883	21294
810.025	21557
810.166	21443
810.308	21492
810.45	21458
810.591	21283
810.733	21302
810.875	21161
811.016	20982
811.158	20998
811.299	21192
811.441	21180
811.582	21203
811.724	21104
811.865	21112
812.007	21047
812.148	21062
812.29	21165
812.431	21321
812.573	21420
812.714	21538
812.855	21538
812.997	21732
813.138	21743
813.279	21641
813.421	21656
813.562	21488
813.703	21226
813.845	21268
813.986	21055
814.127	20712
814.268	20735
814.41	20598
814.551	20541
814.692	20712
814.833	20514
814.974	20503
815.115	20632
815.256	20484
815.397	20484
815.539	20374
815.68	20396
815.821	20240
815.962	20320
816.103	20408
816.244	20164
816.385	20027
816.526	20111
816.666	19909
816.807	19696
816.948	19837
817.089	19868
817.23	19807
817.371	19807
817.512	19704
817.653	19712
817.793	19605
817.934	19753
818.075	19868
818.216	19814
818.356	19651
818.497	19578
818.638	19441
818.778	19411
818.919	19537
819.06	19457
819.2	19571
819.341	19632
819.481	19597
819.622	19811
819.762	19993
819.903	19906
820.043	19849
820.184	19769
820.324	19769
820.465	19845
820.605	19784
820.746	19791
820.886	19662
821.026	19609
821.167	19700
821.307	19761
821.447	19556
821.588	19540
821.728	19430
821.868	19282
822.008	19194
822.149	19118
822.289	19095
822.429	18966
822.569	18745
822.709	18711
822.849	18703
822.99	18673
823.13	18642
823.27	18650
823.41	18338
823.55	18289
823.69	18441
823.83	18608
823.97	18384
824.11	18319
824.25	18133
824.389	18270
824.529	18300
824.669	18182
824.809	18369
824.949	18213
825.089	18194
825.228	18209
825.368	17942
825.508	18102
825.648	18095
825.787	18053
825.927	17973
826.067	17954
826.206	18022
826.346	17965
826.485	18026
826.625	17866
826.765	18072
826.904	18034
827.044	17771
827.183	17676
827.323	17573
827.462	17714
827.601	17748
827.741	17615
827.88	17878
828.02	17596
828.159	17752
828.298	17668
828.437	17726
828.577	17619
828.716	17889
828.855	17528
828.994	17611
829.134	17493
829.273	17471
829.412	17421
829.551	17459
829.69	17383
829.829	17459
829.968	17570
830.107	17490
830.246	17448
830.385	17406
830.524	17280
830.663	17227
830.802	17155
830.941	17071
831.08	17022
831.219	17113
831.357	17143
831.496	17239
831.635	17033
831.774	16881
831.913	16850
832.051	16790
832.19	16858
832.329	16927
832.467	16687
832.606	16675
832.744	16725
832.883	16820
833.022	16786
833.16	16683
833.299	16793
833.437	16721
833.576	16820
833.714	16763
833.852	16790
833.991	16752
834.129	16778
834.267	16828
834.406	16744
834.544	16805
834.682	16774
834.821	16778
834.959	16881
835.097	16744
835.235	16911
835.373	16744
835.511	16668
835.65	16694
835.788	16649
835.926	16596
836.064	16535
836.202	16577
836.34	16645
836.478	16790
836.615	16653
836.753	16649
836.891	16725
837.029	16736
837.167	16588
837.305	16626
837.443	16599
837.58	16516
837.718	16618
837.856	16474
837.993	16466
838.131	16531
838.269	16409
838.406	16481
838.544	16417
838.681	16322
838.819	16242
838.956	16025
839.094	16120
839.231	15983
839.369	16124
839.506	16527
839.643	16329
839.781	16105
839.918	16025
840.055	16166
840.193	16116
840.33	16101
840.467	15987
840.604	16154
840.742	16261
840.879	16017
841.016	16055
841.153	16101
841.29	16169
841.427	16055
841.564	16162
841.701	16086
841.838	15987
841.975	16013
842.112	15960
842.249	15880
842.385	15842
842.522	16010
842.659	15797
842.796	15789
842.933	15880
843.069	15827
843.206	15918
843.343	15861
843.479	15861
843.616	15934
843.752	15648
843.889	15762
844.025	15835
844.162	15610
844.298	15793
844.435	15591
844.571	15698
844.708	15739
844.844	15823
844.98	15793
845.117	15770
845.253	15599
845.389	15561
845.525	15603
845.661	15690
845.798	15454
845.934	15507
846.07	15564
846.206	15504
846.342	15557
846.478	15443
846.614	15348
846.75	15173
846.886	15252
847.022	15348
847.158	15275
847.294	15154
847.429	15275
847.565	15184
847.701	15534
847.837	15013
847.972	14998
848.108	15043
848.244	14960
848.379	14788
848.515	14834
848.65	14982
848.786	14804
848.921	14800
849.057	14967
849.192	14876
849.328	14895
849.463	14830
849.598	14735
849.734	14720
849.869	14678
850.004	14655
850.14	14693
850.275	14568
850.41	14526
850.545	14518
850.68	14526
850.815	14590
850.95	14598
851.085	14807
851.22	14697
851.355	14636
851.49	14492
851.625	14583
851.76	14651
851.895	14514
852.03	14507
852.165	14560
852.299	14617
852.434	14693
852.569	14537
852.703	14602
852.838	14606
852.973	14788
853.107	14720
853.242	14457
853.376	14461
853.511	14377
853.645	14374
853.78	14568
853.914	14408
854.048	14438
854.183	14503
854.317	14484
854.451	14610
854.585	14514
854.72	14305
854.854	14434
854.988	14351
855.122	14389
855.256	14290
855.39	14377
855.524	14526
855.658	14343
855.792	14514
855.926	14465
856.06	14412
856.194	14560
856.327	14507
856.461	14408
856.595	14393
856.729	14278
856.862	14480
856.996	14450
857.13	14514
857.263	14629
857.397	14545
857.53	14423
857.664	14579
857.797	14518
857.931	14617
858.064	14530
858.197	14549
858.331	14495
858.464	14499
858.597	14278
858.731	14530
858.864	14362
858.997	14362
859.13	14499
859.263	14457
859.396	14575
859.529	14385
859.662	14427
859.795	14374
859.928	14522
860.061	14583
860.194	14613
860.327	14518
860.46	14533
860.592	14560
860.725	14594
860.858	14492
860.99	14377
861.123	14404
861.256	14465
861.388	14347
861.521	14998
861.653	14317
861.786	14347
861.918	14317
862.05	14324
862.183	14278
862.315	14404
862.447	14507
862.58	14332
862.712	14244
862.844	14183
862.976	14187
863.108	14336
863.24	14621
863.372	14176
863.504	14252
863.636	14168
863.768	14248
863.9	14252
864.032	14176
864.164	14149
864.296	14199
864.428	14381
864.559	14278
864.691	14275
864.823	14309
864.954	14290
865.086	14328
865.217	14237
865.349	14092
865.48	14199
865.612	14176
865.743	14381
865.875	14229
866.006	14153
866.137	14320
866.269	14195
866.4	14161
866.531	14199
866.662	14103
866.793	14123
866.924	14187
867.055	14244
867.186	14157
867.317	14157
867.448	14084
867.579	14195
867.71	14157
867.841	14039
867.972	14176
868.103	14145
868.233	14248
868.364	14187
868.495	14237
868.625	14317
868.756	14488
868.886	14248
869.017	14404
869.147	14537
869.278	14530
869.408	14385
869.539	14446
869.669	14545
869.799	14545
869.929	14530
870.06	14587
870.19	14674
870.32	14743
870.45	14724
870.58	14883
870.71	14971
870.84	14933
870.97	14906
871.1	14895
871.23	15093
871.36	15020
871.489	14910
871.619	14937
871.749	14979
871.879	15051
872.008	15233
872.138	15123
872.267	15039
872.397	14899
872.526	14963
872.656	14872
872.785	14986
872.915	14994
873.044	15195
873.173	15150
873.303	15104
873.432	15089
873.561	15157
873.69	15039
873.819	15005
873.948	15108
874.077	15199
874.206	15047
874.335	15070
874.464	15233
874.593	15348
874.722	15302
874.851	15431
874.979	15469
875.108	15443
875.237	15382
875.365	15283
875.494	15283
875.623	15458
875.751	15393
875.88	15412
876.008	15511
876.136	15576
876.265	15793
876.393	15968
876.521	16036
876.65	15854
876.778	15819
876.906	15739
877.034	15713
877.162	15880
877.29	15766
877.418	15797
877.546	15873
877.674	15823
877.802	15709
877.93	15854
878.058	15785
878.185	15770
878.313	15812
878.441	15838
878.568	15603
878.696	15713
878.824	15922
878.951	15873
879.079	16029
879.206	16131
879.333	15998
879.461	15873
879.588	15968
879.715	15930
879.842	16082
879.97	16002
880.097	15690
880.224	15728
880.351	15675
880.478	15705
880.605	15675
880.732	15656
880.859	15892
880.986	15717
881.112	15751
881.239	15553
881.366	15378
881.493	15370
881.619	15340
881.746	15424
881.872	15351
881.999	15389
882.125	15287
882.252	15408
882.378	15397
882.505	15469
882.631	15306
882.757	15142
882.883	15176
883.01	15123
883.136	15097
883.262	14963
883.388	14937
883.514	15176
883.64	15100
883.766	15017
883.892	14979
884.018	14929
884.143	15161
884.269	15237
884.395	14925
884.52	14830
884.646	14861
884.772	14807
884.897	14842
885.023	14861
885.148	14933
885.274	14967
885.399	14979
885.524	14906
885.65	14906
885.775	14872
885.9	14857
886.025	14933
886.15	14918
886.275	14853
886.4	14731
886.525	14788
886.65	14758
886.775	14758
886.9	15005
887.025	15123
887.149	14906
887.274	14640
887.399	14648
887.523	14670
887.648	14636
887.773	14625
887.897	14769
888.021	14667
888.146	14640
888.27	14693
888.395	14754
888.519	14708
888.643	14754
888.767	14785
888.891	14739
889.015	14518
889.139	14499
889.263	14556
889.387	14640
889.511	14796
889.635	14640
889.759	14526
889.883	14522
890.006	14560
890.13	14606
890.254	14465
890.377	14492
890.501	14336
890.624	14214
890.748	14393
890.871	14298
890.995	14172
891.118	14111
891.241	14229
891.364	14278
891.488	14343
891.611	14244
891.734	14275
891.857	14313
891.98	14237
892.103	14233
892.226	14259
892.349	14176
892.471	14035
892.594	14130
892.717	14202
892.839	14153
892.962	14301
893.085	14237
893.207	14153
893.33	14100
893.452	14134
893.575	14366
893.697	14168
893.819	14438
893.941	14434
894.064	14320
894.186	14237
894.308	14092
894.43	14351
894.552	14469
894.674	14377
894.796	14111
894.918	14256
895.04	14275
895.161	14381
895.283	14374
895.405	14248
895.526	14343
895.648	14309
895.769	14313
895.891	14381
896.012	14408
896.134	14408
896.255	14431
896.376	14419
896.498	14362
896.619	14438
896.74	14347
896.861	14427
896.982	14754
897.103	14933
897.224	14689
897.345	14651
897.466	14644
897.587	14640
897.708	14781
897.828	14781
897.949	14667
898.07	14541
898.19	14636
898.311	14781
898.431	14667
898.552	14765
898.672	14883
898.792	14819
898.913	14724
899.033	14640
899.153	14644
899.273	14549
899.393	14511
899.513	14701
899.633	14617
899.753	14602
899.873	14727
899.993	14629
900.113	14617
900.232	14545
900.352	14621
900.472	14457
900.591	14446
900.711	14533
900.83	14533
900.95	14533
901.069	14648
901.189	14404
901.308	14107
901.427	14073
901.546	14142
901.665	14248
901.784	14123
901.904	14054
902.023	13997
902.141	13849
902.26	13734
902.379	13757
902.498	13632
902.617	13658
902.735	13670
902.854	13624
902.973	13632
903.091	13407
903.21	13415
903.328	13472
903.446	13320
903.565	13213
903.683	13285
903.801	13149
903.919	13259
904.038	13164
904.156	13095
904.274	13164
904.392	13091
904.51	13069
904.627	13126
904.745	13069
904.863	13202
904.981	12871
905.098	12692
905.216	12730
905.334	12741
905.451	12787
905.569	12738
905.686	12760
905.803	12890
905.921	12612
906.038	12639
906.155	12589
906.272	12547
906.389	12502
906.506	12372
906.623	12330
906.74	12357
906.857	12201
906.974	12209
907.091	12479
907.208	12506
907.324	12448
907.441	12232
907.557	12129
907.674	12114
907.79	11942
907.907	12076
908.023	12136
908.139	12095
908.256	12045
908.372	12003
908.488	12003
908.604	11927
908.72	11813
908.836	11904
908.952	11843
909.068	11931
909.184	11980
909.3	11786
909.415	11939
909.531	11805
909.647	11581
909.762	11604
909.878	11718
909.993	11638
910.108	11619
910.224	11695
910.339	11649
910.454	11630
910.57	11551
910.685	11459
910.8	11752
910.915	11623
911.03	11463
911.145	11421
911.259	11414
911.374	11353
911.489	11334
911.604	11318
911.718	11117
911.833	11117
911.947	10915
912.062	10824
912.176	11090
912.291	11136
912.405	11033
912.519	11284
912.633	11212
912.748	11132
912.862	11083
912.976	11022
913.09	10831
913.204	10904
913.318	10980
913.431	11018
913.545	11029
913.659	11060
913.772	11003
913.886	10869
914	10828
914.113	10919
914.226	10953
914.34	10866
914.453	10801
914.566	10949
914.68	10805
914.793	10755
914.906	10653
915.019	10626
915.132	10580
915.245	10577
915.358	10580
915.47	10592
915.583	10527
915.696	10626
915.809	10668
915.921	10710
916.034	10474
916.146	10584
916.259	10500
916.371	10596
916.483	10618
916.595	10519
916.708	10512
916.82	10470
916.932	10535
917.044	10485
917.156	10485
917.268	10325
917.38	10409
917.491	10375
917.603	10413
917.715	10474
917.826	10538
917.938	10409
918.049	10371
918.161	10497
918.272	10500
918.384	10630
918.495	10363
918.606	10310
918.717	10207
918.828	10306
918.939	10379
919.05	10162
919.161	10299
919.272	10188
919.383	10147
919.494	10352
919.604	10573
919.715	10325
919.826	10223
919.936	10192
920.047	10360
920.157	10341
920.267	10470
920.378	10382
920.488	10306
920.598	10497
920.708	10672
920.818	10481
920.928	10405
921.038	10710
921.148	10691
921.258	10352
921.368	10265
921.477	10150
921.587	10128
921.697	10071
921.806	10219
921.916	10051
922.025	9884
922.134	9903
922.244	9774
922.353	9895
922.462	9785
922.571	9694
922.68	9606
922.789	9515
922.898	9530
923.007	9526
923.116	9545
923.224	9576
923.333	9568
923.442	9420
923.55	9416
923.659	9488
923.767	9458
923.876	9408
923.984	9507
924.092	9454
924.201	9401
924.309	9466
924.417	9428
924.525	9412
924.633	9336
924.741	10154
924.849	9287
924.956	9428
925.064	9184
925.172	9039
925.279	9138
925.387	9184
925.494	9260
925.602	9386
925.709	9226
925.816	9138
925.924	9230
926.031	9245
926.138	9226
926.245	9325
926.352	9146
926.459	9214
926.566	9336
926.673	9138
926.779	9051
926.886	9039
926.993	8952
927.099	8864
927.206	8941
927.312	8937
927.419	8956
927.525	8887
927.631	8990
927.737	8796
927.843	8796
927.95	8651
928.056	8788
928.162	8811
928.267	8826
928.373	9351
928.479	8899
928.585	8663
928.69	8720
928.796	8845
928.901	8712
929.007	8560
929.112	8815
929.218	8708
929.323	8606
929.428	8617
929.533	8857
929.638	8537
929.743	8587
929.848	8648
929.953	8621
930.058	8514
930.163	8385
930.267	8423
930.372	8625
930.477	8362
930.581	8670
930.685	8473
930.79	8298
930.894	8400
930.998	8393
931.103	8434
931.207	8111
931.311	8058
931.415	8016
931.519	7868
931.623	7868
