Data from test_V78500241_2125.txt Node
Date: Fri Mar 25 14:48:30 CST 2022
User: usil
Spectrometer: V785-0024
Trigger mode: 0
Integration Time (sec): 4.000000E-1
Scans to average: 1
Nonlinearity correction enabled: false
Boxcar width: 0
Storing dark spectrum: false
XAxis mode: Wavelengths
Number of Pixels in Spectrum: 1024
>>>>>Begin Spectral Data<<<<<
801.071	22036
801.214	22017
801.356	21667
801.499	21614
801.641	21572
801.783	21477
801.926	21500
802.068	21321
802.211	21420
802.353	21252
802.496	21058
802.638	20998
802.78	20906
802.923	20872
803.065	20807
803.208	20686
803.35	20777
803.492	20788
803.635	20979
803.777	20659
803.919	20842
804.061	21192
804.204	20826
804.346	20689
804.488	20632
804.63	20716
804.773	20682
804.915	20697
805.057	20864
805.199	20609
805.341	20754
805.483	20956
805.626	20842
805.768	20727
805.91	20670
806.052	20834
806.194	20667
806.336	20948
806.478	20712
806.62	20648
806.762	20686
806.904	20956
807.046	21074
807.188	21100
807.33	21005
807.472	21142
807.614	20990
807.756	20937
807.898	20800
808.04	20765
808.182	20857
808.324	20800
808.465	20845
808.607	21036
808.749	21123
808.891	21264
809.033	21180
809.174	21180
809.316	21085
809.458	21150
809.6	20952
809.741	21218
809.883	21176
810.025	21230
810.166	21298
810.308	21291
810.45	21081
810.591	21081
810.733	20929
810.875	20792
811.016	20693
811.158	20716
811.299	20918
811.441	20948
811.582	21058
811.724	20899
811.865	20838
812.007	20887
812.148	20743
812.29	20815
812.431	20948
812.573	21047
812.714	21294
812.855	21374
812.997	21511
813.138	21622
813.279	21389
813.421	21298
813.562	21306
813.703	21074
813.845	21032
813.986	20655
814.127	20587
814.268	20526
814.41	20431
814.551	20427
814.692	20492
814.833	20408
814.974	20339
815.115	20324
815.256	20263
815.397	20206
815.539	20240
815.68	20187
815.821	20157
815.962	20225
816.103	20126
816.244	19913
816.385	19925
816.526	19845
816.666	19647
816.807	19605
816.948	19712
817.089	19658
817.23	19620
817.371	19521
817.512	19559
817.653	19518
817.793	19613
817.934	19594
818.075	19464
818.216	19540
818.356	19480
818.497	19346
818.638	19187
818.778	19202
818.919	19362
819.06	19331
819.2	19320
819.341	19403
819.481	19468
819.622	19544
819.762	19746
819.903	19620
820.043	19567
820.184	19533
820.324	19491
820.465	19415
820.605	19472
820.746	19460
820.886	19388
821.026	19529
821.167	19422
821.307	19506
821.447	19460
821.588	19301
821.728	19228
821.868	19137
822.008	19038
822.149	18932
822.289	18837
822.429	18669
822.569	18601
822.709	18696
822.849	18433
822.99	18369
823.13	18391
823.27	18342
823.41	18315
823.55	18228
823.69	18258
823.83	18220
823.97	18205
824.11	17958
824.25	17958
824.389	18060
824.529	18152
824.669	18053
824.809	17988
824.949	18068
825.089	18079
825.228	17954
825.368	17783
825.508	17771
825.648	17885
825.787	17805
825.927	17832
826.067	17752
826.206	17863
826.346	17726
826.485	17893
826.625	17859
826.765	17885
826.904	17821
827.044	17463
827.183	17653
827.323	17444
827.462	17448
827.601	17493
827.741	17478
827.88	17474
828.02	17353
828.159	17486
828.298	17402
828.437	17562
828.577	17459
828.716	17573
828.855	17436
828.994	17242
829.134	17231
829.273	17303
829.412	17212
829.551	17254
829.69	17197
829.829	17273
829.968	17391
830.107	17292
830.246	17223
830.385	17113
830.524	17086
830.663	16946
830.802	16968
830.941	16801
831.08	16759
831.219	16847
831.357	16995
831.496	17056
831.635	16748
831.774	16835
831.913	16793
832.051	16607
832.19	16656
832.329	16626
832.467	16554
832.606	16428
832.744	16558
832.883	16573
833.022	16516
833.16	16577
833.299	16668
833.437	16538
833.576	16592
833.714	16683
833.852	16607
833.991	16565
834.129	16611
834.267	16634
834.406	16588
834.544	16577
834.682	16611
834.821	16573
834.959	16748
835.097	16485
835.235	16622
835.373	16656
835.511	16736
835.65	16504
835.788	16538
835.926	16371
836.064	16329
836.202	16253
836.34	16580
836.478	16596
836.615	16565
836.753	16538
836.891	16508
837.029	16542
837.167	16421
837.305	16440
837.443	16413
837.58	16382
837.718	16436
837.856	16363
837.993	16337
838.131	16405
838.269	16276
838.406	16371
838.544	16166
838.681	16143
838.819	15960
838.956	15865
839.094	15899
839.231	15975
839.369	16097
839.506	16242
839.643	16109
839.781	15949
839.918	15968
840.055	15922
840.193	15937
840.33	15941
840.467	15941
840.604	15964
840.742	16051
840.879	15812
841.016	15880
841.153	15694
841.29	16044
841.427	15835
841.564	15918
841.701	15991
841.838	15880
841.975	15831
842.112	15892
842.249	15739
842.385	15682
842.522	15895
842.659	15705
842.796	15660
842.933	15827
843.069	15633
843.206	15732
843.343	15770
843.479	15736
843.616	15778
843.752	15519
843.889	15450
844.025	15580
844.162	15443
844.298	15652
844.435	15580
844.571	15420
844.708	15561
844.844	15690
844.98	15595
845.117	15614
845.253	15477
845.389	15386
845.525	15473
845.661	15439
845.798	15313
845.934	15351
846.07	15252
846.206	15310
846.342	15412
846.478	15207
846.614	15188
846.75	14944
846.886	15028
847.022	15192
847.158	15028
847.294	15135
847.429	15077
847.565	15112
847.701	15340
847.837	14853
847.972	14750
848.108	14887
848.244	14914
848.379	14788
848.515	14705
848.65	14655
848.786	14606
848.921	14655
849.057	14804
849.192	14815
849.328	14670
849.463	14663
849.598	14663
849.734	14583
849.869	14374
850.004	14507
850.14	14492
850.275	14431
850.41	14370
850.545	14355
850.68	14400
850.815	14320
850.95	14419
851.085	14621
851.22	14457
851.355	14465
851.49	14393
851.625	14336
851.76	14408
851.895	14332
852.03	14294
852.165	14362
852.299	14446
852.434	14533
852.569	14484
852.703	14389
852.838	14511
852.973	14648
853.107	14613
853.242	14404
853.376	14290
853.511	14187
853.645	14244
853.78	14294
853.914	14317
854.048	14263
854.183	14313
854.317	14271
854.451	14480
854.585	14199
854.72	14362
854.854	14336
854.988	14256
855.122	14248
855.256	14195
855.39	14320
855.524	14328
855.658	14400
855.792	14313
855.926	14328
856.06	14396
856.194	14457
856.327	14290
856.461	14176
856.595	14290
856.729	14290
856.862	14313
856.996	14313
857.13	14374
857.263	14377
857.397	14469
857.53	14271
857.664	14374
857.797	14305
857.931	14358
858.064	14313
858.197	14431
858.331	14240
858.464	14286
858.597	14183
858.731	14339
858.864	14313
858.997	14176
859.13	14324
859.263	14374
859.396	14446
859.529	14396
859.662	14282
859.795	14225
859.928	14256
860.061	14495
860.194	14484
860.327	14294
860.46	14225
860.592	14396
860.725	14431
860.858	14549
860.99	14168
861.123	14229
861.256	14275
861.388	14412
861.521	14906
861.653	14176
861.786	14069
861.918	14126
862.05	14176
862.183	14275
862.315	14218
862.447	14374
862.58	14225
862.712	14081
862.844	14043
862.976	14149
863.108	14145
863.24	14511
863.372	13982
863.504	14043
863.636	14065
863.768	14039
863.9	14134
864.032	13982
864.164	14035
864.296	14130
864.428	14183
864.559	14130
864.691	14115
864.823	14180
864.954	14092
865.086	14031
865.217	14084
865.349	14050
865.48	13951
865.612	14077
865.743	14256
865.875	14039
866.006	14065
866.137	14073
866.269	14012
866.4	13997
866.531	14062
866.662	14005
866.793	13856
866.924	13986
867.055	14081
867.186	14020
867.317	13959
867.448	13925
867.579	14046
867.71	13955
867.841	14054
867.972	14062
868.103	14046
868.233	14058
868.364	14111
868.495	14126
868.625	14290
868.756	14396
868.886	14107
869.017	14290
869.147	14461
869.278	14465
869.408	14347
869.539	14256
869.669	14362
869.799	14328
869.929	14454
870.06	14419
870.19	14632
870.32	14636
870.45	14644
870.58	14724
870.71	14826
870.84	14811
870.97	14632
871.1	14750
871.23	14899
871.36	14842
871.489	14697
871.619	14750
871.749	14933
871.879	14853
872.008	15024
872.138	14868
872.267	14883
872.397	14739
872.526	14800
872.656	14754
872.785	14693
872.915	14941
873.044	15089
873.173	14929
873.303	15039
873.432	14937
873.561	15074
873.69	14963
873.819	14891
873.948	15028
874.077	14906
874.206	14899
874.335	14986
874.464	15070
874.593	15211
874.722	15146
874.851	15389
874.979	15256
875.108	15207
875.237	15203
875.365	15108
875.494	15211
875.623	15481
875.751	15233
875.88	15332
876.008	15420
876.136	15462
876.265	15652
876.393	15755
876.521	15770
876.65	15694
876.778	15724
876.906	15679
877.034	15652
877.162	15724
877.29	15564
877.418	15686
877.546	15667
877.674	15618
877.802	15614
877.93	15701
878.058	15660
878.185	15584
878.313	15667
878.441	15625
878.568	15606
878.696	15603
878.824	15808
878.951	15793
879.079	15934
879.206	15975
879.333	15873
879.461	15709
879.588	15709
879.715	15785
879.842	15956
879.97	15789
880.097	15534
880.224	15523
880.351	15515
880.478	15561
880.605	15580
880.732	15515
880.859	15770
880.986	15530
881.112	15603
881.239	15477
881.366	15317
881.493	15161
881.619	15199
881.746	15176
881.872	15142
881.999	15176
882.125	15188
882.252	15237
882.378	15211
882.505	15389
882.631	15157
882.757	14952
882.883	15070
883.01	14963
883.136	14944
883.262	14921
883.388	14811
883.514	15055
883.64	15013
883.766	14952
883.892	14826
884.018	14792
884.143	15020
884.269	14998
884.395	14689
884.52	14655
884.646	14739
884.772	14708
884.897	14621
885.023	14712
885.148	14826
885.274	14861
885.399	14777
885.524	14712
885.65	14754
885.775	14785
885.9	14693
886.025	14834
886.15	14804
886.275	14674
886.4	14602
886.525	14648
886.65	14621
886.775	14606
886.9	14823
887.025	14937
887.149	14731
887.274	14552
887.399	14545
887.523	14454
887.648	14404
887.773	14499
887.897	14606
888.021	14587
888.146	14469
888.27	14606
888.395	14621
888.519	14602
888.643	14590
888.767	14530
888.891	14499
889.015	14362
889.139	14366
889.263	14450
889.387	14461
889.511	14625
889.635	14530
889.759	14381
889.883	14324
890.006	14419
890.13	14393
890.254	14332
890.377	14362
890.501	14168
890.624	14206
890.748	14240
890.871	14164
890.995	14027
891.118	14050
891.241	14115
891.364	14081
891.488	14180
891.611	14065
891.734	14142
891.857	14142
891.98	14107
892.103	14100
892.226	14123
892.349	14103
892.471	13963
892.594	14092
892.717	14107
892.839	13970
892.962	14100
893.085	14149
893.207	14111
893.33	13982
893.452	13963
893.575	14210
893.697	14233
893.819	14240
893.941	14400
894.064	14180
894.186	14134
894.308	14054
894.43	14229
894.552	14362
894.674	14248
894.796	14046
894.918	14176
895.04	14123
895.161	14244
895.283	14221
895.405	14229
895.526	14267
895.648	14191
895.769	14248
895.891	14244
896.012	14370
896.134	14267
896.255	14294
896.376	14237
896.498	14377
896.619	14320
896.74	14294
896.861	14370
896.982	14587
897.103	14735
897.224	14488
897.345	14499
897.466	14412
897.587	14454
897.708	14720
897.828	14522
897.949	14518
898.07	14396
898.19	14495
898.311	14602
898.431	14541
898.552	14648
898.672	14640
898.792	14682
898.913	14598
899.033	14514
899.153	14423
899.273	14438
899.393	14385
899.513	14484
899.633	14434
899.753	14446
899.873	14461
899.993	14556
900.113	14423
900.232	14473
900.352	14415
900.472	14362
900.591	14259
900.711	14412
900.83	14324
900.95	14446
901.069	14457
901.189	14324
901.308	14062
901.427	14031
901.546	14016
901.665	14050
901.784	14050
901.904	13909
902.023	13776
902.141	13594
902.26	13620
902.379	13647
902.498	13689
902.617	13567
902.735	13651
902.854	13639
902.973	13529
903.091	13449
903.21	13365
903.328	13434
903.446	13263
903.565	13266
903.683	13213
903.801	13088
903.919	13141
904.038	13069
904.156	12962
904.274	13072
904.392	13023
904.51	12935
904.627	13019
904.745	13095
904.863	12996
904.981	12867
905.098	12669
905.216	12620
905.334	12684
905.451	12760
905.569	12700
905.686	12768
905.803	12787
905.921	12509
906.038	12635
906.155	12585
906.272	12498
906.389	12388
906.506	12311
906.623	12346
906.74	12262
906.857	12125
906.974	12209
907.091	12285
907.208	12437
907.324	12311
907.441	12296
907.557	12129
907.674	12022
907.79	12049
907.907	12053
908.023	12095
908.139	12068
908.256	11992
908.372	11901
908.488	11958
908.604	11882
908.72	11805
908.836	11783
908.952	11726
909.068	11805
909.184	11893
909.3	11832
909.415	11882
909.531	11836
909.647	11604
909.762	11703
909.878	11539
909.993	11604
910.108	11554
910.224	11642
910.339	11611
910.454	11509
910.57	11398
910.685	11379
910.8	11646
910.915	11463
911.03	11482
911.145	11311
911.259	11349
911.374	11288
911.489	11193
911.604	11185
911.718	11014
911.833	11071
911.947	10927
912.062	10862
912.176	10953
912.291	11006
912.405	10999
912.519	11227
912.633	11239
912.748	11022
912.862	11014
912.976	10873
913.09	10767
913.204	10892
913.318	10908
913.431	10976
913.545	11029
913.659	10999
913.772	10968
913.886	10797
914	10755
914.113	10873
914.226	10892
914.34	10877
914.453	10706
914.566	10820
914.68	10771
914.793	10774
914.906	10497
915.019	10538
915.132	10436
915.245	10538
915.358	10500
915.47	10577
915.583	10577
915.696	10672
915.809	10683
915.921	10649
916.034	10466
916.146	10538
916.259	10497
916.371	10588
916.483	10561
916.595	10478
916.708	10478
916.82	10432
916.932	10451
917.044	10424
917.156	10405
917.268	10367
917.38	10310
917.491	10363
917.603	10314
917.715	10474
917.826	10470
917.938	10344
918.049	10215
918.161	10344
918.272	10443
918.384	10459
918.495	10466
918.606	10280
918.717	10158
918.828	10306
918.939	10272
919.05	10173
919.161	10238
919.272	10090
919.383	10166
919.494	10268
919.604	10451
919.715	10223
919.826	10177
919.936	10253
920.047	10257
920.157	10280
920.267	10417
920.378	10257
920.488	10268
920.598	10436
920.708	10634
920.818	10447
920.928	10523
921.038	10649
921.148	10611
921.258	10238
921.368	10261
921.477	10169
921.587	10051
921.697	9991
921.806	10086
921.916	10002
922.025	9876
922.134	9854
922.244	9759
922.353	9865
922.462	9705
922.571	9625
922.68	9572
922.789	9454
922.898	9496
923.007	9401
923.116	9477
923.224	9447
923.333	9469
923.442	9397
923.55	9367
923.659	9420
923.767	9507
923.876	9389
923.984	9481
924.092	9310
924.201	9405
924.309	9370
924.417	9424
924.525	9351
924.633	9389
924.741	10234
924.849	9119
924.956	9332
925.064	9138
925.172	9036
925.279	9131
925.387	9203
925.494	9142
925.602	9279
925.709	9302
925.816	9135
925.924	9131
926.031	9207
926.138	9161
926.245	9237
926.352	9097
926.459	9195
926.566	9253
926.673	9100
926.779	9001
926.886	8963
926.993	8895
927.099	8910
927.206	8788
927.312	8830
927.419	8963
927.525	8925
927.631	8842
927.737	8800
927.843	8712
927.95	8769
928.056	8705
928.162	8731
928.267	8838
928.373	9321
928.479	8800
928.585	8625
928.69	8788
928.796	8830
928.901	8716
929.007	8571
929.112	8682
929.218	8651
929.323	8571
929.428	8625
929.533	8705
929.638	8549
929.743	8552
929.848	8560
929.953	8655
930.058	8484
930.163	8328
930.267	8377
930.372	8522
930.477	8309
930.581	8610
930.685	8438
930.79	8305
930.894	8351
930.998	8324
931.103	8454
931.207	8065
931.311	8100
931.415	7955
931.519	7750
931.623	7845
