Data from test_V78500241_3223.txt Node
Date: Fri Mar 25 14:56:09 CST 2022
User: usil
Spectrometer: V785-0024
Trigger mode: 0
Integration Time (sec): 4.000000E-1
Scans to average: 1
Nonlinearity correction enabled: false
Boxcar width: 0
Storing dark spectrum: false
XAxis mode: Wavelengths
Number of Pixels in Spectrum: 1024
>>>>>Begin Spectral Data<<<<<
801.071	22059
801.214	21831
801.356	21755
801.499	21576
801.641	21431
801.783	21351
801.926	21298
802.068	21469
802.211	21325
802.353	21169
802.496	20967
802.638	20857
802.78	20743
802.923	20682
803.065	20682
803.208	20670
803.35	20788
803.492	20902
803.635	20849
803.777	20648
803.919	20739
804.061	21017
804.204	20842
804.346	20629
804.488	20518
804.63	20678
804.773	20598
804.915	20670
805.057	20788
805.199	20727
805.341	20697
805.483	20693
805.626	20705
805.768	20617
805.91	20564
806.052	20370
806.194	20522
806.336	20754
806.478	20568
806.62	20499
806.762	20651
806.904	20880
807.046	20941
807.188	20883
807.33	20998
807.472	21020
807.614	20758
807.756	20921
807.898	20724
808.04	20644
808.182	20712
808.324	20686
808.465	20750
808.607	20971
808.749	20986
808.891	21062
809.033	21218
809.174	21005
809.316	20986
809.458	21017
809.6	20944
809.741	21062
809.883	21028
810.025	21112
810.166	21142
810.308	21131
810.45	21062
810.591	21020
810.733	20796
810.875	20811
811.016	20670
811.158	20609
811.299	20727
811.441	20937
811.582	20804
811.724	20773
811.865	20743
812.007	20849
812.148	20765
812.29	20765
812.431	20921
812.573	21081
812.714	21123
812.855	21332
812.997	21416
813.138	21549
813.279	21374
813.421	21313
813.562	21199
813.703	21055
813.845	20880
813.986	20617
814.127	20511
814.268	20358
814.41	20324
814.551	20275
814.692	20248
814.833	20263
814.974	20259
815.115	20355
815.256	20126
815.397	20206
815.539	20134
815.68	20096
815.821	19982
815.962	20031
816.103	19970
816.244	19864
816.385	19814
816.526	19753
816.666	19651
816.807	19400
816.948	19601
817.089	19567
817.23	19449
817.371	19377
817.512	19407
817.653	19457
817.793	19369
817.934	19289
818.075	19480
818.216	19449
818.356	19324
818.497	19240
818.638	19099
818.778	19072
818.919	19065
819.06	19148
819.2	19274
819.341	19369
819.481	19350
819.622	19388
819.762	19643
819.903	19620
820.043	19445
820.184	19396
820.324	19312
820.465	19388
820.605	19369
820.746	19377
820.886	19316
821.026	19403
821.167	19198
821.307	19358
821.447	19324
821.588	19194
821.728	19171
821.868	18951
822.008	18798
822.149	18688
822.289	18840
822.429	18528
822.569	18544
822.709	18536
822.849	18289
822.99	18308
823.13	18304
823.27	18369
823.41	18140
823.55	18060
823.69	18095
823.83	18098
823.97	18007
824.11	17733
824.25	17840
824.389	17893
824.529	18091
824.669	17935
824.809	17920
824.949	18011
825.089	17893
825.228	17908
825.368	17733
825.508	17676
825.648	17737
825.787	17767
825.927	17657
826.067	17638
826.206	17604
826.346	17764
826.485	17638
826.625	17547
826.765	17767
826.904	17657
827.044	17528
827.183	17330
827.323	17246
827.462	17337
827.601	17220
827.741	17425
827.88	17307
828.02	17239
828.159	17288
828.298	17296
828.437	17303
828.577	17269
828.716	17417
828.855	17341
828.994	17136
829.134	17174
829.273	17178
829.412	17109
829.551	17022
829.69	17086
829.829	17060
829.968	17208
830.107	17170
830.246	17098
830.385	16946
830.524	16995
830.663	16946
830.802	16816
830.941	16626
831.08	16675
831.219	16858
831.357	16778
831.496	16919
831.635	16580
831.774	16664
831.913	16656
832.051	16558
832.19	16466
832.329	16485
832.467	16440
832.606	16363
832.744	16382
832.883	16314
833.022	16382
833.16	16424
833.299	16405
833.437	16394
833.576	16417
833.714	16481
833.852	16535
833.991	16558
834.129	16569
834.267	16485
834.406	16371
834.544	16459
834.682	16451
834.821	16402
834.959	16584
835.097	16333
835.235	16573
835.373	16500
835.511	16466
835.65	16337
835.788	16348
835.926	16287
836.064	16150
836.202	16200
836.34	16390
836.478	16405
836.615	16363
836.753	16303
836.891	16440
837.029	16371
837.167	16337
837.305	16310
837.443	16360
837.58	16204
837.718	16284
837.856	16242
837.993	16226
838.131	16207
838.269	16166
838.406	16219
838.544	16158
838.681	16025
838.819	15972
838.956	15743
839.094	15812
839.231	15831
839.369	15903
839.506	16101
839.643	15987
839.781	15850
839.918	15739
840.055	15846
840.193	15641
840.33	15804
840.467	15755
840.604	15861
840.742	16021
840.879	15728
841.016	15690
841.153	15614
841.29	15998
841.427	15915
841.564	15797
841.701	15785
841.838	15812
841.975	15675
842.112	15747
842.249	15504
842.385	15492
842.522	15766
842.659	15606
842.796	15584
842.933	15500
843.069	15538
843.206	15424
843.343	15656
843.479	15648
843.616	15511
843.752	15389
843.889	15359
844.025	15515
844.162	15329
844.298	15405
844.435	15363
844.571	15272
844.708	15420
844.844	15504
844.98	15523
845.117	15477
845.253	15351
845.389	15203
845.525	15348
845.661	15279
845.798	15142
845.934	15203
846.07	15036
846.206	15119
846.342	15272
846.478	15066
846.614	14986
846.75	14952
846.886	14902
847.022	15005
847.158	14960
847.294	14891
847.429	14933
847.565	14796
847.701	15169
847.837	14686
847.972	14720
848.108	14762
848.244	14762
848.379	14617
848.515	14495
848.65	14431
848.786	14518
848.921	14541
849.057	14617
849.192	14682
849.328	14632
849.463	14549
849.598	14571
849.734	14347
849.869	14320
850.004	14267
850.14	14343
850.275	14271
850.41	14275
850.545	14210
850.68	14244
850.815	14377
850.95	14282
851.085	14492
851.22	14400
851.355	14244
851.49	14256
851.625	14271
851.76	14282
851.895	14138
852.03	14263
852.165	14259
852.299	14362
852.434	14358
852.569	14317
852.703	14320
852.838	14351
852.973	14450
853.107	14423
853.242	14271
853.376	14187
853.511	14111
853.645	13997
853.78	14263
853.914	14077
854.048	14096
854.183	14142
854.317	14161
854.451	14317
854.585	14183
854.72	14088
854.854	14176
854.988	13982
855.122	14149
855.256	13993
855.39	14142
855.524	14229
855.658	14199
855.792	14256
855.926	14229
856.06	14138
856.194	14286
856.327	14168
856.461	14115
856.595	14054
856.729	14176
856.862	14290
856.996	14202
857.13	14225
857.263	14259
857.397	14309
857.53	14172
857.664	14225
857.797	14244
857.931	14305
858.064	14267
858.197	14370
858.331	14240
858.464	14103
858.597	14043
858.731	14138
858.864	14161
858.997	14206
859.13	14161
859.263	14214
859.396	14275
859.529	14111
859.662	14126
859.795	14149
859.928	14138
860.061	14275
860.194	14434
860.327	14218
860.46	14202
860.592	14259
860.725	14267
860.858	14275
860.99	14115
861.123	14024
861.256	14050
861.388	14081
861.521	14864
861.653	13974
861.786	14005
861.918	13944
862.05	14031
862.183	14138
862.315	14221
862.447	14202
862.58	14115
862.712	13967
862.844	13909
862.976	14005
863.108	13959
863.24	14374
863.372	13906
863.504	13883
863.636	13833
863.768	13951
863.9	13925
864.032	13993
864.164	13928
864.296	13947
864.428	14111
864.559	14043
864.691	14062
864.823	14046
864.954	13883
865.086	13921
865.217	13944
865.349	13963
865.48	13894
865.612	13921
865.743	14008
865.875	13974
866.006	13845
866.137	13963
866.269	13936
866.4	13967
866.531	13871
866.662	13883
866.793	13807
866.924	13871
867.055	13997
867.186	13974
867.317	13849
867.448	13750
867.579	13906
867.71	13932
867.841	13811
867.972	13959
868.103	13982
868.233	13887
868.364	14020
868.495	13997
868.625	14100
868.756	14301
868.886	13989
869.017	14149
869.147	14229
869.278	14240
869.408	14214
869.539	14259
869.669	14214
869.799	14195
869.929	14313
870.06	14355
870.19	14408
870.32	14442
870.45	14495
870.58	14678
870.71	14590
870.84	14659
870.97	14606
871.1	14594
871.23	14785
871.36	14708
871.489	14788
871.619	14811
871.749	14765
871.879	14845
872.008	14800
872.138	14765
872.267	14765
872.397	14701
872.526	14621
872.656	14632
872.785	14594
872.915	14864
873.044	14834
873.173	14804
873.303	14853
873.432	14925
873.561	14941
873.69	14758
873.819	14849
873.948	14975
874.077	14880
874.206	14788
874.335	14788
874.464	15047
874.593	15051
874.722	15116
874.851	15195
874.979	15184
875.108	15192
875.237	14986
875.365	15097
875.494	15085
875.623	15192
875.751	15161
875.88	15252
876.008	15340
876.136	15336
876.265	15549
876.393	15599
876.521	15686
876.65	15580
876.778	15644
876.906	15568
877.034	15523
877.162	15553
877.29	15553
877.418	15633
877.546	15519
877.674	15561
877.802	15549
877.93	15557
878.058	15504
878.185	15439
878.313	15538
878.441	15629
878.568	15370
878.696	15443
878.824	15663
878.951	15629
879.079	15785
879.206	15770
879.333	15732
879.461	15561
879.588	15614
879.715	15762
879.842	15823
879.97	15587
880.097	15485
880.224	15412
880.351	15443
880.478	15473
880.605	15431
880.732	15473
880.859	15671
880.986	15321
881.112	15458
881.239	15310
881.366	15203
881.493	15123
881.619	15112
881.746	14963
881.872	14944
881.999	15020
882.125	15116
882.252	15154
882.378	14925
882.505	15226
882.631	15028
882.757	14849
882.883	14899
883.01	14960
883.136	14948
883.262	14785
883.388	14765
883.514	14895
883.64	14864
883.766	14861
883.892	14705
884.018	14746
884.143	14979
884.269	14979
884.395	14564
884.52	14606
884.646	14663
884.772	14522
884.897	14488
885.023	14625
885.148	14739
885.274	14750
885.399	14636
885.524	14579
885.65	14697
885.775	14644
885.9	14686
886.025	14674
886.15	14640
886.275	14598
886.4	14533
886.525	14507
886.65	14602
886.775	14465
886.9	14754
887.025	14838
887.149	14587
887.274	14434
887.399	14446
887.523	14377
887.648	14362
887.773	14324
887.897	14450
888.021	14495
888.146	14381
888.27	14446
888.395	14644
888.519	14473
888.643	14492
888.767	14503
888.891	14393
889.015	14320
889.139	14305
889.263	14225
889.387	14336
889.511	14488
889.635	14347
889.759	14176
889.883	14278
890.006	14358
890.13	14393
890.254	14221
890.377	14298
890.501	14065
890.624	14134
890.748	14210
890.871	14043
890.995	14035
891.118	13909
891.241	13986
891.364	14001
891.488	14168
891.611	13947
891.734	13951
891.857	13989
891.98	14050
892.103	14138
892.226	14046
892.349	13890
892.471	13814
892.594	13997
892.717	13993
892.839	13959
892.962	14065
893.085	14107
893.207	13944
893.33	13871
893.452	14001
893.575	14092
893.697	14027
893.819	14103
893.941	14168
894.064	14157
894.186	14046
894.308	14123
894.43	14081
894.552	14149
894.674	14123
894.796	13940
894.918	14043
895.04	13993
895.161	14111
895.283	14050
895.405	14012
895.526	14054
895.648	14138
895.769	14142
895.891	14225
896.012	14195
896.134	14259
896.255	14035
896.376	14149
896.498	14210
896.619	14218
896.74	14130
896.861	14263
896.982	14541
897.103	14663
897.224	14454
897.345	14396
897.466	14408
897.587	14415
897.708	14552
897.828	14518
897.949	14473
898.07	14351
898.19	14404
898.311	14549
898.431	14495
898.552	14560
898.672	14579
898.792	14651
898.913	14492
899.033	14404
899.153	14465
899.273	14214
899.393	14267
899.513	14339
899.633	14324
899.753	14404
899.873	14412
899.993	14495
900.113	14434
900.232	14400
900.352	14332
900.472	14355
900.591	14130
900.711	14259
900.83	14134
900.95	14347
901.069	14332
901.189	14187
901.308	13955
901.427	13750
901.546	13868
901.665	13982
901.784	13993
901.904	13791
902.023	13658
902.141	13483
902.26	13548
902.379	13521
902.498	13556
902.617	13331
902.735	13510
902.854	13396
902.973	13415
903.091	13247
903.21	13145
903.328	13225
903.446	13149
903.565	13114
903.683	13122
903.801	12916
903.919	13004
904.038	13065
904.156	12901
904.274	12939
904.392	12741
904.51	12935
904.627	12932
904.745	12947
904.863	12943
904.981	12817
905.098	12589
905.216	12593
905.334	12616
905.451	12681
905.569	12471
905.686	12646
905.803	12540
905.921	12456
906.038	12471
906.155	12395
906.272	12289
906.389	12334
906.506	12129
906.623	12152
906.74	12121
906.857	12049
906.974	12060
907.091	12228
907.208	12285
907.324	12262
907.441	12117
907.557	11942
907.674	11916
907.79	11942
907.907	11885
908.023	11904
908.139	11832
908.256	11874
908.372	11798
908.488	11752
908.604	11668
908.72	11665
908.836	11680
908.952	11657
909.068	11627
909.184	11790
909.3	11634
909.415	11695
909.531	11646
909.647	11448
909.762	11486
909.878	11402
909.993	11482
910.108	11364
910.224	11334
910.339	11463
910.454	11372
910.57	11269
910.685	11216
910.8	11528
910.915	11455
911.03	11326
911.145	11178
911.259	11121
911.374	11143
911.489	11071
911.604	11037
911.718	10850
911.833	10930
911.947	10820
912.062	10710
912.176	10850
912.291	10892
912.405	10896
912.519	11029
912.633	11117
912.748	10919
912.862	10946
912.976	10767
913.09	10736
913.204	10729
913.318	10733
913.431	10896
913.545	10965
913.659	10843
913.772	10793
913.886	10622
914	10675
914.113	10786
914.226	10801
914.34	10740
914.453	10649
914.566	10725
914.68	10679
914.793	10580
914.906	10504
915.019	10348
915.132	10371
915.245	10390
915.358	10382
915.47	10405
915.583	10455
915.696	10436
915.809	10596
915.921	10561
916.034	10386
916.146	10348
916.259	10303
916.371	10470
916.483	10421
916.595	10344
916.708	10356
916.82	10310
916.932	10360
917.044	10360
917.156	10299
917.268	10181
917.38	10227
917.491	10265
917.603	10219
917.715	10318
917.826	10333
917.938	10238
918.049	10204
918.161	10215
918.272	10352
918.384	10348
918.495	10268
918.606	10097
918.717	10082
918.828	10131
918.939	10169
919.05	10010
919.161	10055
919.272	9903
919.383	9991
919.494	10173
919.604	10356
919.715	10150
919.826	10063
919.936	10093
920.047	10185
920.157	10169
920.267	10268
920.378	10253
920.488	10192
920.598	10360
920.708	10470
920.818	10360
920.928	10382
921.038	10489
921.148	10428
921.258	10272
921.368	10158
921.477	10071
921.587	9964
921.697	9797
921.806	10010
921.916	9911
922.025	9793
922.134	9762
922.244	9663
922.353	9774
922.462	9633
922.571	9641
922.68	9454
922.789	9428
922.898	9393
923.007	9325
923.116	9481
923.224	9389
923.333	9431
923.442	9302
923.55	9249
923.659	9370
923.767	9321
923.876	9253
923.984	9405
924.092	9249
924.201	9317
924.309	9249
924.417	9275
924.525	9203
924.633	9218
924.741	10112
924.849	9020
924.956	9180
925.064	9070
925.172	8933
925.279	9017
925.387	9047
925.494	9066
925.602	9226
925.709	9119
925.816	8933
925.924	9036
926.031	9157
926.138	9123
926.245	9123
926.352	8937
926.459	9161
926.566	9104
926.673	9039
926.779	8956
926.886	8937
926.993	8807
927.099	8800
927.206	8758
927.312	8754
927.419	8842
927.525	8853
927.631	8853
927.737	8648
927.843	8648
927.95	8629
928.056	8659
928.162	8659
928.267	8777
928.373	9157
928.479	8800
928.585	8526
928.69	8705
928.796	8651
928.901	8560
929.007	8499
929.112	8579
929.218	8579
929.323	8514
929.428	8465
929.533	8560
929.638	8400
929.743	8454
929.848	8533
929.953	8495
930.058	8404
930.163	8210
930.267	8282
930.372	8320
930.477	8267
930.581	8507
930.685	8385
930.79	8191
930.894	8263
930.998	8240
931.103	8366
931.207	8050
931.311	7909
931.415	7917
931.519	7750
931.623	7708
