Data from test_V78500241_3076.txt Node
Date: Fri Mar 25 14:55:08 CST 2022
User: usil
Spectrometer: V785-0024
Trigger mode: 0
Integration Time (sec): 4.000000E-1
Scans to average: 1
Nonlinearity correction enabled: false
Boxcar width: 0
Storing dark spectrum: false
XAxis mode: Wavelengths
Number of Pixels in Spectrum: 1024
>>>>>Begin Spectral Data<<<<<
801.071	22082
801.214	21911
801.356	21755
801.499	21694
801.641	21557
801.783	21481
801.926	21454
802.068	21397
802.211	21428
802.353	21302
802.496	21036
802.638	20902
802.78	20979
802.923	20872
803.065	20712
803.208	20708
803.35	20746
803.492	20895
803.635	20933
803.777	20800
803.919	20956
804.061	21131
804.204	20838
804.346	20682
804.488	20625
804.63	20796
804.773	20598
804.915	20693
805.057	20842
805.199	20670
805.341	20811
805.483	20834
805.626	20769
805.768	20667
805.91	20720
806.052	20708
806.194	20636
806.336	20849
806.478	20693
806.62	20667
806.762	20853
806.904	20849
807.046	21085
807.188	21142
807.33	21024
807.472	21036
807.614	21028
807.756	21062
807.898	20899
808.04	20724
808.182	20701
808.324	20899
808.465	20773
808.607	21032
808.749	20975
808.891	21135
809.033	21184
809.174	21017
809.316	21051
809.458	21192
809.6	21039
809.741	21138
809.883	21161
810.025	21180
810.166	21275
810.308	21176
810.45	21146
810.591	21051
810.733	20960
810.875	20895
811.016	20712
811.158	20689
811.299	20887
811.441	21009
811.582	20925
811.724	20807
811.865	20781
812.007	20804
812.148	20785
812.29	20887
812.431	20868
812.573	21207
812.714	21150
812.855	21348
812.997	21408
813.138	21641
813.279	21351
813.421	21374
813.562	21195
813.703	21081
813.845	20948
813.986	20777
814.127	20556
814.268	20358
814.41	20438
814.551	20404
814.692	20442
814.833	20309
814.974	20385
815.115	20400
815.256	20271
815.397	20126
815.539	20278
815.68	20122
815.821	20043
815.962	20134
816.103	20134
816.244	19970
816.385	19898
816.526	19860
816.666	19658
816.807	19624
816.948	19662
817.089	19685
817.23	19533
817.371	19369
817.512	19537
817.653	19400
817.793	19487
817.934	19521
818.075	19559
818.216	19518
818.356	19445
818.497	19396
818.638	19225
818.778	19183
818.919	19198
819.06	19247
819.2	19278
819.341	19362
819.481	19320
819.622	19601
819.762	19651
819.903	19613
820.043	19624
820.184	19499
820.324	19430
820.465	19567
820.605	19548
820.746	19449
820.886	19247
821.026	19518
821.167	19487
821.307	19430
821.447	19362
821.588	19270
821.728	19137
821.868	18954
822.008	18882
822.149	18817
822.289	18798
822.429	18608
822.569	18536
822.709	18658
822.849	18498
822.99	18357
823.13	18353
823.27	18308
823.41	18114
823.55	18095
823.69	18258
823.83	18152
823.97	18167
824.11	17946
824.25	17969
824.389	17977
824.529	17965
824.669	17931
824.809	18091
824.949	17992
825.089	17973
825.228	18022
825.368	17805
825.508	17703
825.648	17722
825.787	17805
825.927	17817
826.067	17672
826.206	17760
826.346	17802
826.485	17649
826.625	17703
826.765	17748
826.904	17657
827.044	17471
827.183	17459
827.323	17410
827.462	17429
827.601	17448
827.741	17379
827.88	17334
828.02	17254
828.159	17372
828.298	17501
828.437	17429
828.577	17402
828.716	17577
828.855	17185
828.994	17200
829.134	17136
829.273	17223
829.412	17117
829.551	17102
829.69	17117
829.829	17174
829.968	17231
830.107	17121
830.246	17143
830.385	17094
830.524	17025
830.663	16949
830.802	16862
830.941	16759
831.08	16786
831.219	16797
831.357	16850
831.496	16991
831.635	16801
831.774	16649
831.913	16645
832.051	16538
832.19	16535
832.329	16546
832.467	16538
832.606	16348
832.744	16405
832.883	16352
833.022	16382
833.16	16485
833.299	16478
833.437	16508
833.576	16607
833.714	16493
833.852	16577
833.991	16497
834.129	16531
834.267	16538
834.406	16519
834.544	16516
834.682	16519
834.821	16447
834.959	16618
835.097	16440
835.235	16569
835.373	16489
835.511	16573
835.65	16371
835.788	16386
835.926	16226
836.064	16253
836.202	16268
836.34	16405
836.478	16424
836.615	16367
836.753	16310
836.891	16542
837.029	16333
837.167	16322
837.305	16246
837.443	16253
837.58	16219
837.718	16375
837.856	16306
837.993	16284
838.131	16276
838.269	16280
838.406	16246
838.544	16188
838.681	15903
838.819	15884
838.956	15880
839.094	15861
839.231	15808
839.369	16013
839.506	16139
839.643	16032
839.781	15831
839.918	15816
840.055	15819
840.193	15888
840.33	15713
840.467	15831
840.604	15998
840.742	16101
840.879	15774
841.016	15724
841.153	15701
841.29	15911
841.427	15804
841.564	15819
841.701	15838
841.838	15781
841.975	15774
842.112	15717
842.249	15622
842.385	15599
842.522	15797
842.659	15603
842.796	15466
842.933	15523
843.069	15496
843.206	15526
843.343	15720
843.479	15542
843.616	15633
843.752	15447
843.889	15275
844.025	15496
844.162	15245
844.298	15591
844.435	15332
844.571	15344
844.708	15416
844.844	15523
844.98	15526
845.117	15431
845.253	15268
845.389	15195
845.525	15340
845.661	15264
845.798	15146
845.934	15268
846.07	15112
846.206	15222
846.342	15237
846.478	15237
846.614	15112
846.75	14948
846.886	14986
847.022	15058
847.158	14925
847.294	14990
847.429	14986
847.565	14944
847.701	15066
847.837	14701
847.972	14727
848.108	14758
848.244	14686
848.379	14617
848.515	14545
848.65	14503
848.786	14568
848.921	14552
849.057	14640
849.192	14636
849.328	14571
849.463	14602
849.598	14511
849.734	14442
849.869	14431
850.004	14256
850.14	14225
850.275	14351
850.41	14320
850.545	14221
850.68	14259
850.815	14328
850.95	14218
851.085	14442
851.22	14347
851.355	14336
851.49	14275
851.625	14278
851.76	14259
851.895	14126
852.03	14267
852.165	14229
852.299	14301
852.434	14385
852.569	14290
852.703	14259
852.838	14389
852.973	14431
853.107	14423
853.242	14256
853.376	14145
853.511	14050
853.645	14191
853.78	14210
853.914	14210
854.048	14229
854.183	14191
854.317	14240
854.451	14298
854.585	14149
854.72	14176
854.854	14366
854.988	14054
855.122	14187
855.256	14065
855.39	14161
855.524	14244
855.658	14229
855.792	14134
855.926	14256
856.06	14271
856.194	14328
856.327	14172
856.461	14084
856.595	14229
856.729	14119
856.862	14244
856.996	14180
857.13	14282
857.263	14286
857.397	14309
857.53	14214
857.664	14233
857.797	14214
857.931	14324
858.064	14191
858.197	14294
858.331	14161
858.464	14183
858.597	13989
858.731	14031
858.864	14183
858.997	14202
859.13	14202
859.263	14043
859.396	14294
859.529	14240
859.662	14035
859.795	14065
859.928	14210
860.061	14298
860.194	14313
860.327	14259
860.46	14153
860.592	14294
860.725	14298
860.858	14309
860.99	14115
861.123	14138
861.256	14088
861.388	14153
861.521	14853
861.653	14130
861.786	14081
861.918	14073
862.05	14138
862.183	14092
862.315	14145
862.447	14240
862.58	14115
862.712	13993
862.844	13894
862.976	14058
863.108	13963
863.24	14301
863.372	13776
863.504	13974
863.636	13898
863.768	14065
863.9	13963
864.032	13890
864.164	13871
864.296	14062
864.428	14153
864.559	14050
864.691	14077
864.823	13955
864.954	13970
865.086	13898
865.217	13955
865.349	13871
865.48	13989
865.612	13982
865.743	14195
865.875	13947
866.006	13879
866.137	13902
866.269	13928
866.4	13890
866.531	13864
866.662	13826
866.793	13913
866.924	13856
867.055	13967
867.186	14020
867.317	13814
867.448	13871
867.579	13928
867.71	13814
867.841	13811
867.972	13902
868.103	13890
868.233	13906
868.364	13936
868.495	14020
868.625	14229
868.756	14259
868.886	14100
869.017	14237
869.147	14271
869.278	14358
869.408	14180
869.539	14252
869.669	14256
869.799	14290
869.929	14229
870.06	14240
870.19	14511
870.32	14530
870.45	14541
870.58	14511
870.71	14610
870.84	14689
870.97	14606
871.1	14514
871.23	14720
871.36	14708
871.489	14720
871.619	14758
871.749	14792
871.879	14743
872.008	14853
872.138	14731
872.267	14853
872.397	14659
872.526	14697
872.656	14571
872.785	14659
872.915	14800
873.044	14842
873.173	14815
873.303	14762
873.432	14929
873.561	14906
873.69	14849
873.819	14883
873.948	14990
874.077	14937
874.206	14788
874.335	14731
874.464	15005
874.593	15184
874.722	15047
874.851	15131
874.979	15161
875.108	15146
875.237	15108
875.365	14998
875.494	15047
875.623	15237
875.751	15127
875.88	15207
876.008	15302
876.136	15317
876.265	15675
876.393	15717
876.521	15660
876.65	15648
876.778	15599
876.906	15523
877.034	15534
877.162	15469
877.29	15416
877.418	15633
877.546	15629
877.674	15625
877.802	15504
877.93	15526
878.058	15511
878.185	15542
878.313	15606
878.441	15595
878.568	15447
878.696	15557
878.824	15530
878.951	15660
879.079	15762
879.206	15789
879.333	15747
879.461	15561
879.588	15728
879.715	15728
879.842	15842
879.97	15629
880.097	15378
880.224	15374
880.351	15447
880.478	15469
880.605	15382
880.732	15386
880.859	15629
880.986	15428
881.112	15416
881.239	15332
881.366	15283
881.493	15089
881.619	15089
881.746	15097
881.872	15116
881.999	14933
882.125	14979
882.252	15039
882.378	15093
882.505	15218
882.631	14933
882.757	14944
882.883	15036
883.01	14979
883.136	14868
883.262	14777
883.388	14689
883.514	14857
883.64	14872
883.766	14815
883.892	14667
884.018	14743
884.143	14941
884.269	14963
884.395	14621
884.52	14594
884.646	14488
884.772	14575
884.897	14480
885.023	14552
885.148	14712
885.274	14781
885.399	14743
885.524	14583
885.65	14689
885.775	14682
885.9	14629
886.025	14697
886.15	14701
886.275	14503
886.4	14564
886.525	14590
886.65	14511
886.775	14488
886.9	14842
887.025	14823
887.149	14598
887.274	14526
887.399	14454
887.523	14404
887.648	14434
887.773	14332
887.897	14480
888.021	14530
888.146	14317
888.27	14499
888.395	14587
888.519	14434
888.643	14408
888.767	14389
888.891	14347
889.015	14263
889.139	14355
889.263	14309
889.387	14385
889.511	14564
889.635	14492
889.759	14206
889.883	14336
890.006	14370
890.13	14465
890.254	14187
890.377	14221
890.501	14142
890.624	14062
890.748	14210
890.871	13947
890.995	14039
891.118	13982
891.241	14062
891.364	13967
891.488	14142
891.611	13951
891.734	14024
891.857	14084
891.98	14050
892.103	14107
892.226	14103
892.349	13982
892.471	13837
892.594	14024
892.717	14058
892.839	13986
892.962	13955
893.085	14054
893.207	14058
893.33	13860
893.452	13894
893.575	14111
893.697	13940
893.819	14218
893.941	14267
894.064	14195
894.186	13928
894.308	13940
894.43	14119
894.552	14332
894.674	14115
894.796	14065
894.918	13997
895.04	14077
895.161	14187
895.283	14050
895.405	14027
895.526	14020
895.648	14115
895.769	14115
895.891	14153
896.012	14294
896.134	14183
896.255	14229
896.376	14084
896.498	14202
896.619	14244
896.74	14202
896.861	14195
896.982	14575
897.103	14629
897.224	14507
897.345	14415
897.466	14415
897.587	14511
897.708	14648
897.828	14556
897.949	14469
898.07	14408
898.19	14404
898.311	14518
898.431	14503
898.552	14533
898.672	14556
898.792	14530
898.913	14606
899.033	14427
899.153	14400
899.273	14294
899.393	14427
899.513	14396
899.633	14389
899.753	14423
899.873	14381
899.993	14381
900.113	14454
900.232	14366
900.352	14328
900.472	14309
900.591	14229
900.711	14298
900.83	14225
900.95	14343
901.069	14488
901.189	14191
901.308	14058
901.427	13860
901.546	13932
901.665	13967
901.784	13963
901.904	13921
902.023	13712
902.141	13609
902.26	13506
902.379	13601
902.498	13449
902.617	13411
902.735	13540
902.854	13544
902.973	13472
903.091	13266
903.21	13263
903.328	13289
903.446	13149
903.565	13107
903.683	13171
903.801	13057
903.919	13023
904.038	13031
904.156	12913
904.274	13053
904.392	12905
904.51	12871
904.627	12913
904.745	12894
904.863	12954
904.981	12692
905.098	12578
905.216	12574
905.334	12597
905.451	12521
905.569	12498
905.686	12620
905.803	12582
905.921	12460
906.038	12521
906.155	12433
906.272	12311
906.389	12296
906.506	12159
906.623	12197
906.74	12167
906.857	12003
906.974	12030
907.091	12243
907.208	12273
907.324	12243
907.441	12072
907.557	12034
907.674	11866
907.79	11874
907.907	11874
908.023	11965
908.139	11855
908.256	11836
908.372	11798
908.488	11786
908.604	11688
908.72	11649
908.836	11672
908.952	11608
909.068	11733
909.184	11752
909.3	11741
909.415	11737
909.531	11657
909.647	11474
909.762	11448
909.878	11425
909.993	11410
910.108	11402
910.224	11395
910.339	11406
910.454	11303
910.57	11391
910.685	11193
910.8	11501
910.915	11444
911.03	11315
911.145	11128
911.259	11155
911.374	11155
911.489	11090
911.604	11018
911.718	10873
911.833	10881
911.947	10778
912.062	10801
912.176	10839
912.291	10911
912.405	10828
912.519	11098
912.633	11170
912.748	10980
912.862	10904
912.976	10790
913.09	10660
913.204	10778
913.318	10831
913.431	10889
913.545	10812
913.659	10911
913.772	10790
913.886	10656
914	10630
914.113	10675
914.226	10801
914.34	10714
914.453	10653
914.566	10714
914.68	10580
914.793	10580
914.906	10451
915.019	10443
915.132	10314
915.245	10386
915.358	10428
915.47	10478
915.583	10451
915.696	10470
915.809	10516
915.921	10573
916.034	10390
916.146	10478
916.259	10375
916.371	10474
916.483	10417
916.595	10303
916.708	10363
916.82	10413
916.932	10306
917.044	10360
917.156	10310
917.268	10215
917.38	10291
917.491	10223
917.603	10329
917.715	10325
917.826	10405
917.938	10276
918.049	10109
918.161	10303
918.272	10344
918.384	10428
918.495	10238
918.606	10105
918.717	10010
918.828	10055
918.939	10158
919.05	10051
919.161	10173
919.272	9926
919.383	10051
919.494	10196
919.604	10337
919.715	10109
919.826	10044
919.936	10120
920.047	10200
920.157	10207
920.267	10382
920.378	10188
920.488	10135
920.598	10284
920.708	10504
920.818	10337
920.928	10394
921.038	10546
921.148	10523
921.258	10185
921.368	10055
921.477	10002
921.587	9915
921.697	9857
921.806	10010
921.916	9842
922.025	9747
922.134	9812
922.244	9644
922.353	9789
922.462	9557
922.571	9580
922.68	9439
922.789	9405
922.898	9420
923.007	9359
923.116	9408
923.224	9466
923.333	9332
923.442	9321
923.55	9291
923.659	9260
923.767	9302
923.876	9256
923.984	9355
924.092	9199
924.201	9367
924.309	9283
924.417	9268
924.525	9184
924.633	9294
924.741	10116
924.849	9119
924.956	9279
925.064	9017
925.172	8891
925.279	8963
925.387	9127
925.494	9039
925.602	9165
925.709	9169
925.816	9039
925.924	9020
926.031	9154
926.138	9150
926.245	9089
926.352	8994
926.459	9180
926.566	9165
926.673	9005
926.779	8921
926.886	8971
926.993	8826
927.099	8705
927.206	8804
927.312	8686
927.419	8792
927.525	8785
927.631	8773
927.737	8693
927.843	8678
927.95	8613
928.056	8648
928.162	8712
928.267	8735
928.373	9222
928.479	8739
928.585	8446
928.69	8644
928.796	8682
928.901	8617
929.007	8461
929.112	8648
929.218	8488
929.323	8469
929.428	8499
929.533	8644
929.638	8423
929.743	8473
929.848	8545
929.953	8495
930.058	8404
930.163	8294
930.267	8313
930.372	8488
930.477	8271
930.581	8461
930.685	8332
930.79	8210
930.894	8195
930.998	8210
931.103	8294
931.207	8062
931.311	8027
931.415	7925
931.519	7689
931.623	7734
