Data from test_V78500241_1313.txt Node
Date: Fri Mar 25 14:42:51 CST 2022
User: usil
Spectrometer: V785-0024
Trigger mode: 0
Integration Time (sec): 4.000000E-1
Scans to average: 1
Nonlinearity correction enabled: false
Boxcar width: 0
Storing dark spectrum: false
XAxis mode: Wavelengths
Number of Pixels in Spectrum: 1024
>>>>>Begin Spectral Data<<<<<
801.071	22405
801.214	22287
801.356	22109
801.499	22010
801.641	21724
801.783	21823
801.926	21888
802.068	21759
802.211	21599
802.353	21564
802.496	21249
802.638	21313
802.78	21340
802.923	21173
803.065	21039
803.208	20982
803.35	21100
803.492	21150
803.635	21214
803.777	21188
803.919	21272
804.061	21545
804.204	21157
804.346	21081
804.488	20979
804.63	20956
804.773	20933
804.915	20960
805.057	21096
805.199	20963
805.341	21074
805.483	21116
805.626	20986
805.768	20994
805.91	21043
806.052	20990
806.194	20921
806.336	21291
806.478	21032
806.62	20979
806.762	21005
806.904	21146
807.046	21332
807.188	21348
807.33	21435
807.472	21412
807.614	21138
807.756	21310
807.898	21226
808.04	21154
808.182	21150
808.324	21237
808.465	21340
808.607	21538
808.749	21564
808.891	21671
809.033	21838
809.174	21656
809.316	21496
809.458	21633
809.6	21336
809.741	21526
809.883	21564
810.025	21595
810.166	21629
810.308	21515
810.45	21603
810.591	21447
810.733	21329
810.875	21252
811.016	21108
811.158	21222
811.299	21249
811.441	21359
811.582	21294
811.724	21264
811.865	21211
812.007	21184
812.148	21211
812.29	21203
812.431	21310
812.573	21431
812.714	21610
812.855	21644
812.997	21759
813.138	21835
813.279	21656
813.421	21728
813.562	21538
813.703	21431
813.845	21252
813.986	21055
814.127	20834
814.268	20861
814.41	20785
814.551	20811
814.692	20842
814.833	20701
814.974	20727
815.115	20693
815.256	20609
815.397	20533
815.539	20571
815.68	20480
815.821	20438
815.962	20511
816.103	20514
816.244	20214
816.385	20294
816.526	20221
816.666	20115
816.807	19818
816.948	20039
817.089	19913
817.23	19883
817.371	19951
817.512	19875
817.653	19894
817.793	19799
817.934	19833
818.075	19940
818.216	19826
818.356	19784
818.497	19734
818.638	19658
818.778	19597
818.919	19685
819.06	19620
819.2	19780
819.341	19666
819.481	19693
819.622	19925
819.762	20161
819.903	20001
820.043	19830
820.184	19875
820.324	19906
820.465	19982
820.605	19845
820.746	19841
820.886	19693
821.026	19864
821.167	19811
821.307	19769
821.447	19784
821.588	19776
821.728	19613
821.868	19567
822.008	19266
822.149	19316
822.289	19213
822.429	19012
822.569	18943
822.709	19008
822.849	18749
822.99	18798
823.13	18741
823.27	18677
823.41	18616
823.55	18448
823.69	18540
823.83	18631
823.97	18494
824.11	18441
824.25	18372
824.389	18365
824.529	18376
824.669	18353
824.809	18467
824.949	18486
825.089	18456
825.228	18452
825.368	18159
825.508	18216
825.648	18163
825.787	18178
825.927	18171
826.067	18220
826.206	17977
826.346	18186
826.485	18133
826.625	18117
826.765	18235
826.904	18152
827.044	17901
827.183	17882
827.323	17832
827.462	17885
827.601	17764
827.741	17828
827.88	17977
828.02	17676
828.159	17771
828.298	17878
828.437	17908
828.577	17783
828.716	18019
828.855	17866
828.994	17718
829.134	17687
829.273	17630
829.412	17539
829.551	17463
829.69	17474
829.829	17558
829.968	17589
830.107	17589
830.246	17608
830.385	17547
830.524	17524
830.663	17440
830.802	17307
830.941	17223
831.08	17223
831.219	17280
831.357	17387
831.496	17322
831.635	17265
831.774	17071
831.913	17124
832.051	16858
832.19	16995
832.329	17067
832.467	16854
832.606	16824
832.744	16923
832.883	16915
833.022	16919
833.16	16896
833.299	16984
833.437	16904
833.576	16873
833.714	16892
833.852	17056
833.991	16892
834.129	16999
834.267	17033
834.406	16915
834.544	16930
834.682	16965
834.821	16946
834.959	17090
835.097	16911
835.235	17109
835.373	16919
835.511	16965
835.65	16854
835.788	16915
835.926	16752
836.064	16653
836.202	16683
836.34	16980
836.478	16892
836.615	16831
836.753	16873
836.891	16934
837.029	16877
837.167	16748
837.305	16744
837.443	16752
837.58	16702
837.718	16797
837.856	16949
837.993	16721
838.131	16820
838.269	16535
838.406	16694
838.544	16630
838.681	16440
838.819	16424
838.956	16276
839.094	16230
839.231	16261
839.369	16409
839.506	16710
839.643	16580
839.781	16322
839.918	16135
840.055	16272
840.193	16284
840.33	16200
840.467	16268
840.604	16329
840.742	16447
840.879	16116
841.016	16116
841.153	16177
841.29	16348
841.427	16360
841.564	16299
841.701	16268
841.838	16253
841.975	16147
842.112	16067
842.249	16097
842.385	16101
842.522	16242
842.659	16166
842.796	16002
842.933	16120
843.069	15968
843.206	16078
843.343	16143
843.479	16071
843.616	16044
843.752	15895
843.889	15846
844.025	15991
844.162	15857
844.298	16002
844.435	15808
844.571	15838
844.708	15907
844.844	15987
844.98	15937
845.117	16021
845.253	15736
845.389	15747
845.525	15915
845.661	15789
845.798	15751
845.934	15873
846.07	15846
846.206	15949
846.342	15934
846.478	15880
846.614	15473
846.75	15424
846.886	15363
847.022	15534
847.158	15458
847.294	15386
847.429	15393
847.565	15340
847.701	15530
847.837	15036
847.972	15176
848.108	15264
848.244	15321
848.379	15047
848.515	15017
848.65	14986
848.786	15024
848.921	14982
849.057	15146
849.192	15188
849.328	15043
849.463	14967
849.598	14952
849.734	14975
849.869	14857
850.004	14762
850.14	14819
850.275	14743
850.41	14716
850.545	14781
850.68	14735
850.815	14781
850.95	14724
851.085	14902
851.22	14842
851.355	14758
851.49	14750
851.625	14788
851.76	14712
851.895	14667
852.03	14678
852.165	14678
852.299	14861
852.434	14804
852.569	14845
852.703	14705
852.838	14826
852.973	14998
853.107	14941
853.242	14819
853.376	14712
853.511	14526
853.645	14621
853.78	14773
853.914	14674
854.048	14552
854.183	14579
854.317	14689
854.451	14743
854.585	14560
854.72	14556
854.854	14731
854.988	14514
855.122	14667
855.256	14476
855.39	14602
855.524	14617
855.658	14686
855.792	14708
855.926	14708
856.06	14663
856.194	14743
856.327	14583
856.461	14587
856.595	14663
856.729	14625
856.862	14750
856.996	14712
857.13	14674
857.263	14769
857.397	14887
857.53	14632
857.664	14640
857.797	14663
857.931	14769
858.064	14674
858.197	14765
858.331	14640
858.464	14644
858.597	14522
858.731	14598
858.864	14693
858.997	14644
859.13	14621
859.263	14659
859.396	14697
859.529	14720
859.662	14651
859.795	14518
859.928	14640
860.061	14807
860.194	14838
860.327	14651
860.46	14625
860.592	14686
860.725	14834
860.858	14746
860.99	14617
861.123	14575
861.256	14583
861.388	14716
861.521	15287
861.653	14541
861.786	14522
861.918	14530
862.05	14484
862.183	14602
862.315	14621
862.447	14651
862.58	14594
862.712	14427
862.844	14309
862.976	14377
863.108	14408
863.24	14819
863.372	14275
863.504	14427
863.636	14434
863.768	14469
863.9	14476
864.032	14336
864.164	14381
864.296	14423
864.428	14514
864.559	14610
864.691	14530
864.823	14431
864.954	14454
865.086	14461
865.217	14427
865.349	14210
865.48	14374
865.612	14438
865.743	14492
865.875	14317
866.006	14377
866.137	14366
866.269	14389
866.4	14412
866.531	14393
866.662	14351
866.793	14298
866.924	14385
867.055	14347
867.186	14305
867.317	14282
867.448	14358
867.579	14252
867.71	14339
867.841	14191
867.972	14366
868.103	14438
868.233	14370
868.364	14332
868.495	14415
868.625	14583
868.756	14598
868.886	14454
869.017	14629
869.147	14762
869.278	14785
869.408	14769
869.539	14636
869.669	14731
869.799	14644
869.929	14796
870.06	14659
870.19	14982
870.32	14975
870.45	14929
870.58	15039
870.71	15169
870.84	15287
870.97	15032
871.1	15055
871.23	15226
871.36	15093
871.489	15135
871.619	15226
871.749	15230
871.879	15321
872.008	15332
872.138	15313
872.267	15180
872.397	15055
872.526	15024
872.656	15051
872.785	15108
872.915	15233
873.044	15252
873.173	15249
873.303	15370
873.432	15264
873.561	15412
873.69	15241
873.819	15218
873.948	15325
874.077	15268
874.206	15230
874.335	15298
874.464	15408
874.593	15606
874.722	15530
874.851	15576
874.979	15679
875.108	15625
875.237	15618
875.365	15595
875.494	15473
875.623	15698
875.751	15599
875.88	15591
876.008	15713
876.136	15812
876.265	15873
876.393	16097
876.521	16040
876.65	16086
876.778	15998
876.906	15865
877.034	15998
877.162	16002
877.29	15899
877.418	15991
877.546	16067
877.674	15983
877.802	15960
877.93	16013
878.058	15998
878.185	15888
878.313	15983
878.441	15949
878.568	15854
878.696	16051
878.824	16055
878.951	16093
879.079	16242
879.206	16341
879.333	16185
879.461	16181
879.588	16261
879.715	16344
879.842	16394
879.97	16242
880.097	15945
880.224	15873
880.351	15915
880.478	15854
880.605	15831
880.732	15880
880.859	16067
880.986	15941
881.112	15835
881.239	15861
881.366	15644
881.493	15458
881.619	15485
881.746	15561
881.872	15481
881.999	15561
882.125	15538
882.252	15633
882.378	15568
882.505	15629
882.631	15405
882.757	15211
882.883	15443
883.01	15329
883.136	15306
883.262	15211
883.388	15230
883.514	15367
883.64	15428
883.766	15321
883.892	15222
884.018	15165
884.143	15291
884.269	15386
884.395	15135
884.52	14971
884.646	15051
884.772	15066
884.897	14998
885.023	15043
885.148	15176
885.274	15195
885.399	15207
885.524	15066
885.65	14994
885.775	15108
885.9	15074
886.025	15222
886.15	15127
886.275	14971
886.4	14941
886.525	14891
886.65	14895
886.775	14929
886.9	15085
887.025	15188
887.149	15074
887.274	14929
887.399	14788
887.523	14902
887.648	14769
887.773	14811
887.897	14876
888.021	14868
888.146	14777
888.27	14918
888.395	14998
888.519	14902
888.643	14918
888.767	14956
888.891	14823
889.015	14731
889.139	14773
889.263	14743
889.387	14792
889.511	14963
889.635	14807
889.759	14708
889.883	14720
890.006	14765
890.13	14731
890.254	14769
890.377	14651
890.501	14526
890.624	14404
890.748	14522
890.871	14438
890.995	14377
891.118	14400
891.241	14396
891.364	14408
891.488	14507
891.611	14347
891.734	14389
891.857	14461
891.98	14415
892.103	14495
892.226	14427
892.349	14370
892.471	14244
892.594	14377
892.717	14412
892.839	14389
892.962	14476
893.085	14446
893.207	14385
893.33	14271
893.452	14412
893.575	14427
893.697	14381
893.819	14625
893.941	14575
894.064	14659
894.186	14339
894.308	14271
894.43	14549
894.552	14579
894.674	14465
894.796	14434
894.918	14400
895.04	14400
895.161	14507
895.283	14438
895.405	14419
895.526	14518
895.648	14442
895.769	14389
895.891	14507
896.012	14598
896.134	14541
896.255	14568
896.376	14526
896.498	14454
896.619	14640
896.74	14606
896.861	14674
896.982	14868
897.103	15001
897.224	14906
897.345	14815
897.466	14762
897.587	14872
897.708	14986
897.828	14857
897.949	14811
898.07	14693
898.19	14857
898.311	14914
898.431	14857
898.552	15017
898.672	14933
898.792	14937
898.913	14910
899.033	14937
899.153	14773
899.273	14617
899.393	14724
899.513	14804
899.633	14701
899.753	14864
899.873	14845
899.993	14773
900.113	14762
900.232	14746
900.352	14769
900.472	14682
900.591	14518
900.711	14644
900.83	14560
900.95	14670
901.069	14701
901.189	14537
901.308	14343
901.427	14286
901.546	14263
901.665	14278
901.784	14374
901.904	14187
902.023	14008
902.141	13871
902.26	13909
902.379	14005
902.498	13833
902.617	13769
902.735	13944
902.854	13803
902.973	13822
903.091	13616
903.21	13529
903.328	13601
903.446	13521
903.565	13434
903.683	13540
903.801	13308
903.919	13411
904.038	13362
904.156	13259
904.274	13327
904.392	13278
904.51	13221
904.627	13206
904.745	13331
904.863	13304
904.981	13057
905.098	12833
905.216	12871
905.334	12962
905.451	12833
905.569	12981
905.686	12993
905.803	12947
905.921	12741
906.038	12867
906.155	12856
906.272	12635
906.389	12563
906.506	12563
906.623	12684
906.74	12483
906.857	12338
906.974	12441
907.091	12574
907.208	12589
907.324	12525
907.441	12441
907.557	12327
907.674	12270
907.79	12167
907.907	12163
908.023	12353
908.139	12228
908.256	12136
908.372	12175
908.488	12083
908.604	12053
908.72	11897
908.836	12064
908.952	11958
909.068	11988
909.184	12060
909.3	12030
909.415	12095
909.531	12053
909.647	11802
909.762	11805
909.878	11775
909.993	11672
910.108	11748
910.224	11741
910.339	11783
910.454	11699
910.57	11649
910.685	11547
910.8	11779
910.915	11737
911.03	11623
911.145	11486
911.259	11440
911.374	11547
911.489	11448
911.604	11315
911.718	11208
911.833	11246
911.947	11094
912.062	11075
912.176	11109
912.291	11201
912.405	11151
912.519	11349
912.633	11398
912.748	11254
912.862	11204
912.976	11048
913.09	10980
913.204	11094
913.318	11178
913.431	11193
913.545	11269
913.659	11147
913.772	11064
913.886	10980
914	11048
914.113	11079
914.226	11033
914.34	11025
914.453	10869
914.566	11003
914.68	10900
914.793	10885
914.906	10740
915.019	10675
915.132	10672
915.245	10679
915.358	10752
915.47	10790
915.583	10763
915.696	10793
915.809	10896
915.921	10847
916.034	10656
916.146	10660
916.259	10691
916.371	10721
916.483	10725
916.595	10637
916.708	10668
916.82	10641
916.932	10637
917.044	10672
917.156	10561
917.268	10550
917.38	10565
917.491	10493
917.603	10512
917.715	10675
917.826	10580
917.938	10580
918.049	10394
918.161	10584
918.272	10672
918.384	10714
918.495	10554
918.606	10443
918.717	10280
918.828	10478
918.939	10436
919.05	10287
919.161	10375
919.272	10120
919.383	10230
919.494	10432
919.604	10592
919.715	10421
919.826	10348
919.936	10394
920.047	10481
920.157	10432
920.267	10694
920.378	10436
920.488	10405
920.598	10607
920.708	10740
920.818	10584
920.928	10622
921.038	10763
921.148	10664
921.258	10424
921.368	10405
921.477	10295
921.587	10238
921.697	10086
921.806	10272
921.916	10207
922.025	9983
922.134	10074
922.244	9926
922.353	10051
922.462	9884
922.571	9812
922.68	9751
922.789	9625
922.898	9660
923.007	9637
923.116	9663
923.224	9603
923.333	9584
923.442	9584
923.55	9545
923.659	9523
923.767	9705
923.876	9534
923.984	9576
924.092	9424
924.201	9572
924.309	9545
924.417	9526
924.525	9504
924.633	9488
924.741	10386
924.849	9214
924.956	9458
925.064	9370
925.172	9146
925.279	9264
925.387	9283
925.494	9370
925.602	9435
925.709	9325
925.816	9275
925.924	9241
926.031	9431
926.138	9336
926.245	9336
926.352	9260
926.459	9336
926.566	9389
926.673	9279
926.779	9100
926.886	9150
926.993	9009
927.099	9001
927.206	8971
927.312	8914
927.419	9123
927.525	8979
927.631	9085
927.737	8918
927.843	8868
927.95	8826
928.056	8956
928.162	8883
928.267	8986
928.373	9603
928.479	9097
928.585	8724
928.69	8929
928.796	8902
928.901	8906
929.007	8701
929.112	8826
929.218	8701
929.323	8731
929.428	8667
929.533	8849
929.638	8629
929.743	8708
929.848	8766
929.953	8720
930.058	8621
930.163	8415
930.267	8507
930.372	8621
930.477	8385
930.581	8682
930.685	8640
930.79	8393
930.894	8427
930.998	8442
931.103	8541
931.207	8229
931.311	8176
931.415	8073
931.519	7925
931.623	7936
