Data from test_V78500241_1115.txt Node
Date: Fri Mar 25 14:41:28 CST 2022
User: usil
Spectrometer: V785-0024
Trigger mode: 0
Integration Time (sec): 4.000000E-1
Scans to average: 1
Nonlinearity correction enabled: false
Boxcar width: 0
Storing dark spectrum: false
XAxis mode: Wavelengths
Number of Pixels in Spectrum: 1024
>>>>>Begin Spectral Data<<<<<
801.071	22672
801.214	22554
801.356	22284
801.499	22257
801.641	22112
801.783	22013
801.926	21968
802.068	21751
802.211	21823
802.353	21747
802.496	21652
802.638	21515
802.78	21488
802.923	21469
803.065	21321
803.208	21294
803.35	21218
803.492	21481
803.635	21519
803.777	21291
803.919	21435
804.061	21732
804.204	21378
804.346	21272
804.488	21161
804.63	21317
804.773	21180
804.915	21150
805.057	21332
805.199	21226
805.341	21245
805.483	21393
805.626	21363
805.768	21260
805.91	21264
806.052	21313
806.194	21252
806.336	21466
806.478	21176
806.62	21329
806.762	21386
806.904	21530
807.046	21747
807.188	21519
807.33	21675
807.472	21709
807.614	21663
807.756	21717
807.898	21652
808.04	21443
808.182	21492
808.324	21618
808.465	21622
808.607	21762
808.749	21975
808.891	22143
809.033	22128
809.174	22074
809.316	21930
809.458	21865
809.6	21808
809.741	21759
809.883	21838
810.025	21960
810.166	21819
810.308	21819
810.45	21812
810.591	21915
810.733	21469
810.875	21549
811.016	21370
811.158	21450
811.299	21526
811.441	21576
811.582	21492
811.724	21397
811.865	21420
812.007	21519
812.148	21424
812.29	21382
812.431	21648
812.573	21819
812.714	21884
812.855	21941
812.997	22078
813.138	22226
813.279	22112
813.421	21937
813.562	21888
813.703	21717
813.845	21557
813.986	21458
814.127	21131
814.268	21165
814.41	21058
814.551	20979
814.692	21024
814.833	20891
814.974	20830
815.115	20994
815.256	20853
815.397	20872
815.539	20967
815.68	20743
815.821	20678
815.962	20743
816.103	20781
816.244	20648
816.385	20446
816.526	20488
816.666	20389
816.807	20191
816.948	20252
817.089	20328
817.23	20351
817.371	20172
817.512	20149
817.653	20180
817.793	20138
817.934	20081
818.075	20065
818.216	20103
818.356	20164
818.497	19970
818.638	19940
818.778	19864
818.919	19750
819.06	19742
819.2	20005
819.341	19928
819.481	20065
819.622	20263
819.762	20343
819.903	20130
820.043	20149
820.184	20161
820.324	20145
820.465	20103
820.605	20164
820.746	20145
820.886	19959
821.026	20138
821.167	20031
821.307	20111
821.447	20001
821.588	19917
821.728	19871
821.868	19693
822.008	19506
822.149	19514
822.289	19487
822.429	19304
822.569	19312
822.709	19232
822.849	19088
822.99	19088
823.13	18973
823.27	19046
823.41	18894
823.55	18810
823.69	18848
823.83	18909
823.97	18681
824.11	18658
824.25	18475
824.389	18623
824.529	18749
824.669	18646
824.809	18779
824.949	18597
825.089	18749
825.228	18498
825.368	18418
825.508	18369
825.648	18483
825.787	18441
825.927	18528
826.067	18372
826.206	18315
826.346	18448
826.485	18448
826.625	18380
826.765	18475
826.904	18407
827.044	18209
827.183	18201
827.323	18129
827.462	18220
827.601	18110
827.741	18064
827.88	18201
828.02	18003
828.159	18140
828.298	18053
828.437	18041
828.577	18045
828.716	18213
828.855	18034
828.994	17874
829.134	17988
829.273	17904
829.412	17794
829.551	17794
829.69	17729
829.829	17904
829.968	17958
830.107	17923
830.246	17927
830.385	17760
830.524	17760
830.663	17649
830.802	17611
830.941	17455
831.08	17539
831.219	17478
831.357	17452
831.496	17695
831.635	17440
831.774	17334
831.913	17368
832.051	17254
832.19	17239
832.329	17341
832.467	17071
832.606	17151
832.744	17189
832.883	17174
833.022	17124
833.16	17060
833.299	17170
833.437	17124
833.576	17315
833.714	17284
833.852	17269
833.991	17277
834.129	17284
834.267	17326
834.406	17216
834.544	17303
834.682	17189
834.821	17197
834.959	17330
835.097	17181
835.235	17311
835.373	17269
835.511	17303
835.65	17045
835.788	17064
835.926	17041
836.064	16889
836.202	16919
836.34	17147
836.478	17197
836.615	17086
836.753	17117
836.891	17204
837.029	17181
837.167	17140
837.305	17075
837.443	17018
837.58	16961
837.718	17109
837.856	16987
837.993	16896
838.131	16900
838.269	16896
838.406	16904
838.544	16812
838.681	16679
838.819	16687
838.956	16618
839.094	16615
839.231	16538
839.369	16656
839.506	16965
839.643	16896
839.781	16497
839.918	16573
840.055	16634
840.193	16417
840.33	16462
840.467	16558
840.604	16493
840.742	16713
840.879	16367
841.016	16489
841.153	16382
841.29	16645
841.427	16481
841.564	16573
841.701	16493
841.838	16523
841.975	16436
842.112	16405
842.249	16318
842.385	16329
842.522	16504
842.659	16348
842.796	16242
842.933	16322
843.069	16226
843.206	16219
843.343	16363
843.479	16367
843.616	16306
843.752	16109
843.889	16059
844.025	16268
844.162	16055
844.298	16181
844.435	16059
844.571	16059
844.708	16173
844.844	16318
844.98	16192
845.117	16287
845.253	16223
845.389	15964
845.525	16128
845.661	16192
845.798	16131
845.934	16238
846.07	16295
846.206	16310
846.342	16352
846.478	16013
846.614	15918
846.75	15625
846.886	15641
847.022	15641
847.158	15656
847.294	15717
847.429	15671
847.565	15656
847.701	15759
847.837	15443
847.972	15389
848.108	15488
848.244	15504
848.379	15310
848.515	15203
848.65	15317
848.786	15367
848.921	15351
849.057	15454
849.192	15473
849.328	15207
849.463	15321
849.598	15233
849.734	15260
849.869	15150
850.004	15055
850.14	15066
850.275	15013
850.41	14971
850.545	14990
850.68	15077
850.815	15097
850.95	15104
851.085	15184
851.22	15112
851.355	15081
851.49	15028
851.625	15081
851.76	14979
851.895	14819
852.03	14849
852.165	15055
852.299	15013
852.434	15169
852.569	15058
852.703	14986
852.838	15058
852.973	15199
853.107	15142
853.242	15024
853.376	14941
853.511	14800
853.645	14834
853.78	15017
853.914	14899
854.048	14998
854.183	14895
854.317	14925
854.451	15074
854.585	14819
854.72	14815
854.854	14921
854.988	14842
855.122	14902
855.256	14845
855.39	14876
855.524	14982
855.658	14975
855.792	14887
855.926	15043
856.06	15005
856.194	15058
856.327	15020
856.461	14849
856.595	14800
856.729	14861
856.862	14963
856.996	15013
857.13	14956
857.263	15028
857.397	15017
857.53	14853
857.664	15024
857.797	14994
857.931	15093
858.064	14963
858.197	15024
858.331	14925
858.464	15020
858.597	14769
858.731	14914
858.864	14811
858.997	14804
859.13	15005
859.263	15001
859.396	15112
859.529	14880
859.662	14792
859.795	14857
859.928	14857
860.061	15024
860.194	15036
860.327	14899
860.46	14781
860.592	14994
860.725	15093
860.858	15039
860.99	14925
861.123	14925
861.256	14788
861.388	14899
861.521	15591
861.653	14648
861.786	14716
861.918	14781
862.05	14815
862.183	14849
862.315	14925
862.447	14910
862.58	14872
862.712	14678
862.844	14697
862.976	14724
863.108	14697
863.24	15119
863.372	14617
863.504	14648
863.636	14651
863.768	14670
863.9	14682
864.032	14613
864.164	14670
864.296	14598
864.428	14872
864.559	14758
864.691	14792
864.823	14693
864.954	14712
865.086	14667
865.217	14716
865.349	14552
865.48	14804
865.612	14648
865.743	14769
865.875	14777
866.006	14594
866.137	14632
866.269	14632
866.4	14621
866.531	14590
866.662	14454
866.793	14590
866.924	14575
867.055	14651
867.186	14663
867.317	14590
867.448	14568
867.579	14522
867.71	14541
867.841	14404
867.972	14693
868.103	14697
868.233	14598
868.364	14689
868.495	14670
868.625	14777
868.756	15017
868.886	14823
869.017	14914
869.147	14986
869.278	14990
869.408	14925
869.539	14937
869.669	15013
869.799	14967
869.929	15077
870.06	15009
870.19	15207
870.32	15302
870.45	15291
870.58	15351
870.71	15355
870.84	15408
870.97	15325
871.1	15188
871.23	15462
871.36	15473
871.489	15291
871.619	15507
871.749	15496
871.879	15507
872.008	15507
872.138	15481
872.267	15424
872.397	15374
872.526	15279
872.656	15317
872.785	15344
872.915	15511
873.044	15469
873.173	15568
873.303	15595
873.432	15530
873.561	15603
873.69	15397
873.819	15538
873.948	15595
874.077	15477
874.206	15526
874.335	15549
874.464	15694
874.593	15884
874.722	15797
874.851	15842
874.979	15903
875.108	15884
875.237	15781
875.365	15823
875.494	15838
875.623	15994
875.751	15739
875.88	15876
876.008	15949
876.136	16059
876.265	16207
876.393	16440
876.521	16291
876.65	16230
876.778	16249
876.906	16109
877.034	16207
877.162	16314
877.29	16150
877.418	16265
877.546	16459
877.674	16246
877.802	16287
877.93	16211
878.058	16280
878.185	16181
878.313	16238
878.441	16280
878.568	16116
878.696	16223
878.824	16344
878.951	16417
879.079	16561
879.206	16679
879.333	16592
879.461	16561
879.588	16497
879.715	16748
879.842	16729
879.97	16436
880.097	16272
880.224	16196
880.351	16226
880.478	16226
880.605	16040
880.732	16200
880.859	16295
880.986	16158
881.112	16310
881.239	16044
881.366	15922
881.493	15812
881.619	15709
881.746	15823
881.872	15838
881.999	15755
882.125	15812
882.252	15876
882.378	15797
882.505	15956
882.631	15698
882.757	15667
882.883	15774
883.01	15633
883.136	15568
883.262	15534
883.388	15454
883.514	15614
883.64	15629
883.766	15511
883.892	15420
884.018	15530
884.143	15595
884.269	15781
884.395	15359
884.52	15351
884.646	15325
884.772	15237
884.897	15218
885.023	15355
885.148	15397
885.274	15405
885.399	15473
885.524	15291
885.65	15260
885.775	15310
885.9	15283
886.025	15477
886.15	15317
886.275	15374
886.4	15138
886.525	15287
886.65	15214
886.775	15195
886.9	15363
887.025	15580
887.149	15283
887.274	15203
887.399	15138
887.523	15074
887.648	14921
887.773	15051
887.897	15237
888.021	15237
888.146	14979
888.27	15127
888.395	15142
888.519	15154
888.643	15195
888.767	15104
888.891	14982
889.015	14883
889.139	14979
889.263	14899
889.387	14956
889.511	15192
889.635	15100
889.759	14998
889.883	14956
890.006	15001
890.13	14921
890.254	14883
890.377	14971
890.501	14659
890.624	14800
890.748	14826
890.871	14670
890.995	14541
891.118	14503
891.241	14560
891.364	14689
891.488	14788
891.611	14575
891.734	14739
891.857	14781
891.98	14670
892.103	14693
892.226	14613
892.349	14568
892.471	14560
892.594	14590
892.717	14644
892.839	14640
892.962	14644
893.085	14674
893.207	14613
893.33	14442
893.452	14568
893.575	14659
893.697	14762
893.819	14781
893.941	14937
894.064	14720
894.186	14644
894.308	14594
894.43	14750
894.552	14834
894.674	14765
894.796	14488
894.918	14674
895.04	14674
895.161	14682
895.283	14769
895.405	14613
895.526	14697
895.648	14727
895.769	14785
895.891	14815
896.012	14754
896.134	14967
896.255	14811
896.376	14842
896.498	14788
896.619	14754
896.74	14868
896.861	14872
896.982	15097
897.103	15195
897.224	15169
897.345	14998
897.466	14937
897.587	15028
897.708	15104
897.828	15112
897.949	14876
898.07	14914
898.19	15017
898.311	15142
898.431	14994
898.552	15135
898.672	15214
898.792	15214
898.913	15176
899.033	15009
899.153	15009
899.273	14777
899.393	14941
899.513	15043
899.633	15055
899.753	15055
899.873	14948
899.993	14998
900.113	14895
900.232	15001
900.352	14944
900.472	14902
900.591	14811
900.711	14746
900.83	14750
900.95	14925
901.069	14792
901.189	14746
901.308	14461
901.427	14419
901.546	14507
901.665	14488
901.784	14541
901.904	14336
902.023	14259
902.141	14073
902.26	14119
902.379	14172
902.498	14005
902.617	14031
902.735	14031
902.854	14077
902.973	14039
903.091	13845
903.21	13765
903.328	13807
903.446	13689
903.565	13571
903.683	13613
903.801	13514
903.919	13586
904.038	13616
904.156	13365
904.274	13525
904.392	13438
904.51	13369
904.627	13350
904.745	13438
904.863	13525
904.981	13171
905.098	13122
905.216	13141
905.334	13160
905.451	13118
905.569	13080
905.686	13156
905.803	13126
905.921	12973
906.038	13042
906.155	12886
906.272	12928
906.389	12840
906.506	12734
906.623	12711
906.74	12730
906.857	12635
906.974	12616
907.091	12783
907.208	12837
907.324	12772
907.441	12559
907.557	12475
907.674	12418
907.79	12418
907.907	12441
908.023	12422
908.139	12479
908.256	12353
908.372	12308
908.488	12323
908.604	12247
908.72	12144
908.836	12167
908.952	12091
909.068	12194
909.184	12194
909.3	12239
909.415	12243
909.531	12167
909.647	12011
909.762	12003
909.878	12045
909.993	11946
910.108	11958
910.224	11863
910.339	11996
910.454	11866
910.57	11745
910.685	11714
910.8	11954
910.915	11908
911.03	11889
911.145	11741
911.259	11657
911.374	11653
911.489	11566
911.604	11570
911.718	11345
911.833	11376
911.947	11315
912.062	11273
912.176	11368
912.291	11398
912.405	11372
912.519	11535
912.633	11604
912.748	11448
912.862	11368
912.976	11216
913.09	11193
913.204	11303
913.318	11269
913.431	11372
913.545	11474
913.659	11376
913.772	11307
913.886	11216
914	11197
914.113	11170
914.226	11227
914.34	11227
914.453	11079
914.566	11246
914.68	11090
914.793	11083
914.906	10915
915.019	10847
915.132	10801
915.245	10919
915.358	10854
915.47	10862
915.583	10892
915.696	10839
915.809	10999
915.921	10999
916.034	10877
916.146	10854
916.259	10839
916.371	10949
916.483	10900
916.595	10740
916.708	10839
916.82	10869
916.932	10820
917.044	10831
917.156	10786
917.268	10740
917.38	10755
917.491	10748
917.603	10748
917.715	10805
917.826	10812
917.938	10660
918.049	10656
918.161	10714
918.272	10873
918.384	10839
918.495	10683
918.606	10668
918.717	10523
918.828	10580
918.939	10660
919.05	10474
919.161	10630
919.272	10367
919.383	10470
919.494	10687
919.604	10790
919.715	10531
919.826	10508
919.936	10550
920.047	10653
920.157	10596
920.267	10729
920.378	10660
920.488	10637
920.598	10793
920.708	11018
920.818	10824
920.928	10831
921.038	10995
921.148	10866
921.258	10588
921.368	10436
921.477	10478
921.587	10424
921.697	10375
921.806	10470
921.916	10329
922.025	10166
922.134	10116
922.244	10055
922.353	10253
922.462	10010
922.571	9960
922.68	9857
922.789	9819
922.898	9770
923.007	9800
923.116	9899
923.224	9759
923.333	9812
923.442	9728
923.55	9724
923.659	9770
923.767	9812
923.876	9591
923.984	9808
924.092	9568
924.201	9698
924.309	9682
924.417	9652
924.525	9591
924.633	9625
924.741	10394
924.849	9439
924.956	9641
925.064	9500
925.172	9370
925.279	9412
925.387	9496
925.494	9431
925.602	9545
925.709	9447
925.816	9363
925.924	9507
926.031	9568
926.138	9473
926.245	9515
926.352	9439
926.459	9473
926.566	9587
926.673	9462
926.779	9264
926.886	9275
926.993	9199
927.099	9192
927.206	9070
927.312	9176
927.419	9214
927.525	9157
927.631	9287
927.737	9119
927.843	9062
927.95	8895
928.056	9081
928.162	9097
928.267	9062
928.373	9644
928.479	9180
928.585	8933
928.69	9081
928.796	9081
928.901	8944
929.007	8807
929.112	9001
929.218	8963
929.323	8819
929.428	8864
929.533	8982
929.638	8823
929.743	8899
929.848	8891
929.953	8861
930.058	8781
930.163	8659
930.267	8655
930.372	8796
930.477	8598
930.581	8838
930.685	8735
930.79	8606
930.894	8617
930.998	8617
931.103	8682
931.207	8419
931.311	8309
931.415	8336
931.519	8084
931.623	8058
