Data from test_V78500241_2186.txt Node
Date: Fri Mar 25 14:48:56 CST 2022
User: usil
Spectrometer: V785-0024
Trigger mode: 0
Integration Time (sec): 4.000000E-1
Scans to average: 1
Nonlinearity correction enabled: false
Boxcar width: 0
Storing dark spectrum: false
XAxis mode: Wavelengths
Number of Pixels in Spectrum: 1024
>>>>>Begin Spectral Data<<<<<
801.071	22158
801.214	22063
801.356	21865
801.499	21701
801.641	21530
801.783	21523
801.926	21534
802.068	21359
802.211	21329
802.353	21241
802.496	21157
802.638	21013
802.78	20933
802.923	20910
803.065	20762
803.208	20731
803.35	20758
803.492	20937
803.635	20876
803.777	20826
803.919	20944
804.061	21222
804.204	20902
804.346	20857
804.488	20804
804.63	20815
804.773	20807
804.915	20792
805.057	20880
805.199	20648
805.341	20807
805.483	20872
805.626	20902
805.768	20693
805.91	20773
806.052	20792
806.194	20583
806.336	20830
806.478	20845
806.62	20834
806.762	20792
806.904	21020
807.046	21138
807.188	21108
807.33	21180
807.472	21089
807.614	21020
807.756	20910
807.898	20929
808.04	20754
808.182	20781
808.324	20880
808.465	20906
808.607	21081
808.749	21199
808.891	21268
809.033	21173
809.174	21150
809.316	21123
809.458	21058
809.6	21157
809.741	21214
809.883	21291
810.025	21386
810.166	21408
810.308	21256
810.45	21154
810.591	21157
810.733	21081
810.875	20952
811.016	20838
811.158	20796
811.299	20944
811.441	21119
811.582	20986
811.724	20952
811.865	20815
812.007	20906
812.148	20899
812.29	20956
812.431	21085
812.573	21184
812.714	21302
812.855	21439
812.997	21500
813.138	21587
813.279	21663
813.421	21450
813.562	21412
813.703	21161
813.845	21017
813.986	20796
814.127	20670
814.268	20613
814.41	20484
814.551	20533
814.692	20495
814.833	20438
814.974	20355
815.115	20362
815.256	20408
815.397	20157
815.539	20332
815.68	20210
815.821	20271
815.962	20195
816.103	20062
816.244	20050
816.385	20050
816.526	19887
816.666	19594
816.807	19624
816.948	19685
817.089	19685
817.23	19693
817.371	19613
817.512	19590
817.653	19575
817.793	19483
817.934	19556
818.075	19635
818.216	19628
818.356	19495
818.497	19426
818.638	19251
818.778	19225
818.919	19263
819.06	19244
819.2	19362
819.341	19426
819.481	19521
819.622	19620
819.762	19738
819.903	19765
820.043	19639
820.184	19415
820.324	19582
820.465	19616
820.605	19578
820.746	19556
820.886	19445
821.026	19563
821.167	19518
821.307	19635
821.447	19563
821.588	19373
821.728	19282
821.868	19065
822.008	19038
822.149	19088
822.289	18996
822.429	18741
822.569	18646
822.709	18669
822.849	18490
822.99	18410
823.13	18452
823.27	18490
823.41	18216
823.55	18216
823.69	18300
823.83	18213
823.97	18194
824.11	18117
824.25	18049
824.389	18015
824.529	18125
824.669	18053
824.809	18064
824.949	18068
825.089	17988
825.228	17996
825.368	17802
825.508	17878
825.648	17775
825.787	17920
825.927	17859
826.067	17703
826.206	17718
826.346	17851
826.485	17920
826.625	17775
826.765	17973
826.904	17893
827.044	17680
827.183	17562
827.323	17547
827.462	17543
827.601	17554
827.741	17558
827.88	17581
828.02	17353
828.159	17551
828.298	17627
828.437	17600
828.577	17482
828.716	17665
828.855	17490
828.994	17197
829.134	17280
829.273	17246
829.412	17254
829.551	17143
829.69	17277
829.829	17349
829.968	17376
830.107	17368
830.246	17277
830.385	17315
830.524	17162
830.663	17079
830.802	17086
830.941	16889
831.08	16873
831.219	16968
831.357	16965
831.496	17086
831.635	16892
831.774	16763
831.913	16706
832.051	16687
832.19	16660
832.329	16900
832.467	16558
832.606	16558
832.744	16668
832.883	16622
833.022	16634
833.16	16637
833.299	16664
833.437	16679
833.576	16618
833.714	16729
833.852	16767
833.991	16771
834.129	16816
834.267	16679
834.406	16656
834.544	16790
834.682	16679
834.821	16672
834.959	16767
835.097	16523
835.235	16782
835.373	16679
835.511	16831
835.65	16561
835.788	16656
835.926	16432
836.064	16322
836.202	16409
836.34	16592
836.478	16584
836.615	16470
836.753	16523
836.891	16683
837.029	16630
837.167	16558
837.305	16379
837.443	16516
837.58	16417
837.718	16538
837.856	16352
837.993	16314
838.131	16466
838.269	16284
838.406	16398
838.544	16409
838.681	16139
838.819	16093
838.956	15979
839.094	15956
839.231	15930
839.369	16082
839.506	16322
839.643	16215
839.781	15964
839.918	15953
840.055	16010
840.193	15949
840.33	15911
840.467	15956
840.604	15964
840.742	16219
840.879	15797
841.016	15949
841.153	15861
841.29	15991
841.427	15922
841.564	15911
841.701	15964
841.838	15869
841.975	15812
842.112	15926
842.249	15717
842.385	15747
842.522	15945
842.659	15736
842.796	15747
842.933	15698
843.069	15728
843.206	15660
843.343	15793
843.479	15762
843.616	15739
843.752	15523
843.889	15538
844.025	15656
844.162	15523
844.298	15648
844.435	15496
844.571	15454
844.708	15580
844.844	15743
844.98	15622
845.117	15625
845.253	15595
845.389	15378
845.525	15401
845.661	15370
845.798	15336
845.934	15412
846.07	15306
846.206	15367
846.342	15462
846.478	15279
846.614	15119
846.75	14960
846.886	15112
847.022	15176
847.158	15127
847.294	15055
847.429	15119
847.565	15135
847.701	15298
847.837	14849
847.972	14876
848.108	14960
848.244	14876
848.379	14739
848.515	14663
848.65	14708
848.786	14762
848.921	14674
849.057	14804
849.192	14880
849.328	14731
849.463	14678
849.598	14625
849.734	14556
849.869	14518
850.004	14503
850.14	14564
850.275	14393
850.41	14461
850.545	14381
850.68	14484
850.815	14518
850.95	14419
851.085	14674
851.22	14568
851.355	14575
851.49	14389
851.625	14454
851.76	14442
851.895	14278
852.03	14336
852.165	14484
852.299	14473
852.434	14465
852.569	14545
852.703	14469
852.838	14526
852.973	14659
853.107	14583
853.242	14400
853.376	14298
853.511	14244
853.645	14343
853.78	14438
853.914	14336
854.048	14320
854.183	14240
854.317	14370
854.451	14488
854.585	14362
854.72	14313
854.854	14434
854.988	14233
855.122	14271
855.256	14145
855.39	14332
855.524	14442
855.658	14427
855.792	14313
855.926	14419
856.06	14370
856.194	14518
856.327	14320
856.461	14347
856.595	14294
856.729	14351
856.862	14412
856.996	14351
857.13	14374
857.263	14507
857.397	14427
857.53	14317
857.664	14351
857.797	14400
857.931	14381
858.064	14370
858.197	14415
858.331	14366
858.464	14347
858.597	14202
858.731	14347
858.864	14339
858.997	14301
859.13	14355
859.263	14385
859.396	14434
859.529	14377
859.662	14355
859.795	14275
859.928	14244
860.061	14537
860.194	14507
860.327	14301
860.46	14343
860.592	14526
860.725	14484
860.858	14415
860.99	14324
861.123	14195
861.256	14218
861.388	14286
861.521	14883
861.653	14263
861.786	14218
861.918	14248
862.05	14145
862.183	14275
862.315	14271
862.447	14347
862.58	14267
862.712	14130
862.844	13989
862.976	14130
863.108	14142
863.24	14434
863.372	14016
863.504	14107
863.636	14107
863.768	14195
863.9	14081
864.032	13974
864.164	14069
864.296	14172
864.428	14210
864.559	14191
864.691	14229
864.823	14157
864.954	14142
865.086	14130
865.217	14069
865.349	14050
865.48	14012
865.612	14145
865.743	14218
865.875	14180
866.006	14054
866.137	13917
866.269	14172
866.4	14126
866.531	13982
866.662	14088
866.793	14054
866.924	14024
867.055	14149
867.186	14001
867.317	14054
867.448	13967
867.579	14123
867.71	14054
867.841	13993
867.972	14031
868.103	14088
868.233	14130
868.364	14012
868.495	14168
868.625	14313
868.756	14400
868.886	14301
869.017	14320
869.147	14412
869.278	14507
869.408	14454
869.539	14278
869.669	14347
869.799	14362
869.929	14461
870.06	14492
870.19	14712
870.32	14571
870.45	14610
870.58	14625
870.71	14796
870.84	14933
870.97	14739
871.1	14735
871.23	14842
871.36	14929
871.489	14819
871.619	14895
871.749	14883
871.879	14921
872.008	14994
872.138	15070
872.267	14895
872.397	14754
872.526	14655
872.656	14739
872.785	14861
872.915	14979
873.044	14960
873.173	15100
873.303	14944
873.432	14941
873.561	15066
873.69	15047
873.819	14994
873.948	15013
874.077	15005
874.206	14975
874.335	14956
874.464	15100
874.593	15264
874.722	15173
874.851	15313
874.979	15317
875.108	15386
875.237	15268
875.365	15222
875.494	15245
875.623	15363
875.751	15245
875.88	15363
876.008	15447
876.136	15496
876.265	15759
876.393	15846
876.521	15755
876.65	15800
876.778	15717
876.906	15603
877.034	15633
877.162	15629
877.29	15698
877.418	15682
877.546	15648
877.674	15698
877.802	15694
877.93	15747
878.058	15637
878.185	15606
878.313	15641
878.441	15781
878.568	15507
878.696	15720
878.824	15660
878.951	15842
879.079	15804
879.206	15953
879.333	15899
879.461	15781
879.588	15827
879.715	15930
879.842	16044
879.97	15774
880.097	15553
880.224	15557
880.351	15606
880.478	15610
880.605	15416
880.732	15530
880.859	15819
880.986	15686
881.112	15599
881.239	15332
881.366	15306
881.493	15302
881.619	15249
881.746	15173
881.872	15184
881.999	15154
882.125	15233
882.252	15241
882.378	15176
882.505	15424
882.631	15218
882.757	15024
882.883	15169
883.01	15119
883.136	14891
883.262	14914
883.388	14826
883.514	15055
883.64	15062
883.766	15047
883.892	14777
884.018	14948
884.143	15043
884.269	15150
884.395	14819
884.52	14686
884.646	14731
884.772	14678
884.897	14598
885.023	14670
885.148	14834
885.274	14823
885.399	14960
885.524	14739
885.65	14758
885.775	14708
885.9	14689
886.025	14796
886.15	14918
886.275	14754
886.4	14644
886.525	14785
886.65	14705
886.775	14640
886.9	14834
887.025	15032
887.149	14746
887.274	14549
887.399	14484
887.523	14522
887.648	14480
887.773	14427
887.897	14625
888.021	14598
888.146	14533
888.27	14636
888.395	14674
888.519	14602
888.643	14682
888.767	14670
888.891	14537
889.015	14431
889.139	14431
889.263	14408
889.387	14480
889.511	14632
889.635	14537
889.759	14408
889.883	14431
890.006	14484
890.13	14556
890.254	14442
890.377	14317
890.501	14199
890.624	14229
890.748	14328
890.871	14202
890.995	13993
891.118	14050
891.241	14103
891.364	14168
891.488	14233
891.611	14126
891.734	14107
891.857	14092
891.98	14145
892.103	14096
892.226	14199
892.349	14096
892.471	13993
892.594	14050
892.717	14191
892.839	14077
892.962	14195
893.085	14210
893.207	14039
893.33	13986
893.452	13970
893.575	14221
893.697	14035
893.819	14214
893.941	14328
894.064	14282
894.186	14153
894.308	14046
894.43	14252
894.552	14389
894.674	14237
894.796	14081
894.918	14248
895.04	14176
895.161	14286
895.283	14214
895.405	14157
895.526	14153
895.648	14301
895.769	14233
895.891	14313
896.012	14305
896.134	14317
896.255	14233
896.376	14229
896.498	14366
896.619	14317
896.74	14313
896.861	14328
896.982	14640
897.103	14796
897.224	14636
897.345	14438
897.466	14313
897.587	14560
897.708	14670
897.828	14708
897.949	14533
898.07	14412
898.19	14450
898.311	14754
898.431	14526
898.552	14606
898.672	14682
898.792	14781
898.913	14739
899.033	14598
899.153	14568
899.273	14438
899.393	14511
899.513	14476
899.633	14499
899.753	14541
899.873	14419
899.993	14568
900.113	14377
900.232	14454
900.352	14541
900.472	14415
900.591	14237
900.711	14393
900.83	14309
900.95	14564
901.069	14465
901.189	14358
901.308	14020
901.427	13955
901.546	14077
901.665	14077
901.784	14077
901.904	13795
902.023	13841
902.141	13658
902.26	13632
902.379	13685
902.498	13586
902.617	13578
902.735	13563
902.854	13643
902.973	13491
903.091	13320
903.21	13304
903.328	13346
903.446	13221
903.565	13187
903.683	13297
903.801	13183
903.919	13209
904.038	13156
904.156	12985
904.274	13038
904.392	12939
904.51	12993
904.627	12970
904.745	13069
904.863	12996
904.981	12829
905.098	12760
905.216	12662
905.334	12760
905.451	12646
905.569	12650
905.686	12669
905.803	12642
905.921	12517
906.038	12627
906.155	12464
906.272	12517
906.389	12418
906.506	12327
906.623	12334
906.74	12190
906.857	12136
906.974	12243
907.091	12384
907.208	12475
907.324	12338
907.441	12197
907.557	12030
907.674	12038
907.79	12007
907.907	12049
908.023	12087
908.139	12003
908.256	12019
908.372	11996
908.488	11908
908.604	11767
908.72	11821
908.836	11794
908.952	11760
909.068	11790
909.184	11893
909.3	11851
909.415	11847
909.531	11859
909.647	11558
909.762	11699
909.878	11573
909.993	11649
910.108	11608
910.224	11562
910.339	11551
910.454	11455
910.57	11463
910.685	11406
910.8	11638
910.915	11592
911.03	11444
911.145	11356
911.259	11334
911.374	11258
911.489	11197
911.604	11204
911.718	11014
911.833	11109
911.947	10930
912.062	10915
912.176	11037
912.291	11014
912.405	11090
912.519	11303
912.633	11246
912.748	11121
912.862	11143
912.976	10968
913.09	10801
913.204	10892
913.318	10801
913.431	11048
913.545	10991
913.659	11033
913.772	10850
913.886	10816
914	10824
914.113	10881
914.226	10957
914.34	10843
914.453	10683
914.566	10854
914.68	10763
914.793	10691
914.906	10535
915.019	10584
915.132	10466
915.245	10531
915.358	10542
915.47	10531
915.583	10554
915.696	10550
915.809	10645
915.921	10706
916.034	10546
916.146	10462
916.259	10470
916.371	10599
916.483	10550
916.595	10443
916.708	10451
916.82	10333
916.932	10447
917.044	10405
917.156	10478
917.268	10276
917.38	10352
917.491	10325
917.603	10474
917.715	10523
917.826	10558
917.938	10390
918.049	10272
918.161	10360
918.272	10474
918.384	10504
918.495	10379
918.606	10249
918.717	10120
918.828	10291
918.939	10234
919.05	10109
919.161	10253
919.272	10162
919.383	10128
919.494	10249
919.604	10443
919.715	10348
919.826	10181
919.936	10261
920.047	10341
920.157	10295
920.267	10497
920.378	10246
920.488	10390
920.598	10462
920.708	10660
920.818	10436
920.928	10523
921.038	10653
921.148	10531
921.258	10253
921.368	10207
921.477	10090
921.587	10131
921.697	9987
921.806	10120
921.916	9987
922.025	9865
922.134	9827
922.244	9778
922.353	9865
922.462	9660
922.571	9660
922.68	9572
922.789	9477
922.898	9507
923.007	9462
923.116	9553
923.224	9473
923.333	9561
923.442	9397
923.55	9374
923.659	9374
923.767	9458
923.876	9374
923.984	9443
924.092	9291
924.201	9298
924.309	9355
924.417	9405
924.525	9359
924.633	9291
924.741	10109
924.849	9188
924.956	9306
925.064	9157
925.172	9135
925.279	9074
925.387	9214
925.494	9188
925.602	9302
925.709	9230
925.816	9127
925.924	9199
926.031	9272
926.138	9142
926.245	9294
926.352	9112
926.459	9233
926.566	9294
926.673	9108
926.779	9047
926.886	9032
926.993	8883
927.099	8826
927.206	8880
927.312	8842
927.419	8941
927.525	8838
927.631	8933
927.737	8800
927.843	8781
927.95	8667
928.056	8785
928.162	8769
928.267	8819
928.373	9408
928.479	8883
928.585	8640
928.69	8746
928.796	8823
928.901	8670
929.007	8587
929.112	8731
929.218	8636
929.323	8629
929.428	8617
929.533	8667
929.638	8522
929.743	8613
929.848	8530
929.953	8564
930.058	8488
930.163	8336
930.267	8317
930.372	8488
930.477	8385
930.581	8610
930.685	8461
930.79	8317
930.894	8343
930.998	8290
931.103	8465
931.207	8145
931.311	8088
931.415	8005
931.519	7852
931.623	7822
