Data from test_V78500241_382.txt Node
Date: Fri Mar 25 14:36:22 CST 2022
User: usil
Spectrometer: V785-0024
Trigger mode: 0
Integration Time (sec): 4.000000E-1
Scans to average: 1
Nonlinearity correction enabled: false
Boxcar width: 0
Storing dark spectrum: false
XAxis mode: Wavelengths
Number of Pixels in Spectrum: 1024
>>>>>Begin Spectral Data<<<<<
801.071	26727
801.214	26796
801.356	26495
801.499	26446
801.641	26404
801.783	26256
801.926	26240
802.068	26096
802.211	26206
802.353	26024
802.496	25818
802.638	25795
802.78	25795
802.923	25719
803.065	25628
803.208	25662
803.35	25837
803.492	25727
803.635	25887
803.777	25616
803.919	25830
804.061	25997
804.204	25868
804.346	25685
804.488	25727
804.63	25693
804.773	25525
804.915	25830
805.057	25928
805.199	25723
805.341	25742
805.483	25719
805.626	25731
805.768	25685
805.91	25727
806.052	25811
806.194	25677
806.336	25822
806.478	25750
806.62	25666
806.762	25955
806.904	26012
807.046	26225
807.188	26100
807.33	26157
807.472	26065
807.614	26031
807.756	26065
807.898	25993
808.04	25852
808.182	25868
808.324	25970
808.465	25928
808.607	26199
808.749	26126
808.891	26438
809.033	26442
809.174	26343
809.316	26252
809.458	26122
809.6	26138
809.741	26229
809.883	26240
810.025	26419
810.166	26374
810.308	26450
810.45	26343
810.591	26366
810.733	26313
810.875	26027
811.016	26058
811.158	26031
811.299	26088
811.441	26191
811.582	26149
811.724	26024
811.865	25997
812.007	26115
812.148	26096
812.29	26100
812.431	26199
812.573	26362
812.714	26305
812.855	26609
812.997	26522
813.138	26823
813.279	26613
813.421	26636
813.562	26617
813.703	26446
813.845	26343
813.986	25871
814.127	25894
814.268	25635
814.41	25658
814.551	25586
814.692	25791
814.833	25483
814.974	25651
815.115	25567
815.256	25449
815.397	25472
815.539	25548
815.68	25289
815.821	25232
815.962	25331
816.103	25285
816.244	25156
816.385	25164
816.526	25179
816.666	24871
816.807	24833
816.948	25053
817.089	24909
817.23	24810
817.371	24829
817.512	24833
817.653	24757
817.793	24688
817.934	24700
818.075	24814
818.216	24772
818.356	24627
818.497	24700
818.638	24365
818.778	24490
818.919	24350
819.06	24551
819.2	24597
819.341	24620
819.481	24654
819.622	24886
819.762	24920
819.903	24764
820.043	24829
820.184	24920
820.324	24661
820.465	24734
820.605	24890
820.746	24722
820.886	24566
821.026	24749
821.167	24555
821.307	24768
821.447	24380
821.588	24517
821.728	24334
821.868	24239
822.008	23999
822.149	24110
822.289	24076
822.429	23889
822.569	23745
822.709	23802
822.849	23691
822.99	23638
823.13	23471
823.27	23501
823.41	23231
823.55	23235
823.69	23227
823.83	23334
823.97	23155
824.11	23090
824.25	23003
824.389	23124
824.529	23174
824.669	23193
824.809	23060
824.949	23083
825.089	23197
825.228	23105
825.368	22934
825.508	22908
825.648	22892
825.787	22991
825.927	22968
826.067	22904
826.206	22793
826.346	22847
826.485	22793
826.625	22869
826.765	22896
826.904	22919
827.044	22660
827.183	22660
827.323	22611
827.462	22557
827.601	22470
827.741	22348
827.88	22519
828.02	22462
828.159	22516
828.298	22402
828.437	22656
828.577	22424
828.716	22626
828.855	22367
828.994	22238
829.134	22333
829.273	22348
829.412	22166
829.551	22211
829.69	22226
829.829	22207
829.968	22242
830.107	22348
830.246	22299
830.385	22120
830.524	22025
830.663	22006
830.802	21983
830.941	21793
831.08	21857
831.219	21823
831.357	21827
831.496	22006
831.635	21888
831.774	21663
831.913	21690
832.051	21557
832.19	21595
832.329	21743
832.467	21431
832.606	21405
832.744	21447
832.883	21458
833.022	21488
833.16	21454
833.299	21473
833.437	21450
833.576	21530
833.714	21549
833.852	21530
833.991	21637
834.129	21595
834.267	21660
834.406	21549
834.544	21564
834.682	21454
834.821	21389
834.959	21629
835.097	21370
835.235	21583
835.373	21462
835.511	21439
835.65	21325
835.788	21386
835.926	21028
836.064	21207
836.202	21192
836.34	21336
836.478	21458
836.615	21336
836.753	21397
836.891	21378
837.029	21310
837.167	21329
837.305	21169
837.443	21096
837.58	21195
837.718	21401
837.856	21211
837.993	21085
838.131	21176
838.269	21001
838.406	21112
838.544	20910
838.681	20796
838.819	20819
838.956	20667
839.094	20689
839.231	20651
839.369	20887
839.506	20914
839.643	20834
839.781	20625
839.918	20457
840.055	20545
840.193	20522
840.33	20526
840.467	20598
840.604	20644
840.742	20826
840.879	20377
841.016	20495
841.153	20423
841.29	20632
841.427	20503
841.564	20442
841.701	20526
841.838	20366
841.975	20309
842.112	20492
842.249	20282
842.385	20161
842.522	20419
842.659	20366
842.796	20244
842.933	20237
843.069	20275
843.206	20180
843.343	20332
843.479	20202
843.616	20237
843.752	19947
843.889	19997
844.025	20164
844.162	19997
844.298	20062
844.435	19982
844.571	20016
844.708	20081
844.844	20115
844.98	20229
845.117	20096
845.253	20008
845.389	19955
845.525	20012
845.661	19860
845.798	19849
845.934	19856
846.07	19860
846.206	19883
846.342	19978
846.478	19765
846.614	19567
846.75	19434
846.886	19457
847.022	19491
847.158	19487
847.294	19468
847.429	19457
847.565	19464
847.701	19723
847.837	19251
847.972	19126
848.108	19324
848.244	19187
848.379	19084
848.515	18966
848.65	18970
848.786	18951
848.921	19046
849.057	19107
849.192	19031
849.328	19023
849.463	18920
849.598	18935
849.734	18909
849.869	18977
850.004	18738
850.14	18684
850.275	18719
850.41	18757
850.545	18745
850.68	18935
850.815	18825
850.95	18802
851.085	18924
851.22	18760
851.355	18734
851.49	18719
851.625	18760
851.76	18673
851.895	18639
852.03	18578
852.165	18738
852.299	18730
852.434	18878
852.569	18760
852.703	18734
852.838	18890
852.973	18954
853.107	18795
853.242	18688
853.376	18612
853.511	18475
853.645	18673
853.78	18635
853.914	18601
854.048	18551
854.183	18475
854.317	18574
854.451	18760
854.585	18589
854.72	18551
854.854	18585
854.988	18426
855.122	18601
855.256	18555
855.39	18597
855.524	18555
855.658	18555
855.792	18570
855.926	18627
856.06	18635
856.194	18631
856.327	18509
856.461	18388
856.595	18536
856.729	18509
856.862	18677
856.996	18555
857.13	18555
857.263	18642
857.397	18601
857.53	18627
857.664	18593
857.797	18707
857.931	18608
858.064	18597
858.197	18658
858.331	18540
858.464	18536
858.597	18429
858.731	18616
858.864	18574
858.997	18490
859.13	18540
859.263	18570
859.396	18532
859.529	18502
859.662	18433
859.795	18376
859.928	18582
860.061	18719
860.194	18677
860.327	18612
860.46	18540
860.592	18681
860.725	18734
860.858	18574
860.99	18395
861.123	18410
861.256	18517
861.388	18467
861.521	19221
861.653	18369
861.786	18441
861.918	18346
862.05	18544
862.183	18551
862.315	18589
862.447	18623
862.58	18574
862.712	18334
862.844	18292
862.976	18426
863.108	18334
863.24	18821
863.372	18197
863.504	18315
863.636	18148
863.768	18270
863.9	18254
864.032	18019
864.164	18247
864.296	18239
864.428	18475
864.559	18232
864.691	18319
864.823	18266
864.954	18319
865.086	18308
865.217	18213
865.349	18140
865.48	18197
865.612	18121
865.743	18308
865.875	18167
866.006	18174
866.137	18171
866.269	18064
866.4	18144
866.531	18190
866.662	18049
866.793	18155
866.924	18072
867.055	18190
867.186	18098
867.317	18106
867.448	17912
867.579	17999
867.71	18003
867.841	18022
867.972	18121
868.103	18091
868.233	18155
868.364	18102
868.495	18148
868.625	18327
868.756	18532
868.886	18209
869.017	18296
869.147	18380
869.278	18407
869.408	18380
869.539	18304
869.669	18410
869.799	18334
869.929	18498
870.06	18403
870.19	18616
870.32	18669
870.45	18620
870.58	18719
870.71	18791
870.84	18856
870.97	18692
871.1	18764
871.23	18806
871.36	18856
871.489	18722
871.619	18894
871.749	18897
871.879	18859
872.008	18890
872.138	18924
872.267	18970
872.397	18844
872.526	18696
872.656	18673
872.785	18829
872.915	18867
873.044	19008
873.173	19038
873.303	19072
873.432	19061
873.561	19080
873.69	19072
873.819	18932
873.948	19050
874.077	19164
874.206	18920
874.335	19004
874.464	19091
874.593	19183
874.722	19179
874.851	19274
874.979	19228
875.108	19335
875.237	19240
875.365	19175
875.494	19202
875.623	19373
875.751	19168
875.88	19206
876.008	19453
876.136	19480
876.265	19597
876.393	19795
876.521	19723
876.65	19769
876.778	19537
876.906	19567
877.034	19533
877.162	19601
877.29	19582
877.418	19624
877.546	19647
877.674	19639
877.802	19601
877.93	19761
878.058	19609
878.185	19499
878.313	19529
878.441	19544
878.568	19563
878.696	19495
878.824	19666
878.951	19590
879.079	19765
879.206	19909
879.333	19772
879.461	19666
879.588	19849
879.715	19753
879.842	19799
879.97	19639
880.097	19472
880.224	19468
880.351	19529
880.478	19438
880.605	19266
880.732	19373
880.859	19708
880.986	19556
881.112	19403
881.239	19384
881.366	19225
881.493	19190
881.619	19053
881.746	19160
881.872	19198
881.999	19008
882.125	19034
882.252	19141
882.378	19012
882.505	19080
882.631	18966
882.757	18837
882.883	18856
883.01	18829
883.136	18859
883.262	18658
883.388	18783
883.514	18871
883.64	18905
883.766	18806
883.892	18646
884.018	18757
884.143	18829
884.269	18954
884.395	18669
884.52	18532
884.646	18460
884.772	18422
884.897	18346
885.023	18559
885.148	18612
885.274	18623
885.399	18502
885.524	18555
885.65	18422
885.775	18506
885.9	18403
886.025	18551
886.15	18574
886.275	18551
886.4	18422
886.525	18547
886.65	18460
886.775	18369
886.9	18642
887.025	18673
887.149	18441
887.274	18315
887.399	18235
887.523	18292
887.648	18186
887.773	18148
887.897	18319
888.021	18296
888.146	18209
888.27	18350
888.395	18403
888.519	18384
888.643	18300
888.767	18277
888.891	18254
889.015	17988
889.139	18007
889.263	18117
889.387	18197
889.511	18251
889.635	18194
889.759	18068
889.883	18079
890.006	18076
890.13	18144
890.254	18007
890.377	17923
890.501	17859
890.624	17760
890.748	17855
890.871	17779
890.995	17589
891.118	17726
891.241	17714
891.364	17718
891.488	17912
891.611	17611
891.734	17695
891.857	17741
891.98	17805
892.103	17851
892.226	17821
892.349	17691
892.471	17440
892.594	17520
892.717	17596
892.839	17653
892.962	17718
893.085	17619
893.207	17627
893.33	17585
893.452	17512
893.575	17627
893.697	17634
893.819	17870
893.941	17817
894.064	17847
894.186	17532
894.308	17672
894.43	17737
894.552	17767
894.674	17779
894.796	17562
894.918	17589
895.04	17539
895.161	17596
895.283	17680
895.405	17570
895.526	17589
895.648	17718
895.769	17699
895.891	17733
896.012	17691
896.134	17691
896.255	17764
896.376	17680
896.498	17741
896.619	17859
896.74	17703
896.861	17756
896.982	18102
897.103	18247
897.224	18091
897.345	18003
897.466	17935
897.587	17840
897.708	18079
897.828	18007
897.949	17889
898.07	17794
898.19	17961
898.311	18003
898.431	17874
898.552	17950
898.672	18019
898.792	18041
898.913	18034
899.033	17912
899.153	17760
899.273	17756
899.393	17741
899.513	17764
899.633	17722
899.753	17832
899.873	17737
899.993	17718
900.113	17649
900.232	17638
900.352	17687
900.472	17604
900.591	17512
900.711	17642
900.83	17566
900.95	17570
901.069	17573
901.189	17482
901.308	17220
901.427	17197
901.546	17239
901.665	17227
901.784	17193
901.904	16938
902.023	16999
902.141	16774
902.26	16740
902.379	16835
902.498	16729
902.617	16694
902.735	16733
902.854	16653
902.973	16615
903.091	16440
903.21	16314
903.328	16382
903.446	16322
903.565	16249
903.683	16280
903.801	16200
903.919	16147
904.038	16276
904.156	16044
904.274	16082
904.392	15956
904.51	16090
904.627	16010
904.745	16006
904.863	16048
904.981	15842
905.098	15648
905.216	15614
905.334	15686
905.451	15641
905.569	15629
905.686	15713
905.803	15587
905.921	15485
906.038	15538
906.155	15561
906.272	15367
906.389	15393
906.506	15218
906.623	15241
906.74	15157
906.857	15077
906.974	15108
907.091	15252
907.208	15272
907.324	15195
907.441	15184
907.557	14838
907.674	14906
907.79	14811
907.907	14834
908.023	14944
908.139	14811
908.256	14883
908.372	14739
908.488	14800
908.604	14651
908.72	14644
908.836	14602
908.952	14503
909.068	14625
909.184	14746
909.3	14568
909.415	14636
909.531	14621
909.647	14412
909.762	14355
909.878	14324
909.993	14374
910.108	14351
910.224	14256
910.339	14298
910.454	14278
910.57	14149
910.685	14069
910.8	14408
910.915	14313
911.03	14202
911.145	14005
911.259	13932
911.374	13989
911.489	13898
911.604	13890
911.718	13715
911.833	13765
911.947	13594
912.062	13533
912.176	13620
912.291	13811
912.405	13696
912.519	13860
912.633	13860
912.748	13696
912.862	13742
912.976	13597
913.09	13472
913.204	13415
913.318	13620
913.431	13616
913.545	13624
913.659	13495
913.772	13510
913.886	13453
914	13400
914.113	13426
914.226	13510
914.34	13403
914.453	13308
914.566	13403
914.68	13251
914.793	13263
914.906	13175
915.019	13072
915.132	13034
915.245	13145
915.358	13080
915.47	13088
915.583	13034
915.696	12993
915.809	13251
915.921	13244
916.034	13095
916.146	12947
916.259	12935
916.371	12989
916.483	13076
916.595	12890
916.708	12920
916.82	12901
916.932	12882
917.044	12840
917.156	12859
917.268	12757
917.38	12886
917.491	12791
917.603	12768
917.715	12871
917.826	12935
917.938	12730
918.049	12642
918.161	12703
918.272	12878
918.384	12821
918.495	12802
918.606	12654
918.717	12540
918.828	12635
918.939	12623
919.05	12544
919.161	12608
919.272	12384
919.383	12384
919.494	12620
919.604	12730
919.715	12502
919.826	12467
919.936	12479
920.047	12589
920.157	12551
920.267	12715
920.378	12494
920.488	12532
920.598	12722
920.708	12814
920.818	12654
920.928	12658
921.038	12787
921.148	12772
921.258	12517
921.368	12452
921.477	12391
921.587	12281
921.697	12213
921.806	12304
921.916	12144
922.025	12053
922.134	12053
922.244	11973
922.353	11942
922.462	11767
922.571	11855
922.68	11733
922.789	11608
922.898	11668
923.007	11535
923.116	11680
923.224	11608
923.333	11581
923.442	11497
923.55	11455
923.659	11535
923.767	11516
923.876	11417
923.984	11524
924.092	11292
924.201	11463
924.309	11436
924.417	11474
924.525	11406
924.633	11376
924.741	12285
924.849	11174
924.956	11311
925.064	11170
925.172	11098
925.279	11170
925.387	11204
925.494	11178
925.602	11277
925.709	11231
925.816	11067
925.924	11086
926.031	11204
926.138	11201
926.245	11170
926.352	10999
926.459	11162
926.566	11197
926.673	11098
926.779	10942
926.886	11014
926.993	10801
927.099	10790
927.206	10828
927.312	10805
927.419	10850
927.525	10809
927.631	10721
927.737	10729
927.843	10656
927.95	10596
928.056	10687
928.162	10721
928.267	10714
928.373	11353
928.479	10755
928.585	10554
928.69	10611
928.796	10729
928.901	10519
929.007	10367
929.112	10428
929.218	10485
929.323	10466
929.428	10470
929.533	10497
929.638	10344
929.743	10295
929.848	10459
929.953	10295
930.058	10268
930.163	10090
930.267	10086
930.372	10227
930.477	10044
930.581	10284
930.685	10204
930.79	10029
930.894	9979
930.998	10071
931.103	10147
931.207	9766
931.311	9667
931.415	9686
931.519	9553
931.623	9408
