Data from test_V78500241_396.txt Node
Date: Fri Mar 25 14:36:28 CST 2022
User: usil
Spectrometer: V785-0024
Trigger mode: 0
Integration Time (sec): 4.000000E-1
Scans to average: 1
Nonlinearity correction enabled: false
Boxcar width: 0
Storing dark spectrum: false
XAxis mode: Wavelengths
Number of Pixels in Spectrum: 1024
>>>>>Begin Spectral Data<<<<<
801.071	26651
801.214	26648
801.356	26358
801.499	26221
801.641	26256
801.783	26016
801.926	26225
802.068	26115
802.211	25913
802.353	25871
802.496	25757
802.638	25780
802.78	25738
802.923	25624
803.065	25597
803.208	25704
803.35	25575
803.492	25731
803.635	25814
803.777	25677
803.919	25753
804.061	26016
804.204	25734
804.346	25632
804.488	25537
804.63	25499
804.773	25556
804.915	25582
805.057	25788
805.199	25670
805.341	25795
805.483	25677
805.626	25708
805.768	25578
805.91	25772
806.052	25693
806.194	25506
806.336	25887
806.478	25753
806.62	25620
806.762	25807
806.904	25986
807.046	26084
807.188	26031
807.33	25909
807.472	25993
807.614	25925
807.756	25989
807.898	25833
808.04	25765
808.182	25780
808.324	25936
808.465	25807
808.607	25963
808.749	26218
808.891	26221
809.033	26332
809.174	26233
809.316	26100
809.458	26073
809.6	26115
809.741	26317
809.883	26180
810.025	26453
810.166	26522
810.308	26332
810.45	26336
810.591	26233
810.733	26161
810.875	25818
811.016	25879
811.158	25879
811.299	26031
811.441	26202
811.582	26221
811.724	25947
811.865	25925
812.007	26058
812.148	26005
812.29	26001
812.431	26153
812.573	26244
812.714	26263
812.855	26465
812.997	26625
813.138	26743
813.279	26716
813.421	26526
813.562	26533
813.703	26317
813.845	26309
813.986	25833
814.127	25841
814.268	25563
814.41	25605
814.551	25487
814.692	25628
814.833	25499
814.974	25476
815.115	25460
815.256	25415
815.397	25407
815.539	25476
815.68	25403
815.821	25240
815.962	25285
816.103	25213
816.244	25228
816.385	25061
816.526	25057
816.666	24863
816.807	24749
816.948	24783
817.089	24856
817.23	24646
817.371	24814
817.512	24669
817.653	24639
817.793	24612
817.934	24593
818.075	24734
818.216	24715
818.356	24711
818.497	24646
818.638	24407
818.778	24528
818.919	24502
819.06	24513
819.2	24525
819.341	24540
819.481	24608
819.622	24745
819.762	24928
819.903	24890
820.043	24882
820.184	24681
820.324	24745
820.465	24768
820.605	24844
820.746	24608
820.886	24608
821.026	24719
821.167	24582
821.307	24722
821.447	24612
821.588	24509
821.728	24346
821.868	24258
822.008	24068
822.149	23984
822.289	23996
822.429	23836
822.569	23638
822.709	23703
822.849	23524
822.99	23455
823.13	23482
823.27	23421
823.41	23376
823.55	23269
823.69	23360
823.83	23258
823.97	23166
824.11	23060
824.25	23056
824.389	23094
824.529	23121
824.669	23170
824.809	23098
824.949	23181
825.089	23064
825.228	23041
825.368	22835
825.508	22885
825.648	22892
825.787	22927
825.927	23018
826.067	22786
826.206	22820
826.346	22892
826.485	22949
826.625	22854
826.765	22953
826.904	22820
827.044	22664
827.183	22615
827.323	22497
827.462	22451
827.601	22569
827.741	22478
827.88	22508
828.02	22493
828.159	22341
828.298	22656
828.437	22542
828.577	22386
828.716	22565
828.855	22394
828.994	22207
829.134	22223
829.273	22261
829.412	22242
829.551	22242
829.69	22226
829.829	22169
829.968	22303
830.107	22166
830.246	22139
830.385	22032
830.524	22017
830.663	22010
830.802	21964
830.941	21747
831.08	21660
831.219	21899
831.357	21812
831.496	22078
831.635	21728
831.774	21686
831.913	21705
832.051	21595
832.19	21458
832.329	21606
832.467	21466
832.606	21420
832.744	21370
832.883	21431
833.022	21363
833.16	21488
833.299	21549
833.437	21416
833.576	21416
833.714	21405
833.852	21473
833.991	21511
834.129	21500
834.267	21416
834.406	21507
834.544	21477
834.682	21466
834.821	21374
834.959	21587
835.097	21344
835.235	21564
835.373	21351
835.511	21351
835.65	21462
835.788	21306
835.926	21100
836.064	21112
836.202	21142
836.34	21435
836.478	21351
836.615	21340
836.753	21275
836.891	21332
837.029	21355
837.167	21180
837.305	21001
837.443	21233
837.58	21211
837.718	21203
837.856	21260
837.993	21150
838.131	21116
838.269	21039
838.406	20941
838.544	20952
838.681	20834
838.819	20800
838.956	20571
839.094	20636
839.231	20560
839.369	20731
839.506	20963
839.643	20815
839.781	20636
839.918	20556
840.055	20560
840.193	20537
840.33	20469
840.467	20396
840.604	20476
840.742	20765
840.879	20351
841.016	20457
841.153	20347
841.29	20651
841.427	20492
841.564	20511
841.701	20530
841.838	20473
841.975	20473
842.112	20336
842.249	20202
842.385	20130
842.522	20404
842.659	20294
842.796	20103
842.933	20267
843.069	20267
843.206	20202
843.343	20256
843.479	20301
843.616	20256
843.752	20103
843.889	19860
844.025	20031
844.162	19890
844.298	20115
844.435	20016
844.571	19906
844.708	20084
844.844	20100
844.98	20130
845.117	20065
845.253	19814
845.389	19826
845.525	19814
845.661	19887
845.798	19765
845.934	19826
846.07	19708
846.206	19925
846.342	19807
846.478	19757
846.614	19453
846.75	19438
846.886	19350
847.022	19506
847.158	19483
847.294	19464
847.429	19468
847.565	19358
847.701	19639
847.837	19133
847.972	19126
848.108	19164
848.244	19274
848.379	19065
848.515	19004
848.65	18943
848.786	18973
848.921	19137
849.057	19114
849.192	19034
849.328	18966
849.463	19000
849.598	19053
849.734	18928
849.869	18806
850.004	18791
850.14	18867
850.275	18757
850.41	18677
850.545	18814
850.68	18734
850.815	18749
850.95	18779
851.085	18943
851.22	18787
851.355	18734
851.49	18650
851.625	18677
851.76	18665
851.895	18688
852.03	18544
852.165	18665
852.299	18711
852.434	18738
852.569	18749
852.703	18821
852.838	18833
852.973	18837
853.107	18882
853.242	18620
853.376	18574
853.511	18433
853.645	18502
853.78	18703
853.914	18604
854.048	18544
854.183	18486
854.317	18639
854.451	18856
854.585	18532
854.72	18521
854.854	18570
854.988	18418
855.122	18509
855.256	18448
855.39	18483
855.524	18604
855.658	18547
855.792	18563
855.926	18525
856.06	18620
856.194	18585
856.327	18604
856.461	18479
856.595	18456
856.729	18456
856.862	18566
856.996	18665
857.13	18555
857.263	18578
857.397	18616
857.53	18570
857.664	18620
857.797	18582
857.931	18612
858.064	18429
858.197	18639
858.331	18585
858.464	18513
858.597	18270
858.731	18490
858.864	18566
858.997	18452
859.13	18506
859.263	18555
859.396	18570
859.529	18304
859.662	18479
859.795	18365
859.928	18521
860.061	18578
860.194	18764
860.327	18612
860.46	18471
860.592	18532
860.725	18688
860.858	18642
860.99	18525
861.123	18365
861.256	18460
861.388	18498
861.521	19137
861.653	18308
861.786	18365
861.918	18334
862.05	18376
862.183	18506
862.315	18494
862.447	18582
862.58	18460
862.712	18292
862.844	18247
862.976	18365
863.108	18365
863.24	18620
863.372	18034
863.504	18194
863.636	18178
863.768	18251
863.9	18213
864.032	18167
864.164	18209
864.296	18197
864.428	18235
864.559	18270
864.691	18342
864.823	18209
864.954	18144
865.086	18152
865.217	18186
865.349	18060
865.48	18121
865.612	18121
865.743	18190
865.875	18079
866.006	18144
866.137	18083
866.269	18136
866.4	18171
866.531	18140
866.662	18007
866.793	18144
866.924	18026
867.055	18057
867.186	18053
867.317	18121
867.448	17992
867.579	18022
867.71	17939
867.841	18011
867.972	18167
868.103	18083
868.233	18125
868.364	18136
868.495	18194
868.625	18247
868.756	18429
868.886	18159
869.017	18281
869.147	18407
869.278	18258
869.408	18418
869.539	18338
869.669	18357
869.799	18369
869.929	18475
870.06	18471
870.19	18654
870.32	18532
870.45	18738
870.58	18730
870.71	18772
870.84	18760
870.97	18650
871.1	18711
871.23	18768
871.36	18875
871.489	18905
871.619	18943
871.749	18829
871.879	18848
872.008	19088
872.138	18894
872.267	18821
872.397	18814
872.526	18760
872.656	18741
872.785	18749
872.915	18897
873.044	19061
873.173	18989
873.303	18920
873.432	19031
873.561	18970
873.69	18932
873.819	18954
873.948	18996
874.077	18970
874.206	18867
874.335	18886
874.464	18951
874.593	19236
874.722	19110
874.851	19145
874.979	19316
875.108	19259
875.237	19156
875.365	19046
875.494	19126
875.623	19301
875.751	19255
875.88	19346
876.008	19476
876.136	19400
876.265	19651
876.393	19731
876.521	19689
876.65	19666
876.778	19613
876.906	19643
877.034	19529
877.162	19647
877.29	19525
877.418	19544
877.546	19662
877.674	19639
877.802	19533
877.93	19639
878.058	19609
878.185	19502
878.313	19681
878.441	19601
878.568	19537
878.696	19464
878.824	19624
878.951	19495
879.079	19814
879.206	19967
879.333	19757
879.461	19635
879.588	19700
879.715	19772
879.842	19909
879.97	19742
880.097	19396
880.224	19441
880.351	19594
880.478	19594
880.605	19297
880.732	19407
880.859	19677
880.986	19358
881.112	19487
881.239	19316
881.366	19255
881.493	19080
881.619	18901
881.746	19061
881.872	19091
881.999	19015
882.125	19076
882.252	19088
882.378	19103
882.505	19091
882.631	18954
882.757	18760
882.883	18863
883.01	18848
883.136	18787
883.262	18772
883.388	18738
883.514	18970
883.64	18977
883.766	18779
883.892	18623
884.018	18578
884.143	18703
884.269	18848
884.395	18661
884.52	18506
884.646	18479
884.772	18517
884.897	18407
885.023	18566
885.148	18627
885.274	18627
885.399	18589
885.524	18528
885.65	18506
885.775	18551
885.9	18429
886.025	18566
886.15	18540
886.275	18414
886.4	18292
886.525	18460
886.65	18369
886.775	18353
886.9	18559
887.025	18677
887.149	18483
887.274	18338
887.399	18171
887.523	18247
887.648	18239
887.773	18091
887.897	18292
888.021	18361
888.146	18235
888.27	18300
888.395	18357
888.519	18327
888.643	18254
888.767	18239
888.891	18167
889.015	17996
889.139	18072
889.263	17984
889.387	18167
889.511	18270
889.635	18125
889.759	17950
889.883	18003
890.006	18030
890.13	18140
890.254	17969
890.377	17954
890.501	17863
890.624	17798
890.748	17920
890.871	17695
890.995	17615
891.118	17695
891.241	17611
891.364	17611
891.488	17733
891.611	17653
891.734	17611
891.857	17764
891.98	17771
892.103	17779
892.226	17653
892.349	17611
892.471	17532
892.594	17634
892.717	17619
892.839	17619
892.962	17661
893.085	17707
893.207	17604
893.33	17524
893.452	17493
893.575	17592
893.697	17676
893.819	17722
893.941	17783
894.064	17851
894.186	17524
894.308	17509
894.43	17608
894.552	17771
894.674	17737
894.796	17566
894.918	17554
895.04	17710
895.161	17592
895.283	17771
895.405	17516
895.526	17707
895.648	17634
895.769	17722
895.891	17840
896.012	17653
896.134	17783
896.255	17718
896.376	17680
896.498	17783
896.619	17817
896.74	17718
896.861	17741
896.982	18155
897.103	18243
897.224	18041
897.345	17965
897.466	17874
897.587	17977
897.708	18015
897.828	17973
897.949	17931
898.07	17710
898.19	17889
898.311	17984
898.431	17851
898.552	17916
898.672	17958
898.792	18049
898.913	17996
899.033	17764
899.153	17779
899.273	17592
899.393	17699
899.513	17718
899.633	17661
899.753	17634
899.873	17592
899.993	17653
900.113	17779
900.232	17699
900.352	17707
900.472	17608
900.591	17505
900.711	17585
900.83	17433
900.95	17630
901.069	17528
901.189	17490
901.308	17334
901.427	17124
901.546	17124
901.665	17223
901.784	17086
901.904	17037
902.023	17022
902.141	16786
902.26	16656
902.379	16790
902.498	16744
902.617	16599
902.735	16675
902.854	16668
902.973	16664
903.091	16440
903.21	16322
903.328	16417
903.446	16363
903.565	16188
903.683	16139
903.801	16124
903.919	16181
904.038	16116
904.156	16059
904.274	16078
904.392	15941
904.51	15850
904.627	15968
904.745	15998
904.863	16051
904.981	15850
905.098	15618
905.216	15652
905.334	15671
905.451	15656
905.569	15610
905.686	15808
905.803	15679
905.921	15344
906.038	15530
906.155	15545
906.272	15329
906.389	15401
906.506	15252
906.623	15165
906.74	15226
906.857	15100
906.974	15169
907.091	15249
907.208	15329
907.324	15226
907.441	15074
907.557	14819
907.674	14902
907.79	14781
907.907	14834
908.023	14914
908.139	14914
908.256	14842
908.372	14891
908.488	14724
908.604	14705
908.72	14537
908.836	14564
908.952	14526
909.068	14598
909.184	14727
909.3	14602
909.415	14644
909.531	14583
909.647	14298
909.762	14259
909.878	14309
909.993	14332
910.108	14286
910.224	14347
910.339	14313
910.454	14237
910.57	14081
910.685	14115
910.8	14301
910.915	14355
911.03	14054
911.145	14012
911.259	13894
911.374	13917
911.489	13803
911.604	13795
911.718	13727
911.833	13788
911.947	13552
912.062	13499
912.176	13636
912.291	13628
912.405	13712
912.519	13807
912.633	13940
912.748	13788
912.862	13624
912.976	13483
913.09	13597
913.204	13400
913.318	13525
913.431	13613
913.545	13582
913.659	13594
913.772	13529
913.886	13384
914	13362
914.113	13438
914.226	13468
914.34	13369
914.453	13255
914.566	13362
914.68	13263
914.793	13354
914.906	13133
915.019	13076
915.132	12947
915.245	13084
915.358	13065
915.47	13034
915.583	13110
915.696	13122
915.809	13202
915.921	13187
916.034	13053
916.146	13160
916.259	12939
916.371	13046
916.483	13012
916.595	12924
916.708	12863
916.82	12779
916.932	13019
917.044	12913
917.156	12844
917.268	12707
917.38	12791
917.491	12711
917.603	12726
917.715	12772
917.826	12806
917.938	12779
918.049	12635
918.161	12707
918.272	12825
918.384	12833
918.495	12726
918.606	12528
918.717	12513
918.828	12593
918.939	12650
919.05	12445
919.161	12475
919.272	12353
919.383	12445
919.494	12563
919.604	12722
919.715	12635
919.826	12399
919.936	12555
920.047	12585
920.157	12555
920.267	12646
920.378	12646
920.488	12494
920.598	12700
920.708	12844
920.818	12646
920.928	12673
921.038	12856
921.148	12696
921.258	12528
921.368	12429
921.477	12350
921.587	12350
921.697	12148
921.806	12380
921.916	12182
922.025	12064
922.134	11931
922.244	11836
922.353	12034
922.462	11863
922.571	11783
922.68	11630
922.789	11608
922.898	11665
923.007	11554
923.116	11627
923.224	11611
923.333	11566
923.442	11444
923.55	11543
923.659	11524
923.767	11543
923.876	11528
923.984	11554
924.092	11436
924.201	11414
924.309	11505
924.417	11573
924.525	11459
924.633	11402
924.741	12327
924.849	11174
924.956	11299
925.064	11162
925.172	11086
925.279	11094
925.387	11174
925.494	11242
925.602	11265
925.709	11166
925.816	11117
925.924	11239
926.031	11239
926.138	11288
926.245	11231
926.352	11147
926.459	11185
926.566	11322
926.673	11151
926.779	11010
926.886	10991
926.993	10831
927.099	10881
927.206	10801
927.312	10778
927.419	10896
927.525	10774
927.631	10820
927.737	10740
927.843	10668
927.95	10626
928.056	10683
928.162	10778
928.267	10771
928.373	11334
928.479	10759
928.585	10577
928.69	10634
928.796	10729
928.901	10550
929.007	10516
929.112	10588
929.218	10561
929.323	10443
929.428	10451
929.533	10535
929.638	10421
929.743	10432
929.848	10508
929.953	10428
930.058	10386
930.163	10131
930.267	10200
930.372	10367
930.477	10105
930.581	10295
930.685	10272
930.79	10082
930.894	10101
930.998	10059
931.103	10223
931.207	9903
931.311	9667
931.415	9667
931.519	9511
931.623	9523
