Data from test_V78500241_1052.txt Node
Date: Fri Mar 25 14:41:02 CST 2022
User: usil
Spectrometer: V785-0024
Trigger mode: 0
Integration Time (sec): 4.000000E-1
Scans to average: 1
Nonlinearity correction enabled: false
Boxcar width: 0
Storing dark spectrum: false
XAxis mode: Wavelengths
Number of Pixels in Spectrum: 1024
>>>>>Begin Spectral Data<<<<<
801.071	22976
801.214	22736
801.356	22474
801.499	22577
801.641	22226
801.783	22169
801.926	22280
802.068	22124
802.211	22048
802.353	21880
802.496	21793
802.638	21690
802.78	21660
802.923	21610
803.065	21568
803.208	21492
803.35	21572
803.492	21701
803.635	21755
803.777	21591
803.919	21671
804.061	22063
804.204	21720
804.346	21561
804.488	21500
804.63	21595
804.773	21447
804.915	21481
805.057	21545
805.199	21458
805.341	21591
805.483	21724
805.626	21576
805.768	21496
805.91	21424
806.052	21500
806.194	21469
806.336	21797
806.478	21504
806.62	21435
806.762	21549
806.904	21774
807.046	22017
807.188	21918
807.33	21846
807.472	22032
807.614	21915
807.756	21972
807.898	21895
808.04	21846
808.182	21960
808.324	21953
808.465	22101
808.607	22215
808.749	22512
808.891	22729
809.033	22698
809.174	22622
809.316	22402
809.458	22379
809.6	22185
809.741	22230
809.883	22181
810.025	22268
810.166	22109
810.308	22086
810.45	22143
810.591	22032
810.733	21827
810.875	21835
811.016	21797
811.158	21682
811.299	21766
811.441	21949
811.582	21675
811.724	21656
811.865	21568
812.007	21709
812.148	21759
812.29	21778
812.431	21835
812.573	22105
812.714	22082
812.855	22261
812.997	22337
813.138	22303
813.279	22272
813.421	22131
813.562	22295
813.703	22021
813.845	21941
813.986	21583
814.127	21519
814.268	21260
814.41	21241
814.551	21214
814.692	21355
814.833	21203
814.974	21108
815.115	21256
815.256	21062
815.397	21119
815.539	21070
815.68	20960
815.821	20975
815.962	21028
816.103	21047
816.244	20830
816.385	20746
816.526	20731
816.666	20629
816.807	20358
816.948	20499
817.089	20571
817.23	20431
817.371	20511
817.512	20389
817.653	20427
817.793	20336
817.934	20484
818.075	20423
818.216	20427
818.356	20454
818.497	20183
818.638	20081
818.778	20084
818.919	20172
819.06	20199
819.2	20244
819.341	20377
819.481	20134
819.622	20484
819.762	20579
819.903	20499
820.043	20507
820.184	20381
820.324	20336
820.465	20469
820.605	20431
820.746	20434
820.886	20263
821.026	20362
821.167	20309
821.307	20355
821.447	20256
821.588	20202
821.728	20046
821.868	19906
822.008	19833
822.149	19852
822.289	19658
822.429	19575
822.569	19407
822.709	19377
822.849	19403
822.99	19244
823.13	19259
823.27	19099
823.41	19084
823.55	19065
823.69	19080
823.83	19084
823.97	18989
824.11	18905
824.25	18833
824.389	18825
824.529	19004
824.669	18768
824.809	18993
824.949	18897
825.089	18951
825.228	18806
825.368	18692
825.508	18753
825.648	18700
825.787	18783
825.927	18673
826.067	18616
826.206	18631
826.346	18639
826.485	18646
826.625	18650
826.765	18753
826.904	18677
827.044	18490
827.183	18334
827.323	18433
827.462	18395
827.601	18258
827.741	18270
827.88	18365
828.02	18197
828.159	18285
828.298	18437
828.437	18422
828.577	18266
828.716	18388
828.855	18319
828.994	18011
829.134	18140
829.273	18060
829.412	18098
829.551	18083
829.69	18026
829.829	18110
829.968	18201
830.107	18155
830.246	18022
830.385	17992
830.524	18015
830.663	17870
830.802	17790
830.941	17672
831.08	17558
831.219	17809
831.357	17684
831.496	17805
831.635	17672
831.774	17528
831.913	17596
832.051	17478
832.19	17402
832.329	17554
832.467	17364
832.606	17356
832.744	17334
832.883	17376
833.022	17326
833.16	17471
833.299	17429
833.437	17459
833.576	17410
833.714	17406
833.852	17406
833.991	17505
834.129	17528
834.267	17482
834.406	17581
834.544	17611
834.682	17524
834.821	17497
834.959	17547
835.097	17452
835.235	17532
835.373	17509
835.511	17474
835.65	17360
835.788	17349
835.926	17178
836.064	17155
836.202	17220
836.34	17326
836.478	17353
836.615	17254
836.753	17372
836.891	17398
837.029	17349
837.167	17345
837.305	17296
837.443	17231
837.58	17197
837.718	17296
837.856	17162
837.993	17208
838.131	17246
838.269	17094
838.406	17109
838.544	17056
838.681	16862
838.819	16858
838.956	16786
839.094	16774
839.231	16748
839.369	16835
839.506	17067
839.643	16976
839.781	16755
839.918	16584
840.055	16698
840.193	16759
840.33	16649
840.467	16717
840.604	16771
840.742	16980
840.879	16554
841.016	16561
841.153	16706
841.29	16869
841.427	16702
841.564	16687
841.701	16717
841.838	16607
841.975	16607
842.112	16710
842.249	16550
842.385	16371
842.522	16733
842.659	16550
842.796	16394
842.933	16508
843.069	16394
843.206	16413
843.343	16615
843.479	16379
843.616	16573
843.752	16333
843.889	16265
844.025	16474
844.162	16131
844.298	16371
844.435	16314
844.571	16223
844.708	16398
844.844	16462
844.98	16504
845.117	16352
845.253	16379
845.389	16295
845.525	16447
845.661	16508
845.798	16664
845.934	16854
846.07	16873
846.206	16797
846.342	16824
846.478	16538
846.614	16200
846.75	15915
846.886	15926
847.022	16025
847.158	15876
847.294	15846
847.429	16036
847.565	15876
847.701	16055
847.837	15492
847.972	15530
848.108	15614
848.244	15755
848.379	15485
848.515	15454
848.65	15329
848.786	15458
848.921	15481
849.057	15557
849.192	15538
849.328	15355
849.463	15504
849.598	15447
849.734	15370
849.869	15332
850.004	15104
850.14	15329
850.275	15195
850.41	15112
850.545	15127
850.68	15150
850.815	15192
850.95	15218
851.085	15294
851.22	15294
851.355	15195
851.49	15195
851.625	15184
851.76	15161
851.895	15066
852.03	15089
852.165	15154
852.299	15199
852.434	15313
852.569	15211
852.703	15135
852.838	15302
852.973	15367
853.107	15272
853.242	15218
853.376	15070
853.511	15036
853.645	15093
853.78	15226
853.914	14998
854.048	14975
854.183	15013
854.317	15055
854.451	15294
854.585	15112
854.72	14933
854.854	15123
854.988	14967
855.122	15009
855.256	14944
855.39	15074
855.524	15135
855.658	15104
855.792	15097
855.926	15150
856.06	15135
856.194	15131
856.327	15070
856.461	15020
856.595	14994
856.729	15028
856.862	15195
856.996	15142
857.13	15085
857.263	15211
857.397	15199
857.53	15154
857.664	15230
857.797	15074
857.931	15123
858.064	15127
858.197	15161
858.331	15036
858.464	15024
858.597	14921
858.731	14975
858.864	14902
858.997	15146
859.13	15081
859.263	15131
859.396	15135
859.529	15074
859.662	15009
859.795	14918
859.928	15081
860.061	15165
860.194	15268
860.327	15055
860.46	14941
860.592	15184
860.725	15218
860.858	15104
860.99	15089
861.123	15005
861.256	14944
861.388	15089
861.521	15709
861.653	14933
861.786	14807
861.918	14823
862.05	14918
862.183	14952
862.315	15085
862.447	15024
862.58	14986
862.712	14849
862.844	14667
862.976	14857
863.108	14769
863.24	15275
863.372	14720
863.504	14849
863.636	14811
863.768	14807
863.9	14815
864.032	14731
864.164	14838
864.296	14800
864.428	14963
864.559	14872
864.691	14887
864.823	14834
864.954	14811
865.086	14857
865.217	14815
865.349	14724
865.48	14796
865.612	14785
865.743	14876
865.875	14796
866.006	14807
866.137	14788
866.269	14861
866.4	14743
866.531	14800
866.662	14773
866.793	14693
866.924	14796
867.055	14765
867.186	14781
867.317	14739
867.448	14667
867.579	14686
867.71	14621
867.841	14724
867.972	14720
868.103	14819
868.233	14804
868.364	14895
868.495	14769
868.625	15085
868.756	15116
868.886	14872
869.017	14979
869.147	15214
869.278	15051
869.408	14914
869.539	15112
869.669	15104
869.799	15112
869.929	15097
870.06	15089
870.19	15260
870.32	15340
870.45	15367
870.58	15466
870.71	15507
870.84	15580
870.97	15317
871.1	15370
871.23	15663
871.36	15644
871.489	15542
871.619	15641
871.749	15671
871.879	15701
872.008	15709
872.138	15732
872.267	15591
872.397	15466
872.526	15492
872.656	15412
872.785	15576
872.915	15720
873.044	15728
873.173	15618
873.303	15698
873.432	15656
873.561	15781
873.69	15762
873.819	15709
873.948	15838
874.077	15728
874.206	15690
874.335	15656
874.464	15743
874.593	15979
874.722	15930
874.851	15987
874.979	15945
875.108	16105
875.237	15975
875.365	15827
875.494	15945
875.623	16036
875.751	15960
875.88	16082
876.008	16105
876.136	16158
876.265	16440
876.393	16538
876.521	16531
876.65	16462
876.778	16360
876.906	16344
877.034	16303
877.162	16363
877.29	16322
877.418	16379
877.546	16386
877.674	16500
877.802	16436
877.93	16409
878.058	16329
878.185	16329
878.313	16386
878.441	16405
878.568	16314
878.696	16504
878.824	16516
878.951	16592
879.079	16752
879.206	17018
879.333	16873
879.461	16843
879.588	16896
879.715	16957
879.842	17037
879.97	16744
880.097	16516
880.224	16432
880.351	16356
880.478	16436
880.605	16390
880.732	16375
880.859	16634
880.986	16344
881.112	16390
881.239	16196
881.366	16040
881.493	16082
881.619	16090
881.746	15991
881.872	15945
881.999	15937
882.125	15861
882.252	15949
882.378	16021
882.505	16158
882.631	15979
882.757	15789
882.883	15987
883.01	15800
883.136	15717
883.262	15641
883.388	15663
883.514	15675
883.64	15857
883.766	15743
883.892	15572
884.018	15553
884.143	15770
884.269	15827
884.395	15538
884.52	15492
884.646	15568
884.772	15447
884.897	15313
885.023	15515
885.148	15641
885.274	15743
885.399	15561
885.524	15496
885.65	15507
885.775	15485
885.9	15462
886.025	15682
886.15	15618
886.275	15466
886.4	15291
886.525	15412
886.65	15389
886.775	15332
886.9	15629
887.025	15641
887.149	15412
887.274	15340
887.399	15302
887.523	15256
887.648	15173
887.773	15188
887.897	15355
888.021	15195
888.146	15214
888.27	15405
888.395	15359
888.519	15272
888.643	15287
888.767	15359
888.891	15180
889.015	15009
889.139	15222
889.263	15070
889.387	15119
889.511	15279
889.635	15203
889.759	15051
889.883	15028
890.006	15169
890.13	15180
890.254	15005
890.377	15173
890.501	14952
890.624	14864
890.748	15009
890.871	14777
890.995	14712
891.118	14629
891.241	14838
891.364	14826
891.488	14834
891.611	14785
891.734	14724
891.857	14880
891.98	14811
892.103	14819
892.226	14804
892.349	14769
892.471	14629
892.594	14765
892.717	14823
892.839	14750
892.962	14746
893.085	14880
893.207	14819
893.33	14636
893.452	14579
893.575	14781
893.697	14785
893.819	14826
893.941	14975
894.064	14834
894.186	14659
894.308	14686
894.43	14899
894.552	14948
894.674	14842
894.796	14777
894.918	14743
895.04	14762
895.161	14925
895.283	14788
895.405	14743
895.526	14914
895.648	14727
895.769	14853
895.891	14963
896.012	14990
896.134	15005
896.255	14876
896.376	14910
896.498	14899
896.619	14937
896.74	14811
896.861	14918
896.982	15176
897.103	15374
897.224	15024
897.345	15154
897.466	14990
897.587	15081
897.708	15226
897.828	15184
897.949	15180
898.07	15028
898.19	15104
898.311	15351
898.431	15157
898.552	15230
898.672	15298
898.792	15351
898.913	15226
899.033	15116
899.153	15089
899.273	15020
899.393	14990
899.513	15058
899.633	15032
899.753	14960
899.873	14990
899.993	15207
900.113	15100
900.232	15066
900.352	15097
900.472	15097
900.591	14880
900.711	14948
900.83	14960
900.95	15028
901.069	15093
901.189	14826
901.308	14663
901.427	14571
901.546	14727
901.665	14511
901.784	14571
901.904	14503
902.023	14438
902.141	14221
902.26	14229
902.379	14282
902.498	14107
902.617	14111
902.735	14195
902.854	14180
902.973	14084
903.091	13928
903.21	13894
903.328	13833
903.446	13837
903.565	13765
903.683	13738
903.801	13632
903.919	13845
904.038	13696
904.156	13445
904.274	13590
904.392	13400
904.51	13521
904.627	13419
904.745	13525
904.863	13578
904.981	13327
905.098	13168
905.216	13190
905.334	13285
905.451	13255
905.569	13236
905.686	13251
905.803	13171
905.921	13038
906.038	13190
906.155	13034
906.272	12924
906.389	13023
906.506	12825
906.623	12795
906.74	12749
906.857	12684
906.974	12635
907.091	12806
907.208	12962
907.324	12768
907.441	12772
907.557	12566
907.674	12506
907.79	12467
907.907	12403
908.023	12528
908.139	12521
908.256	12525
908.372	12578
908.488	12292
908.604	12338
908.72	12315
908.836	12399
908.952	12235
909.068	12243
909.184	12441
909.3	12216
909.415	12433
909.531	12388
909.647	12072
909.762	12053
909.878	11977
909.993	12064
910.108	12091
910.224	12060
910.339	12015
910.454	12022
910.57	11874
910.685	11828
910.8	12079
910.915	12117
911.03	11920
911.145	11794
911.259	11676
911.374	11688
911.489	11733
911.604	11615
911.718	11417
911.833	11589
911.947	11467
912.062	11334
912.176	11463
912.291	11482
912.405	11490
912.519	11672
912.633	11764
912.748	11486
912.862	11463
912.976	11406
913.09	11261
913.204	11284
913.318	11334
913.431	11471
913.545	11414
913.659	11532
913.772	11322
913.886	11303
914	11197
914.113	11280
914.226	11315
914.34	11341
914.453	11258
914.566	11376
914.68	11265
914.793	11083
914.906	11018
915.019	10919
915.132	10911
915.245	10984
915.358	10908
915.47	11025
915.583	10965
915.696	11037
915.809	11041
915.921	11124
916.034	11010
916.146	10885
916.259	10976
916.371	11056
916.483	10968
916.595	10839
916.708	10824
916.82	10862
916.932	10881
917.044	10892
917.156	10805
917.268	10805
917.38	10763
917.491	10691
917.603	10881
917.715	10843
917.826	11010
917.938	10778
918.049	10664
918.161	10824
918.272	10953
918.384	10946
918.495	10828
918.606	10679
918.717	10641
918.828	10630
918.939	10687
919.05	10588
919.161	10615
919.272	10432
919.383	10565
919.494	10683
919.604	10862
919.715	10748
919.826	10527
919.936	10607
920.047	10721
920.157	10694
920.267	10892
920.378	10679
920.488	10672
920.598	10843
920.708	11037
920.818	10843
920.928	10866
921.038	10995
921.148	10946
921.258	10694
921.368	10565
921.477	10504
921.587	10455
921.697	10325
921.806	10508
921.916	10356
922.025	10253
922.134	10090
922.244	10135
922.353	10200
922.462	10128
922.571	10063
922.68	9846
922.789	9838
922.898	9915
923.007	9842
923.116	9941
923.224	9873
923.333	9823
923.442	9823
923.55	9701
923.659	9762
923.767	9827
923.876	9724
923.984	9800
924.092	9690
924.201	9736
924.309	9656
924.417	9778
924.525	9679
924.633	9656
924.741	10596
924.849	9469
924.956	9648
925.064	9492
925.172	9466
925.279	9492
925.387	9469
925.494	9545
925.602	9629
925.709	9564
925.816	9359
925.924	9454
926.031	9606
926.138	9485
926.245	9542
926.352	9450
926.459	9545
926.566	9599
926.673	9488
926.779	9317
926.886	9344
926.993	9180
927.099	9233
927.206	9188
927.312	9195
927.419	9211
927.525	9249
927.631	9230
927.737	9169
927.843	9116
927.95	8967
928.056	9009
928.162	9211
928.267	9169
928.373	9865
928.479	9180
928.585	8982
928.69	9112
928.796	9127
928.901	8979
929.007	8826
929.112	9013
929.218	9009
929.323	8952
929.428	8910
929.533	9070
929.638	8807
929.743	8876
929.848	8982
929.953	9001
930.058	8826
930.163	8606
930.267	8701
930.372	8826
930.477	8621
930.581	8921
930.685	8716
930.79	8651
930.894	8617
930.998	8590
931.103	8701
931.207	8419
931.311	8339
931.415	8290
931.519	8062
931.623	8161
