Data from test_V78500241_1268.txt Node
Date: Fri Mar 25 14:42:32 CST 2022
User: usil
Spectrometer: V785-0024
Trigger mode: 0
Integration Time (sec): 4.000000E-1
Scans to average: 1
Nonlinearity correction enabled: false
Boxcar width: 0
Storing dark spectrum: false
XAxis mode: Wavelengths
Number of Pixels in Spectrum: 1024
>>>>>Begin Spectral Data<<<<<
801.071	22421
801.214	22211
801.356	22002
801.499	21975
801.641	21835
801.783	21762
801.926	21701
802.068	21679
802.211	21663
802.353	21542
802.496	21462
802.638	21188
802.78	21233
802.923	21241
803.065	21119
803.208	21135
803.35	21154
803.492	21233
803.635	21230
803.777	21020
803.919	21192
804.061	21386
804.204	21123
804.346	21123
804.488	21013
804.63	21157
804.773	20990
804.915	21039
805.057	21165
805.199	21020
805.341	21039
805.483	21260
805.626	21138
805.768	20967
805.91	21005
806.052	21074
806.194	20788
806.336	21245
806.478	20979
806.62	20998
806.762	21047
806.904	21207
807.046	21378
807.188	21321
807.33	21340
807.472	21332
807.614	21260
807.756	21367
807.898	21237
808.04	21188
808.182	21180
808.324	21245
808.465	21161
808.607	21370
808.749	21477
808.891	21614
809.033	21618
809.174	21572
809.316	21496
809.458	21473
809.6	21424
809.741	21473
809.883	21469
810.025	21587
810.166	21694
810.308	21549
810.45	21580
810.591	21553
810.733	21325
810.875	21233
811.016	21218
811.158	20982
811.299	21313
811.441	21317
811.582	21397
811.724	21157
811.865	21108
812.007	21195
812.148	21252
812.29	21233
812.431	21344
812.573	21439
812.714	21587
812.855	21595
812.997	21713
813.138	21808
813.279	21690
813.421	21755
813.562	21648
813.703	21336
813.845	21298
813.986	20994
814.127	20906
814.268	20815
814.41	20701
814.551	20785
814.692	20750
814.833	20750
814.974	20689
815.115	20708
815.256	20499
815.397	20648
815.539	20507
815.68	20499
815.821	20385
815.962	20499
816.103	20480
816.244	20412
816.385	20210
816.526	20130
816.666	20062
816.807	19978
816.948	20008
817.089	20092
817.23	19993
817.371	20024
817.512	19940
817.653	19845
817.793	19822
817.934	19928
818.075	19906
818.216	20008
818.356	19883
818.497	19757
818.638	19734
818.778	19472
818.919	19651
819.06	19567
819.2	19681
819.341	19681
819.481	19822
819.622	20005
819.762	20191
819.903	19890
820.043	20111
820.184	19940
820.324	19887
820.465	19917
820.605	19928
820.746	19788
820.886	19674
821.026	19837
821.167	19879
821.307	19936
821.447	19898
821.588	19750
821.728	19525
821.868	19480
822.008	19270
822.149	19209
822.289	19209
822.429	18935
822.569	19061
822.709	18962
822.849	18798
822.99	18913
823.13	18749
823.27	18764
823.41	18684
823.55	18506
823.69	18563
823.83	18582
823.97	18555
824.11	18399
824.25	18277
824.389	18334
824.529	18486
824.669	18361
824.809	18521
824.949	18479
825.089	18464
825.228	18292
825.368	18152
825.508	18182
825.648	18228
825.787	18155
825.927	18155
826.067	18114
826.206	18125
826.346	18159
826.485	18095
826.625	18144
826.765	18323
826.904	18213
827.044	18003
827.183	17901
827.323	17802
827.462	17969
827.601	17893
827.741	17794
827.88	17893
828.02	17745
828.159	17809
828.298	17931
828.437	17988
828.577	17733
828.716	18045
828.855	17668
828.994	17687
829.134	17573
829.273	17520
829.412	17608
829.551	17501
829.69	17570
829.829	17596
829.968	17653
830.107	17623
830.246	17615
830.385	17585
830.524	17429
830.663	17353
830.802	17326
830.941	17212
831.08	17166
831.219	17200
831.357	17322
831.496	17474
831.635	17151
831.774	17132
831.913	17239
832.051	16961
832.19	17064
832.329	17022
832.467	16934
832.606	16896
832.744	16915
832.883	16904
833.022	16942
833.16	16877
833.299	16873
833.437	17022
833.576	16957
833.714	17006
833.852	16930
833.991	16999
834.129	17029
834.267	17090
834.406	16946
834.544	16961
834.682	16972
834.821	17006
834.959	17098
835.097	16930
835.235	17105
835.373	17010
835.511	16923
835.65	16873
835.788	16892
835.926	16771
836.064	16660
836.202	16618
836.34	16892
836.478	17048
836.615	16862
836.753	16889
836.891	17010
837.029	16919
837.167	16824
837.305	16839
837.443	16717
837.58	16706
837.718	16904
837.856	16831
837.993	16740
838.131	16835
838.269	16626
838.406	16744
838.544	16664
838.681	16462
838.819	16360
838.956	16318
839.094	16280
839.231	16333
839.369	16519
839.506	16691
839.643	16546
839.781	16310
839.918	16169
840.055	16325
840.193	16272
840.33	16314
840.467	16238
840.604	16367
840.742	16561
840.879	16196
841.016	16135
841.153	16154
841.29	16360
841.427	16272
841.564	16211
841.701	16325
841.838	16272
841.975	16192
842.112	16143
842.249	16188
842.385	16029
842.522	16272
842.659	16067
842.796	16059
842.933	15953
843.069	16051
843.206	16029
843.343	16021
843.479	16090
843.616	15994
843.752	15903
843.889	15804
844.025	15937
844.162	15918
844.298	16059
844.435	15903
844.571	15755
844.708	15911
844.844	16044
844.98	16074
845.117	15987
845.253	15842
845.389	15770
845.525	15842
845.661	15884
845.798	15793
845.934	15922
846.07	15785
846.206	15884
846.342	15808
846.478	15736
846.614	15553
846.75	15431
846.886	15348
847.022	15466
847.158	15450
847.294	15473
847.429	15378
847.565	15504
847.701	15644
847.837	15123
847.972	15203
848.108	15260
848.244	15207
848.379	15081
848.515	15058
848.65	15036
848.786	15032
848.921	15093
849.057	15135
849.192	15100
849.328	15089
849.463	15051
849.598	14937
849.734	14910
849.869	14902
850.004	14769
850.14	14762
850.275	14811
850.41	14777
850.545	14758
850.68	14712
850.815	14826
850.95	14739
851.085	14849
851.22	14880
851.355	14838
851.49	14667
851.625	14750
851.76	14788
851.895	14693
852.03	14648
852.165	14762
852.299	14804
852.434	14887
852.569	14815
852.703	14815
852.838	14853
852.973	15009
853.107	14990
853.242	14823
853.376	14701
853.511	14590
853.645	14659
853.78	14708
853.914	14716
854.048	14594
854.183	14621
854.317	14705
854.451	14781
854.585	14697
854.72	14632
854.854	14739
854.988	14610
855.122	14598
855.256	14636
855.39	14644
855.524	14682
855.658	14693
855.792	14648
855.926	14731
856.06	14670
856.194	14731
856.327	14556
856.461	14545
856.595	14686
856.729	14651
856.862	14735
856.996	14602
857.13	14686
857.263	14777
857.397	14754
857.53	14682
857.664	14750
857.797	14796
857.931	14819
858.064	14815
858.197	14667
858.331	14655
858.464	14632
858.597	14621
858.731	14636
858.864	14613
858.997	14594
859.13	14610
859.263	14682
859.396	14705
859.529	14545
859.662	14640
859.795	14598
859.928	14731
860.061	14785
860.194	14762
860.327	14746
860.46	14724
860.592	14674
860.725	14739
860.858	14807
860.99	14682
861.123	14533
861.256	14579
861.388	14705
861.521	15306
861.653	14564
861.786	14552
861.918	14590
862.05	14606
862.183	14625
862.315	14724
862.447	14716
862.58	14667
862.712	14476
862.844	14381
862.976	14526
863.108	14404
863.24	14952
863.372	14370
863.504	14404
863.636	14385
863.768	14446
863.9	14423
864.032	14358
864.164	14381
864.296	14495
864.428	14518
864.559	14564
864.691	14613
864.823	14419
864.954	14446
865.086	14488
865.217	14370
865.349	14377
865.48	14393
865.612	14461
865.743	14598
865.875	14423
866.006	14362
866.137	14404
866.269	14476
866.4	14434
866.531	14370
866.662	14343
866.793	14362
866.924	14396
867.055	14328
867.186	14339
867.317	14393
867.448	14355
867.579	14355
867.71	14476
867.841	14286
867.972	14412
868.103	14320
868.233	14412
868.364	14374
868.495	14511
868.625	14674
868.756	14697
868.886	14621
869.017	14571
869.147	14644
869.278	14823
869.408	14720
869.539	14686
869.669	14693
869.799	14758
869.929	14785
870.06	14804
870.19	14952
870.32	14906
870.45	14948
870.58	14986
870.71	15104
870.84	15108
870.97	15077
871.1	15005
871.23	15112
871.36	15344
871.489	15176
871.619	15154
871.749	15207
871.879	15306
872.008	15310
872.138	15245
872.267	15108
872.397	15157
872.526	15097
872.656	15070
872.785	15024
872.915	15252
873.044	15405
873.173	15233
873.303	15408
873.432	15325
873.561	15336
873.69	15359
873.819	15348
873.948	15439
874.077	15401
874.206	15272
874.335	15359
874.464	15458
874.593	15625
874.722	15450
874.851	15671
874.979	15625
875.108	15690
875.237	15576
875.365	15473
875.494	15591
875.623	15686
875.751	15610
875.88	15690
876.008	15660
876.136	15755
876.265	15983
876.393	16162
876.521	16211
876.65	16147
876.778	16025
876.906	16002
877.034	15979
877.162	16010
877.29	15816
877.418	15934
877.546	16017
877.674	15915
877.802	15964
877.93	15975
878.058	15998
878.185	15960
878.313	16002
878.441	16177
878.568	15907
878.696	15975
878.824	16051
878.951	16101
879.079	16120
879.206	16409
879.333	16215
879.461	16131
879.588	16318
879.715	16310
879.842	16284
879.97	16135
880.097	15854
880.224	15941
880.351	15873
880.478	15998
880.605	15854
880.732	15854
880.859	16112
880.986	15835
881.112	15880
881.239	15785
881.366	15686
881.493	15564
881.619	15526
881.746	15686
881.872	15561
881.999	15469
882.125	15443
882.252	15542
882.378	15542
882.505	15599
882.631	15477
882.757	15329
882.883	15477
883.01	15382
883.136	15378
883.262	15199
883.388	15188
883.514	15275
883.64	15386
883.766	15348
883.892	15123
884.018	15211
884.143	15313
884.269	15367
884.395	15077
884.52	14982
884.646	15051
884.772	15013
884.897	14986
885.023	15123
885.148	15131
885.274	15203
885.399	15081
885.524	15097
885.65	15119
885.775	15127
885.9	15001
886.025	15180
886.15	15157
886.275	15009
886.4	15039
886.525	15009
886.65	14895
886.775	14914
886.9	15165
887.025	15249
887.149	15020
887.274	14891
887.399	14899
887.523	14834
887.648	14758
887.773	14887
887.897	14823
888.021	15024
888.146	14823
888.27	15009
888.395	14925
888.519	14994
888.643	14895
888.767	14910
888.891	14686
889.015	14712
889.139	14754
889.263	14705
889.387	14796
889.511	14918
889.635	14872
889.759	14705
889.883	14697
890.006	14720
890.13	14804
890.254	14655
890.377	14743
890.501	14606
890.624	14526
890.748	14629
890.871	14465
890.995	14393
891.118	14400
891.241	14400
891.364	14427
891.488	14511
891.611	14469
891.734	14351
891.857	14541
891.98	14507
892.103	14507
892.226	14404
892.349	14389
892.471	14248
892.594	14374
892.717	14457
892.839	14396
892.962	14400
893.085	14480
893.207	14381
893.33	14366
893.452	14301
893.575	14431
893.697	14355
893.819	14514
893.941	14560
894.064	14454
894.186	14317
894.308	14339
894.43	14469
894.552	14655
894.674	14522
894.796	14332
894.918	14533
895.04	14549
895.161	14632
895.283	14514
895.405	14404
895.526	14606
895.648	14446
895.769	14575
895.891	14590
896.012	14594
896.134	14568
896.255	14533
896.376	14511
896.498	14629
896.619	14594
896.74	14537
896.861	14648
896.982	14902
897.103	15081
897.224	14895
897.345	14872
897.466	14792
897.587	14792
897.708	14918
897.828	14880
897.949	14819
898.07	14746
898.19	14762
898.311	14918
898.431	14876
898.552	14914
898.672	15039
898.792	15001
898.913	14944
899.033	14792
899.153	14796
899.273	14621
899.393	14724
899.513	14758
899.633	14743
899.753	14750
899.873	14663
899.993	14800
900.113	14743
900.232	14788
900.352	14693
900.472	14705
900.591	14537
900.711	14670
900.83	14541
900.95	14788
901.069	14746
901.189	14598
901.308	14370
901.427	14271
901.546	14225
901.665	14290
901.784	14168
901.904	14202
902.023	14123
902.141	13982
902.26	13951
902.379	13913
902.498	13837
902.617	13830
902.735	13967
902.854	13849
902.973	13753
903.091	13567
903.21	13525
903.328	13533
903.446	13552
903.565	13449
903.683	13441
903.801	13236
903.919	13388
904.038	13365
904.156	13278
904.274	13335
904.392	13190
904.51	13175
904.627	13099
904.745	13304
904.863	13320
904.981	13012
905.098	12905
905.216	12935
905.334	12947
905.451	12939
905.569	12894
905.686	13038
905.803	12882
905.921	12749
906.038	12882
906.155	12757
906.272	12654
906.389	12658
906.506	12517
906.623	12528
906.74	12433
906.857	12448
906.974	12456
907.091	12547
907.208	12665
907.324	12544
907.441	12467
907.557	12289
907.674	12296
907.79	12205
907.907	12190
908.023	12277
908.139	12289
908.256	12232
908.372	12163
908.488	12148
908.604	11916
908.72	11946
908.836	11935
908.952	12011
909.068	11965
909.184	12091
909.3	11984
909.415	12015
909.531	12102
909.647	11783
909.762	11783
909.878	11729
909.993	11821
910.108	11684
910.224	11665
910.339	11726
910.454	11726
910.57	11619
910.685	11501
910.8	11817
910.915	11767
911.03	11592
911.145	11474
911.259	11444
911.374	11516
911.489	11421
911.604	11402
911.718	11265
911.833	11326
911.947	11033
912.062	10961
912.176	11201
912.291	11174
912.405	11227
912.519	11410
912.633	11448
912.748	11303
912.862	11223
912.976	11105
913.09	10968
913.204	11022
913.318	11094
913.431	11261
913.545	11121
913.659	11227
913.772	11166
913.886	10968
914	10980
914.113	11140
914.226	11189
914.34	11033
914.453	10854
914.566	11113
914.68	10927
914.793	10949
914.906	10790
915.019	10767
915.132	10580
915.245	10763
915.358	10782
915.47	10691
915.583	10782
915.696	10824
915.809	10862
915.921	10824
916.034	10763
916.146	10733
916.259	10596
916.371	10778
916.483	10801
916.595	10748
916.708	10717
916.82	10683
916.932	10687
917.044	10637
917.156	10656
917.268	10459
917.38	10474
917.491	10519
917.603	10596
917.715	10782
917.826	10626
917.938	10558
918.049	10470
918.161	10542
918.272	10694
918.384	10637
918.495	10618
918.606	10485
918.717	10447
918.828	10462
918.939	10474
919.05	10432
919.161	10440
919.272	10344
919.383	10379
919.494	10478
919.604	10569
919.715	10531
919.826	10394
919.936	10470
920.047	10550
920.157	10500
920.267	10710
920.378	10630
920.488	10504
920.598	10664
920.708	10786
920.818	10599
920.928	10653
921.038	10831
921.148	10820
921.258	10577
921.368	10402
921.477	10379
921.587	10322
921.697	10215
921.806	10352
921.916	10200
922.025	10067
922.134	9991
922.244	9956
922.353	10090
922.462	9918
922.571	9857
922.68	9717
922.789	9701
922.898	9747
923.007	9652
923.116	9808
923.224	9732
923.333	9686
923.442	9557
923.55	9564
923.659	9576
923.767	9698
923.876	9523
923.984	9606
924.092	9488
924.201	9572
924.309	9580
924.417	9595
924.525	9447
924.633	9523
924.741	10303
924.849	9378
924.956	9374
925.064	9325
925.172	9264
925.279	9279
925.387	9374
925.494	9325
925.602	9462
925.709	9504
925.816	9264
925.924	9336
926.031	9416
926.138	9344
926.245	9336
926.352	9272
926.459	9435
926.566	9500
926.673	9264
926.779	9176
926.886	9195
926.993	9058
927.099	9066
927.206	8994
927.312	9047
927.419	9100
927.525	9043
927.631	9081
927.737	8967
927.843	8937
927.95	8891
928.056	8853
928.162	8967
928.267	8990
928.373	9580
928.479	8990
928.585	8788
928.69	8902
928.796	8994
928.901	8834
929.007	8735
929.112	8857
929.218	8872
929.323	8758
929.428	8743
929.533	8929
929.638	8686
929.743	8720
929.848	8800
929.953	8727
930.058	8625
930.163	8511
930.267	8507
930.372	8724
930.477	8587
930.581	8746
930.685	8644
930.79	8423
930.894	8545
930.998	8495
931.103	8537
931.207	8233
931.311	8145
931.415	8096
931.519	7959
931.623	7982
