Data from test_V78500241_172.txt Node
Date: Fri Mar 25 14:34:55 CST 2022
User: usil
Spectrometer: V785-0024
Trigger mode: 0
Integration Time (sec): 4.000000E-1
Scans to average: 1
Nonlinearity correction enabled: false
Boxcar width: 0
Storing dark spectrum: false
XAxis mode: Wavelengths
Number of Pixels in Spectrum: 1024
>>>>>Begin Spectral Data<<<<<
801.071	28710
801.214	28603
801.356	28405
801.499	28147
801.641	28063
801.783	28010
801.926	28105
802.068	27945
802.211	27873
802.353	27876
802.496	27739
802.638	27709
802.78	27587
802.923	27576
803.065	27591
803.208	27538
803.35	27652
803.492	27755
803.635	27895
803.777	27633
803.919	27835
804.061	28036
804.204	27861
804.346	27629
804.488	27564
804.63	27629
804.773	27572
804.915	27720
805.057	27793
805.199	27759
805.341	27720
805.483	27930
805.626	27804
805.768	27759
805.91	27895
806.052	27857
806.194	27876
806.336	28093
806.478	27895
806.62	27956
806.762	27983
806.904	28207
807.046	28512
807.188	28428
807.33	28538
807.472	28649
807.614	28527
807.756	28672
807.898	28672
808.04	28961
808.182	29128
808.324	29505
808.465	29794
808.607	30346
808.749	30688
808.891	31050
809.033	30989
809.174	30726
809.316	30338
809.458	30003
809.6	29505
809.741	29406
809.883	29151
810.025	29155
810.166	28976
810.308	28984
810.45	28816
810.591	28698
810.733	28398
810.875	28379
811.016	28291
811.158	28204
811.299	28447
811.441	28535
811.582	28280
811.724	28147
811.865	28173
812.007	28093
812.148	28356
812.29	28128
812.431	28249
812.573	28382
812.714	28557
812.855	28508
812.997	28634
813.138	28755
813.279	28839
813.421	28675
813.562	28462
813.703	28318
813.845	28261
813.986	27918
814.127	27770
814.268	27690
814.41	27682
814.551	27701
814.692	27732
814.833	27682
814.974	27686
815.115	27610
815.256	27492
815.397	27492
815.539	27576
815.68	27245
815.821	27165
815.962	27306
816.103	27401
816.244	27176
816.385	27165
816.526	27013
816.666	26834
816.807	26838
816.948	26861
817.089	26868
817.23	26815
817.371	26823
817.512	26842
817.653	26746
817.793	26731
817.934	26834
818.075	26739
818.216	26686
818.356	26678
818.497	26587
818.638	26511
818.778	26480
818.919	26469
819.06	26473
819.2	26564
819.341	26461
819.481	26689
819.622	26746
819.762	27009
819.903	26921
820.043	26769
820.184	26731
820.324	26678
820.465	26712
820.605	26727
820.746	26549
820.886	26465
821.026	26587
821.167	26594
821.307	26644
821.447	26670
821.588	26503
821.728	26332
821.868	26153
822.008	26024
822.149	26043
822.289	25989
822.429	25719
822.569	25708
822.709	25518
822.849	25445
822.99	25578
823.13	25457
823.27	25289
823.41	25369
823.55	25126
823.69	25324
823.83	25240
823.97	25255
824.11	25034
824.25	25061
824.389	25072
824.529	25050
824.669	25175
824.809	25084
824.949	25034
825.089	25133
825.228	24989
825.368	24894
825.508	24859
825.648	24844
825.787	24829
825.927	24935
826.067	24768
826.206	24791
826.346	24859
826.485	24840
826.625	24760
826.765	25004
826.904	24829
827.044	24566
827.183	24582
827.323	24540
827.462	24494
827.601	24467
827.741	24418
827.88	24559
828.02	24403
828.159	24395
828.298	24418
828.437	24502
828.577	24475
828.716	24597
828.855	24475
828.994	24015
829.134	24281
829.273	24216
829.412	24129
829.551	24083
829.69	24140
829.829	24129
829.968	24300
830.107	24144
830.246	24228
830.385	24148
830.524	24079
830.663	23828
830.802	23851
830.941	23707
831.08	23756
831.219	23802
831.357	23764
831.496	23863
831.635	23752
831.774	23608
831.913	23703
832.051	23417
832.19	23516
832.329	23596
832.467	23398
832.606	23349
832.744	23360
832.883	23296
833.022	23277
833.16	23364
833.299	23429
833.437	23398
833.576	23379
833.714	23509
833.852	23581
833.991	23516
834.129	23630
834.267	23531
834.406	23448
834.544	23600
834.682	23478
834.821	23398
834.959	23604
835.097	23505
835.235	23425
835.373	23417
835.511	23345
835.65	23269
835.788	23288
835.926	23181
836.064	22900
836.202	23075
836.34	23041
836.478	23273
836.615	23159
836.753	23155
836.891	23269
837.029	23143
837.167	23155
837.305	23113
837.443	23003
837.58	23006
837.718	22965
837.856	22953
837.993	22915
838.131	23018
838.269	22839
838.406	22953
838.544	22850
838.681	22683
838.819	22554
838.956	22379
839.094	22284
839.231	22474
839.369	22634
839.506	22790
839.643	22656
839.781	22371
839.918	22268
840.055	22344
840.193	22306
840.33	22257
840.467	22325
840.604	22280
840.742	22554
840.879	22196
841.016	22173
841.153	22185
841.29	22390
841.427	22329
841.564	22299
841.701	22246
841.838	22265
841.975	22162
842.112	22284
842.249	22093
842.385	21937
842.522	22257
842.659	22074
842.796	21991
842.933	21888
843.069	21915
843.206	21964
843.343	22124
843.479	21960
843.616	22025
843.752	21739
843.889	21797
844.025	21987
844.162	21850
844.298	21876
844.435	21804
844.571	21846
844.708	21854
844.844	22048
844.98	22029
845.117	22059
845.253	22090
845.389	22188
845.525	22672
845.661	23242
845.798	23897
845.934	24559
846.07	24719
846.206	24711
846.342	24296
846.478	23493
846.614	22519
846.75	22093
846.886	21705
847.022	21591
847.158	21424
847.294	21370
847.429	21268
847.565	21245
847.701	21355
847.837	21077
847.972	20880
848.108	20956
848.244	20933
848.379	20830
848.515	20708
848.65	20727
848.786	20670
848.921	20785
849.057	20830
849.192	20750
849.328	20823
849.463	20804
849.598	20587
849.734	20552
849.869	20613
850.004	20427
850.14	20419
850.275	20514
850.41	20476
850.545	20427
850.68	20320
850.815	20450
850.95	20434
851.085	20655
851.22	20507
851.355	20473
851.49	20434
851.625	20450
851.76	20374
851.895	20370
852.03	20309
852.165	20370
852.299	20423
852.434	20507
852.569	20438
852.703	20465
852.838	20552
852.973	20598
853.107	20552
853.242	20381
853.376	20214
853.511	20237
853.645	20164
853.78	20294
853.914	20218
854.048	20244
854.183	20339
854.317	20278
854.451	20476
854.585	20347
854.72	20221
854.854	20317
854.988	20229
855.122	20358
855.256	20202
855.39	20183
855.524	20252
855.658	20324
855.792	20172
855.926	20393
856.06	20256
856.194	20381
856.327	20396
856.461	20202
856.595	20084
856.729	20122
856.862	20229
856.996	20195
857.13	20320
857.263	20313
857.397	20237
857.53	20233
857.664	20244
857.797	20218
857.931	20374
858.064	20187
858.197	20301
858.331	20164
858.464	20206
858.597	20084
858.731	20046
858.864	20218
858.997	20149
859.13	20263
859.263	20157
859.396	20180
859.529	20187
859.662	20267
859.795	20096
859.928	20157
860.061	20324
860.194	20488
860.327	20206
860.46	20191
860.592	20229
860.725	20237
860.858	20305
860.99	20176
861.123	20126
861.256	20096
861.388	20176
861.521	20788
861.653	20020
861.786	19955
861.918	20039
862.05	20164
862.183	20115
862.315	20233
862.447	20343
862.58	20084
862.712	19959
862.844	19837
862.976	20054
863.108	19947
863.24	20298
863.372	19784
863.504	19967
863.636	19955
863.768	19944
863.9	19917
864.032	19852
864.164	19742
864.296	19807
864.428	19947
864.559	19902
864.691	19982
864.823	19845
864.954	19845
865.086	19746
865.217	19818
865.349	19696
865.48	19772
865.612	19818
865.743	19932
865.875	19795
866.006	19746
866.137	19731
866.269	19727
866.4	19841
866.531	19731
866.662	19609
866.793	19719
866.924	19734
867.055	19696
867.186	19795
867.317	19594
867.448	19563
867.579	19613
867.71	19616
867.841	19677
867.972	19693
868.103	19696
868.233	19647
868.364	19727
868.495	19666
868.625	19955
868.756	19974
868.886	19917
869.017	19947
869.147	19970
869.278	20084
869.408	19909
869.539	19890
869.669	20027
869.799	19833
869.929	20024
870.06	20050
870.19	20206
870.32	20259
870.45	20339
870.58	20385
870.71	20507
870.84	20446
870.97	20317
871.1	20423
871.23	20450
871.36	20431
871.489	20465
871.619	20431
871.749	20549
871.879	20594
872.008	20708
872.138	20522
872.267	20697
872.397	20442
872.526	20404
872.656	20347
872.785	20355
872.915	20621
873.044	20659
873.173	20598
873.303	20716
873.432	20629
873.561	20708
873.69	20648
873.819	20613
873.948	20632
874.077	20632
874.206	20571
874.335	20735
874.464	20750
874.593	20826
874.722	20845
874.851	20918
874.979	20811
875.108	20971
875.237	20845
875.365	20796
875.494	20838
875.623	20956
875.751	20834
875.88	21039
876.008	20990
876.136	21074
876.265	21264
876.393	21454
876.521	21359
876.65	21458
876.778	21332
876.906	21363
877.034	21340
877.162	21340
877.29	21313
877.418	21428
877.546	21488
877.674	21287
877.802	21279
877.93	21481
878.058	21382
878.185	21393
878.313	21485
878.441	21481
878.568	21351
878.696	21462
878.824	21686
878.951	21934
879.079	22188
879.206	22398
879.333	22694
879.461	22668
879.588	23041
879.715	22923
879.842	22946
879.97	22599
880.097	22112
880.224	21781
880.351	21888
880.478	21694
880.605	21538
880.732	21564
880.859	21671
880.986	21557
881.112	21492
881.239	21412
881.366	21275
881.493	21260
881.619	21032
881.746	21150
881.872	21081
881.999	21195
882.125	21074
882.252	21074
882.378	21032
882.505	21104
882.631	20944
882.757	20986
882.883	21024
883.01	20819
883.136	20880
883.262	20853
883.388	20640
883.514	20902
883.64	20872
883.766	20758
883.892	20613
884.018	20754
884.143	20788
884.269	20845
884.395	20587
884.52	20560
884.646	20503
884.772	20556
884.897	20423
885.023	20579
885.148	20492
885.274	20689
885.399	20492
885.524	20457
885.65	20446
885.775	20571
885.9	20484
886.025	20461
886.15	20484
886.275	20237
886.4	20339
886.525	20286
886.65	20286
886.775	20259
886.9	20286
887.025	20355
887.149	20237
887.274	20073
887.399	20142
887.523	20073
887.648	20020
887.773	19868
887.897	20157
888.021	19940
888.146	20001
888.27	20050
888.395	20039
888.519	20035
888.643	19963
888.767	20096
888.891	19875
889.015	19772
889.139	19788
889.263	19753
889.387	19765
889.511	19967
889.635	19818
889.759	19571
889.883	19704
890.006	19651
890.13	19879
890.254	19571
890.377	19658
890.501	19464
890.624	19430
890.748	19575
890.871	19365
890.995	19206
891.118	19187
891.241	19350
891.364	19259
891.488	19312
891.611	19266
891.734	19308
891.857	19324
891.98	19190
892.103	19324
892.226	19278
892.349	19145
892.471	19034
892.594	19118
892.717	19095
892.839	19221
892.962	19160
893.085	19293
893.207	19236
893.33	19042
893.452	19164
893.575	19160
893.697	18985
893.819	19365
893.941	19259
894.064	19187
894.186	19103
894.308	18977
894.43	19187
894.552	19228
894.674	19194
894.796	19065
894.918	19266
895.04	19046
895.161	19168
895.283	19099
895.405	19042
895.526	19088
895.648	19019
895.769	19038
895.891	19255
896.012	19247
896.134	19034
896.255	19141
896.376	19110
896.498	19160
896.619	19228
896.74	19137
896.861	19358
896.982	19464
897.103	19567
897.224	19529
897.345	19327
897.466	19354
897.587	19419
897.708	19445
897.828	19411
897.949	19274
898.07	19240
898.19	19259
898.311	19495
898.431	19308
898.552	19278
898.672	19381
898.792	19400
898.913	19297
899.033	19194
899.153	19129
899.273	19046
899.393	19031
899.513	19084
899.633	19057
899.753	19114
899.873	19046
899.993	19065
900.113	18970
900.232	19099
900.352	18951
900.472	18939
900.591	18825
900.711	18878
900.83	18852
900.95	19099
901.069	19091
901.189	18852
901.308	18540
901.427	18589
901.546	18528
901.665	18532
901.784	18502
901.904	18407
902.023	18334
902.141	18201
902.26	18072
902.379	18144
902.498	18034
902.617	17973
902.735	18007
902.854	18102
902.973	17901
903.091	17634
903.21	17581
903.328	17684
903.446	17505
903.565	17452
903.683	17581
903.801	17341
903.919	17379
904.038	17539
904.156	17250
904.274	17299
904.392	17322
904.51	17098
904.627	17288
904.745	17299
904.863	17223
904.981	16972
905.098	16877
905.216	16881
905.334	16923
905.451	16927
905.569	16847
905.686	16892
905.803	16866
905.921	16675
906.038	16778
906.155	16691
906.272	16584
906.389	16580
906.506	16413
906.623	16402
906.74	16402
906.857	16268
906.974	16310
907.091	16451
907.208	16455
907.324	16367
907.441	16207
907.557	16215
907.674	16162
907.79	16051
907.907	16055
908.023	16105
908.139	16090
908.256	16002
908.372	15953
908.488	15953
908.604	15880
908.72	15808
908.836	15770
908.952	15701
909.068	15732
909.184	15854
909.3	15793
909.415	15846
909.531	15724
909.647	15561
909.762	15447
909.878	15454
909.993	15542
910.108	15408
910.224	15386
910.339	15416
910.454	15401
910.57	15340
910.685	15211
910.8	15477
910.915	15378
911.03	15230
911.145	15131
911.259	15024
911.374	15116
911.489	14975
911.604	15039
911.718	14826
911.833	14781
911.947	14731
912.062	14735
912.176	14872
912.291	14731
912.405	14857
912.519	14925
912.633	15020
912.748	14914
912.862	14758
912.976	14629
913.09	14511
913.204	14587
913.318	14533
913.431	14739
913.545	14743
913.659	14670
913.772	14648
913.886	14484
914	14484
914.113	14469
914.226	14651
914.34	14533
914.453	14229
914.566	14404
914.68	14377
914.793	14317
914.906	14153
915.019	14130
915.132	14073
915.245	14103
915.358	14126
915.47	14142
915.583	14103
915.696	14126
915.809	14149
915.921	14256
916.034	14088
916.146	13982
916.259	13947
916.371	13993
916.483	14119
916.595	13883
916.708	13944
916.82	13936
916.932	13830
917.044	13936
917.156	13887
917.268	13742
917.38	13803
917.491	13826
917.603	13746
917.715	13871
917.826	13807
917.938	13769
918.049	13643
918.161	13719
918.272	13864
918.384	13890
918.495	13670
918.606	13578
918.717	13480
918.828	13601
918.939	13499
919.05	13476
919.161	13457
919.272	13308
919.383	13324
919.494	13609
919.604	13723
919.715	13529
919.826	13499
919.936	13476
920.047	13510
920.157	13510
920.267	13655
920.378	13426
920.488	13597
920.598	13666
920.708	13742
920.818	13597
920.928	13521
921.038	13776
921.148	13731
921.258	13422
921.368	13255
921.477	13232
921.587	13255
921.697	13137
921.806	13274
921.916	13110
922.025	12954
922.134	12882
922.244	12878
922.353	12928
922.462	12730
922.571	12703
922.68	12563
922.789	12574
922.898	12536
923.007	12464
923.116	12570
923.224	12528
923.333	12566
923.442	12479
923.55	12285
923.659	12380
923.767	12372
923.876	12376
923.984	12391
924.092	12300
924.201	12262
924.309	12239
924.417	12277
924.525	12262
924.633	12277
924.741	13171
924.849	11992
924.956	12262
925.064	12034
925.172	11946
925.279	12034
925.387	11969
925.494	12098
925.602	12171
925.709	12034
925.816	11901
925.924	12030
926.031	12041
926.138	12038
926.245	11965
926.352	11836
926.459	12003
926.566	12140
926.673	11855
926.779	11729
926.886	11809
926.993	11619
927.099	11695
927.206	11554
927.312	11672
927.419	11699
927.525	11581
927.631	11646
927.737	11516
927.843	11535
927.95	11398
928.056	11429
928.162	11493
928.267	11455
928.373	12148
928.479	11524
928.585	11372
928.69	11501
928.796	11425
928.901	11322
929.007	11181
929.112	11341
929.218	11288
929.323	11303
929.428	11254
929.533	11315
929.638	11159
929.743	11159
929.848	11227
929.953	11166
930.058	11140
930.163	10927
930.267	10949
930.372	11094
930.477	10850
930.581	11113
930.685	10908
930.79	10771
930.894	10885
930.998	10797
931.103	10980
931.207	10588
931.311	10424
931.415	10409
931.519	10284
931.623	10207
