Data from test_V78500241_2067.txt Node
Date: Fri Mar 25 14:48:06 CST 2022
User: usil
Spectrometer: V785-0024
Trigger mode: 0
Integration Time (sec): 4.000000E-1
Scans to average: 1
Nonlinearity correction enabled: false
Boxcar width: 0
Storing dark spectrum: false
XAxis mode: Wavelengths
Number of Pixels in Spectrum: 1024
>>>>>Begin Spectral Data<<<<<
801.071	22116
801.214	21987
801.356	21823
801.499	21656
801.641	21530
801.783	21389
801.926	21644
802.068	21412
802.211	21306
802.353	21214
802.496	21058
802.638	20963
802.78	20979
802.923	20872
803.065	20876
803.208	20792
803.35	20788
803.492	20956
803.635	21051
803.777	20754
803.919	20883
804.061	21157
804.204	20914
804.346	20765
804.488	20701
804.63	20838
804.773	20788
804.915	20834
805.057	20819
805.199	20743
805.341	20819
805.483	20807
805.626	20880
805.768	20575
805.91	20659
806.052	20743
806.194	20667
806.336	20910
806.478	20769
806.62	20693
806.762	20868
806.904	20960
807.046	21142
807.188	20998
807.33	21100
807.472	21230
807.614	20842
807.756	20956
807.898	20880
808.04	20758
808.182	20800
808.324	20800
808.465	20906
808.607	21036
808.749	21154
808.891	21336
809.033	21306
809.174	21264
809.316	21146
809.458	21123
809.6	21062
809.741	21287
809.883	21127
810.025	21275
810.166	21184
810.308	21393
810.45	21294
810.591	21180
810.733	20868
810.875	20979
811.016	20705
811.158	20769
811.299	20929
811.441	20967
811.582	20937
811.724	20895
811.865	20880
812.007	20895
812.148	20891
812.29	20872
812.431	21142
812.573	21104
812.714	21287
812.855	21294
812.997	21492
813.138	21614
813.279	21507
813.421	21416
813.562	21344
813.703	21119
813.845	21085
813.986	20667
814.127	20579
814.268	20587
814.41	20514
814.551	20358
814.692	20431
814.833	20374
814.974	20476
815.115	20362
815.256	20229
815.397	20225
815.539	20332
815.68	20176
815.821	20176
815.962	20176
816.103	20206
816.244	19970
816.385	19852
816.526	19833
816.666	19624
816.807	19438
816.948	19647
817.089	19700
817.23	19552
817.371	19563
817.512	19590
817.653	19518
817.793	19430
817.934	19537
818.075	19506
818.216	19613
818.356	19502
818.497	19377
818.638	19255
818.778	19312
818.919	19133
819.06	19400
819.2	19362
819.341	19407
819.481	19457
819.622	19597
819.762	19712
819.903	19784
820.043	19677
820.184	19544
820.324	19628
820.465	19658
820.605	19609
820.746	19609
820.886	19213
821.026	19525
821.167	19502
821.307	19620
821.447	19441
821.588	19331
821.728	19236
821.868	19133
822.008	18993
822.149	18920
822.289	18779
822.429	18703
822.569	18582
822.709	18639
822.849	18399
822.99	18475
823.13	18353
823.27	18277
823.41	18315
823.55	18174
823.69	18136
823.83	18292
823.97	18182
824.11	18030
824.25	17961
824.389	17950
824.529	18091
824.669	18007
824.809	18076
824.949	18022
825.089	18041
825.228	18015
825.368	17855
825.508	17802
825.648	17798
825.787	17802
825.927	17771
826.067	17691
826.206	17771
826.346	17672
826.485	17783
826.625	17874
826.765	17874
826.904	17882
827.044	17604
827.183	17570
827.323	17516
827.462	17543
827.601	17638
827.741	17452
827.88	17516
828.02	17311
828.159	17398
828.298	17436
828.437	17566
828.577	17524
828.716	17653
828.855	17337
828.994	17269
829.134	17315
829.273	17318
829.412	17185
829.551	17216
829.69	17204
829.829	17265
829.968	17277
830.107	17330
830.246	17246
830.385	17208
830.524	17174
830.663	17052
830.802	17067
830.941	16790
831.08	16828
831.219	16934
831.357	16965
831.496	17037
831.635	16839
831.774	16778
831.913	16755
832.051	16630
832.19	16645
832.329	16637
832.467	16584
832.606	16592
832.744	16493
832.883	16432
833.022	16569
833.16	16615
833.299	16603
833.437	16440
833.576	16550
833.714	16554
833.852	16691
833.991	16588
834.129	16637
834.267	16618
834.406	16561
834.544	16554
834.682	16656
834.821	16596
834.959	16702
835.097	16462
835.235	16706
835.373	16656
835.511	16675
835.65	16565
835.788	16504
835.926	16314
836.064	16287
836.202	16341
836.34	16497
836.478	16736
836.615	16558
836.753	16516
836.891	16634
837.029	16504
837.167	16523
837.305	16417
837.443	16428
837.58	16421
837.718	16481
837.856	16284
837.993	16356
838.131	16417
838.269	16303
838.406	16333
838.544	16150
838.681	16101
838.819	16044
838.956	15937
839.094	16017
839.231	15953
839.369	16112
839.506	16390
839.643	16268
839.781	15899
839.918	15911
840.055	15991
840.193	15876
840.33	15926
840.467	15930
840.604	15979
840.742	16276
840.879	15823
841.016	15854
841.153	15899
841.29	16101
841.427	15972
841.564	15926
841.701	15934
841.838	15842
841.975	15819
842.112	15922
842.249	15762
842.385	15717
842.522	15968
842.659	15717
842.796	15644
842.933	15770
843.069	15667
843.206	15705
843.343	15812
843.479	15724
843.616	15766
843.752	15473
843.889	15481
844.025	15759
844.162	15431
844.298	15572
844.435	15439
844.571	15454
844.708	15625
844.844	15625
844.98	15606
845.117	15485
845.253	15401
845.389	15389
845.525	15462
845.661	15500
845.798	15310
845.934	15367
846.07	15325
846.206	15359
846.342	15450
846.478	15226
846.614	15161
846.75	15100
846.886	15222
847.022	15112
847.158	15165
847.294	15093
847.429	14986
847.565	15104
847.701	15275
847.837	14781
847.972	14754
848.108	14929
848.244	14807
848.379	14746
848.515	14655
848.65	14651
848.786	14613
848.921	14621
849.057	14769
849.192	14716
849.328	14712
849.463	14735
849.598	14602
849.734	14579
849.869	14461
850.004	14412
850.14	14408
850.275	14541
850.41	14290
850.545	14320
850.68	14446
850.815	14396
850.95	14431
851.085	14560
851.22	14617
851.355	14427
851.49	14492
851.625	14526
851.76	14415
851.895	14339
852.03	14351
852.165	14355
852.299	14484
852.434	14530
852.569	14465
852.703	14545
852.838	14590
852.973	14514
853.107	14522
853.242	14400
853.376	14252
853.511	14214
853.645	14282
853.78	14431
853.914	14355
854.048	14267
854.183	14199
854.317	14309
854.451	14465
854.585	14347
854.72	14206
854.854	14389
854.988	14202
855.122	14320
855.256	14145
855.39	14271
855.524	14377
855.658	14309
855.792	14358
855.926	14396
856.06	14278
856.194	14400
856.327	14233
856.461	14278
856.595	14191
856.729	14347
856.862	14396
856.996	14393
857.13	14415
857.263	14423
857.397	14446
857.53	14271
857.664	14305
857.797	14355
857.931	14438
858.064	14259
858.197	14427
858.331	14355
858.464	14332
858.597	14256
858.731	14332
858.864	14324
858.997	14263
859.13	14324
859.263	14355
859.396	14377
859.529	14286
859.662	14221
859.795	14210
859.928	14290
860.061	14461
860.194	14423
860.327	14366
860.46	14328
860.592	14404
860.725	14442
860.858	14408
860.99	14259
861.123	14271
861.256	14256
861.388	14301
861.521	14929
861.653	14237
861.786	14119
861.918	14157
862.05	14290
862.183	14275
862.315	14286
862.447	14309
862.58	14252
862.712	14115
862.844	14172
862.976	14183
863.108	14107
863.24	14427
863.372	13982
863.504	14073
863.636	13993
863.768	14176
863.9	14069
864.032	14005
864.164	14073
864.296	14119
864.428	14259
864.559	14168
864.691	14145
864.823	14111
864.954	14172
865.086	14206
865.217	14073
865.349	13974
865.48	14092
865.612	14092
865.743	14248
865.875	14092
866.006	14008
866.137	14123
866.269	14035
866.4	14039
866.531	13989
866.662	14043
866.793	14016
866.924	14035
867.055	14149
867.186	14084
867.317	13940
867.448	13947
867.579	13902
867.71	14050
867.841	14054
867.972	14088
868.103	14016
868.233	14031
868.364	14039
868.495	14153
868.625	14259
868.756	14404
868.886	14271
869.017	14259
869.147	14450
869.278	14507
869.408	14317
869.539	14347
869.669	14434
869.799	14301
869.929	14511
870.06	14427
870.19	14629
870.32	14537
870.45	14663
870.58	14682
870.71	14891
870.84	14804
870.97	14769
871.1	14663
871.23	14906
871.36	14925
871.489	14823
871.619	14819
871.749	14979
871.879	14933
872.008	14914
872.138	14952
872.267	14937
872.397	14712
872.526	14743
872.656	14655
872.785	14754
872.915	14975
873.044	15051
873.173	14994
873.303	14990
873.432	14956
873.561	15062
873.69	14960
873.819	14967
873.948	15039
874.077	14944
874.206	14902
874.335	15039
874.464	15169
874.593	15336
874.722	15203
874.851	15283
874.979	15336
875.108	15268
875.237	15272
875.365	15116
875.494	15214
875.623	15367
875.751	15176
875.88	15344
876.008	15408
876.136	15538
876.265	15671
876.393	15823
876.521	15846
876.65	15739
876.778	15751
876.906	15644
877.034	15591
877.162	15751
877.29	15614
877.418	15660
877.546	15682
877.674	15671
877.802	15728
877.93	15698
878.058	15622
878.185	15660
878.313	15587
878.441	15705
878.568	15435
878.696	15656
878.824	15656
878.951	15793
879.079	15876
879.206	15922
879.333	15934
879.461	15732
879.588	15766
879.715	15884
879.842	16101
879.97	15842
880.097	15466
880.224	15496
880.351	15572
880.478	15584
880.605	15572
880.732	15637
880.859	15827
880.986	15557
881.112	15504
881.239	15485
881.366	15359
881.493	15279
881.619	15226
881.746	15142
881.872	15302
881.999	15146
882.125	15081
882.252	15241
882.378	15195
882.505	15355
882.631	15154
882.757	15005
882.883	15127
883.01	15066
883.136	14975
883.262	14902
883.388	14914
883.514	15020
883.64	15058
883.766	14883
883.892	14899
884.018	14891
884.143	15005
884.269	15116
884.395	14708
884.52	14743
884.646	14739
884.772	14602
884.897	14568
885.023	14712
885.148	14895
885.274	14963
885.399	14754
885.524	14644
885.65	14781
885.775	14739
885.9	14640
886.025	14842
886.15	14826
886.275	14750
886.4	14579
886.525	14716
886.65	14556
886.775	14712
886.9	14792
887.025	14929
887.149	14674
887.274	14522
887.399	14469
887.523	14549
887.648	14434
887.773	14575
887.897	14667
888.021	14644
888.146	14568
888.27	14644
888.395	14727
888.519	14541
888.643	14594
888.767	14579
888.891	14480
889.015	14450
889.139	14461
889.263	14415
889.387	14431
889.511	14541
889.635	14484
889.759	14355
889.883	14423
890.006	14522
890.13	14552
890.254	14362
890.377	14351
890.501	14252
890.624	14244
890.748	14256
890.871	14218
890.995	14115
891.118	14092
891.241	14107
891.364	14180
891.488	14180
891.611	14183
891.734	14164
891.857	14161
891.98	14115
892.103	14221
892.226	14073
892.349	14115
892.471	13967
892.594	14130
892.717	14168
892.839	14054
892.962	14115
893.085	14161
893.207	14168
893.33	13993
893.452	14054
893.575	14065
893.697	14039
893.819	14294
893.941	14374
894.064	14275
894.186	14134
894.308	14100
894.43	14267
894.552	14343
894.674	14259
894.796	14149
894.918	14092
895.04	14069
895.161	14301
895.283	14210
895.405	14202
895.526	14195
895.648	14336
895.769	14282
895.891	14252
896.012	14351
896.134	14332
896.255	14286
896.376	14240
896.498	14282
896.619	14347
896.74	14381
896.861	14347
896.982	14686
897.103	14708
897.224	14617
897.345	14488
897.466	14526
897.587	14617
897.708	14686
897.828	14564
897.949	14533
898.07	14473
898.19	14575
898.311	14731
898.431	14651
898.552	14705
898.672	14796
898.792	14800
898.913	14651
899.033	14545
899.153	14507
899.273	14446
899.393	14454
899.513	14533
899.633	14446
899.753	14568
899.873	14423
899.993	14670
900.113	14450
900.232	14518
900.352	14480
900.472	14404
900.591	14309
900.711	14343
900.83	14240
900.95	14415
901.069	14438
901.189	14336
901.308	14073
901.427	13967
901.546	14005
901.665	14058
901.784	14149
901.904	13822
902.023	13772
902.141	13609
902.26	13548
902.379	13685
902.498	13655
902.617	13487
902.735	13685
902.854	13597
902.973	13487
903.091	13308
903.21	13369
903.328	13400
903.446	13198
903.565	13149
903.683	13175
903.801	13137
903.919	13228
904.038	13137
904.156	12897
904.274	13088
904.392	12951
904.51	12932
904.627	12954
904.745	13015
904.863	13034
904.981	12791
905.098	12688
905.216	12684
905.334	12726
905.451	12707
905.569	12749
905.686	12757
905.803	12673
905.921	12551
906.038	12547
906.155	12494
906.272	12498
906.389	12426
906.506	12235
906.623	12251
906.74	12224
906.857	12155
906.974	12228
907.091	12388
907.208	12395
907.324	12346
907.441	12178
907.557	12019
907.674	12083
907.79	11851
907.907	12019
908.023	12038
908.139	12019
908.256	11996
908.372	11965
908.488	11859
908.604	11805
908.72	11764
908.836	11748
908.952	11756
909.068	11779
909.184	11832
909.3	11756
909.415	11855
909.531	11821
909.647	11554
909.762	11570
909.878	11535
909.993	11558
910.108	11524
910.224	11509
910.339	11562
910.454	11448
910.57	11398
910.685	11292
910.8	11608
910.915	11486
911.03	11349
911.145	11299
911.259	11261
911.374	11181
911.489	11181
911.604	11105
911.718	11025
911.833	11041
911.947	10915
912.062	10854
912.176	10949
912.291	11018
912.405	11075
912.519	11223
912.633	11280
912.748	11045
912.862	11022
912.976	10873
913.09	10782
913.204	10801
913.318	10828
913.431	10946
913.545	11003
913.659	10980
913.772	10866
913.886	10801
914	10733
914.113	10759
914.226	10850
914.34	10801
914.453	10653
914.566	10805
914.68	10691
914.793	10683
914.906	10508
915.019	10523
915.132	10432
915.245	10455
915.358	10569
915.47	10596
915.583	10546
915.696	10615
915.809	10653
915.921	10679
916.034	10443
916.146	10478
916.259	10443
916.371	10546
916.483	10447
916.595	10432
916.708	10466
916.82	10428
916.932	10504
917.044	10344
917.156	10375
917.268	10287
917.38	10371
917.491	10318
917.603	10402
917.715	10405
917.826	10481
917.938	10394
918.049	10268
918.161	10303
918.272	10497
918.384	10504
918.495	10386
918.606	10303
918.717	10147
918.828	10280
918.939	10246
919.05	10196
919.161	10253
919.272	10071
919.383	10071
919.494	10280
919.604	10405
919.715	10276
919.826	10177
919.936	10158
920.047	10299
920.157	10215
920.267	10516
920.378	10246
920.488	10261
920.598	10390
920.708	10512
920.818	10382
920.928	10443
921.038	10656
921.148	10428
921.258	10238
921.368	10196
921.477	10067
921.587	10032
921.697	9960
921.806	10078
921.916	9918
922.025	9778
922.134	9823
922.244	9770
922.353	9812
922.462	9648
922.571	9557
922.68	9519
922.789	9466
922.898	9500
923.007	9454
923.116	9526
923.224	9492
923.333	9458
923.442	9412
923.55	9370
923.659	9408
923.767	9443
923.876	9420
923.984	9488
924.092	9340
924.201	9275
924.309	9363
924.417	9272
924.525	9283
924.633	9329
924.741	10223
924.849	9119
924.956	9264
925.064	9123
925.172	9032
925.279	9100
925.387	9218
925.494	9173
925.602	9226
925.709	9230
925.816	9047
925.924	9108
926.031	9275
926.138	9241
926.245	9127
926.352	9009
926.459	9226
926.566	9195
926.673	9123
926.779	8967
926.886	9013
926.993	8921
927.099	8842
927.206	8792
927.312	8853
927.419	8921
927.525	8842
927.631	8849
927.737	8777
927.843	8754
927.95	8640
928.056	8689
928.162	8743
928.267	8746
928.373	9355
928.479	8876
928.585	8613
928.69	8693
928.796	8720
928.901	8697
929.007	8533
929.112	8701
929.218	8655
929.323	8560
929.428	8522
929.533	8739
929.638	8549
929.743	8560
929.848	8549
929.953	8514
930.058	8442
930.163	8282
930.267	8358
930.372	8457
930.477	8362
930.581	8514
930.685	8400
930.79	8275
930.894	8339
930.998	8279
931.103	8404
931.207	8077
931.311	8012
931.415	7940
931.519	7822
931.623	7784
