Data from test_V78500241_3328.txt Node
Date: Fri Mar 25 14:56:53 CST 2022
User: usil
Spectrometer: V785-0024
Trigger mode: 0
Integration Time (sec): 4.000000E-1
Scans to average: 1
Nonlinearity correction enabled: false
Boxcar width: 0
Storing dark spectrum: false
XAxis mode: Wavelengths
Number of Pixels in Spectrum: 1024
>>>>>Begin Spectral Data<<<<<
801.071	22021
801.214	21793
801.356	21553
801.499	21641
801.641	21416
801.783	21367
801.926	21447
802.068	21260
802.211	21233
802.353	21104
802.496	20857
802.638	20933
802.78	20785
802.923	20667
803.065	20598
803.208	20663
803.35	20693
803.492	20773
803.635	20735
803.777	20712
803.919	20655
804.061	20944
804.204	20644
804.346	20636
804.488	20480
804.63	20564
804.773	20492
804.915	20457
805.057	20560
805.199	20651
805.341	20667
805.483	20655
805.626	20579
805.768	20552
805.91	20568
806.052	20583
806.194	20358
806.336	20651
806.478	20518
806.62	20492
806.762	20598
806.904	20743
807.046	20914
807.188	20834
807.33	20834
807.472	20849
807.614	20853
807.756	20842
807.898	20678
808.04	20549
808.182	20476
808.324	20659
808.465	20689
808.607	20792
808.749	20914
808.891	21032
809.033	21047
809.174	21169
809.316	20845
809.458	20895
809.6	20872
809.741	20887
809.883	20998
810.025	21005
810.166	21062
810.308	21077
810.45	21093
810.591	20933
810.733	20773
810.875	20590
811.016	20556
811.158	20625
811.299	20746
811.441	20762
811.582	20842
811.724	20575
811.865	20659
812.007	20743
812.148	20705
812.29	20678
812.431	20849
812.573	21089
812.714	21005
812.855	21081
812.997	21355
813.138	21306
813.279	21279
813.421	21131
813.562	21108
813.703	20990
813.845	20758
813.986	20556
814.127	20309
814.268	20180
814.41	20267
814.551	20142
814.692	20271
814.833	20199
814.974	20187
815.115	20199
815.256	19970
815.397	20119
815.539	20046
815.68	19963
815.821	19944
815.962	19993
816.103	20016
816.244	19852
816.385	19674
816.526	19674
816.666	19605
816.807	19225
816.948	19487
817.089	19327
817.23	19396
817.371	19438
817.512	19297
817.653	19343
817.793	19392
817.934	19365
818.075	19365
818.216	19278
818.356	19324
818.497	19206
818.638	18958
818.778	19027
818.919	19076
819.06	19103
819.2	19126
819.341	19270
819.481	19244
819.622	19285
819.762	19609
819.903	19362
820.043	19403
820.184	19331
820.324	19346
820.465	19403
820.605	19312
820.746	19373
820.886	19175
821.026	19240
821.167	19247
821.307	19384
821.447	19213
821.588	19099
821.728	19034
821.868	18878
822.008	18677
822.149	18768
822.289	18677
822.429	18502
822.569	18540
822.709	18327
822.849	18167
822.99	18182
823.13	18220
823.27	18163
823.41	18068
823.55	17984
823.69	18087
823.83	18072
823.97	18053
824.11	17733
824.25	17863
824.389	17752
824.529	17912
824.669	17878
824.809	17885
824.949	17764
825.089	17984
825.228	17783
825.368	17653
825.508	17623
825.648	17474
825.787	17668
825.927	17566
826.067	17570
826.206	17600
826.346	17573
826.485	17589
826.625	17486
826.765	17676
826.904	17638
827.044	17250
827.183	17311
827.323	17204
827.462	17284
827.601	17231
827.741	17383
827.88	17288
828.02	17006
828.159	17288
828.298	17254
828.437	17364
828.577	17235
828.716	17337
828.855	17181
828.994	17075
829.134	17037
829.273	17090
829.412	16930
829.551	16923
829.69	17037
829.829	16991
829.968	17048
830.107	16991
830.246	17045
830.385	17102
830.524	16934
830.663	16797
830.802	16790
830.941	16759
831.08	16683
831.219	16675
831.357	16767
831.496	16965
831.635	16717
831.774	16504
831.913	16580
832.051	16527
832.19	16443
832.329	16417
832.467	16417
832.606	16272
832.744	16272
832.883	16375
833.022	16352
833.16	16497
833.299	16375
833.437	16447
833.576	16379
833.714	16371
833.852	16428
833.991	16523
834.129	16497
834.267	16538
834.406	16329
834.544	16451
834.682	16371
834.821	16341
834.959	16599
835.097	16363
835.235	16500
835.373	16455
835.511	16500
835.65	16371
835.788	16466
835.926	16223
836.064	16162
836.202	16200
836.34	16363
836.478	16428
836.615	16329
836.753	16306
836.891	16409
837.029	16360
837.167	16356
837.305	16265
837.443	16185
837.58	16158
837.718	16287
837.856	16196
837.993	16078
838.131	16223
838.269	16116
838.406	16105
838.544	16093
838.681	15979
838.819	15873
838.956	15690
839.094	15812
839.231	15861
839.369	15838
839.506	16268
839.643	16029
839.781	15743
839.918	15728
840.055	15774
840.193	15713
840.33	15686
840.467	15667
840.604	15705
840.742	15975
840.879	15629
841.016	15644
841.153	15660
841.29	15926
841.427	15770
841.564	15755
841.701	15835
841.838	15736
841.975	15728
842.112	15705
842.249	15671
842.385	15557
842.522	15720
842.659	15584
842.796	15447
842.933	15584
843.069	15488
843.206	15492
843.343	15606
843.479	15496
843.616	15629
843.752	15302
843.889	15325
844.025	15584
844.162	15260
844.298	15488
844.435	15363
844.571	15283
844.708	15416
844.844	15488
844.98	15466
845.117	15466
845.253	15302
845.389	15226
845.525	15211
845.661	15245
845.798	15112
845.934	15176
846.07	15013
846.206	15226
846.342	15230
846.478	15154
846.614	14994
846.75	14906
846.886	14883
847.022	15089
847.158	14998
847.294	14921
847.429	14918
847.565	14925
847.701	15150
847.837	14594
847.972	14598
848.108	14765
848.244	14762
848.379	14560
848.515	14427
848.65	14438
848.786	14530
848.921	14450
849.057	14549
849.192	14602
849.328	14655
849.463	14511
849.598	14488
849.734	14427
849.869	14461
850.004	14229
850.14	14275
850.275	14278
850.41	14252
850.545	14221
850.68	14286
850.815	14271
850.95	14332
851.085	14450
851.22	14328
851.355	14343
851.49	14259
851.625	14355
851.76	14214
851.895	14202
852.03	14123
852.165	14286
852.299	14259
852.434	14343
852.569	14294
852.703	14343
852.838	14339
852.973	14454
853.107	14442
853.242	14214
853.376	14267
853.511	14073
853.645	14134
853.78	14290
853.914	14168
854.048	14134
854.183	14039
854.317	14191
854.451	14305
854.585	14130
854.72	14138
854.854	14191
854.988	14043
855.122	14092
855.256	13978
855.39	14058
855.524	14229
855.658	14164
855.792	14176
855.926	14168
856.06	14206
856.194	14263
856.327	14180
856.461	14081
856.595	14092
856.729	14092
856.862	14275
856.996	14111
857.13	14244
857.263	14294
857.397	14271
857.53	14107
857.664	14199
857.797	14176
857.931	14282
858.064	14218
858.197	14305
858.331	14244
858.464	14035
858.597	14046
858.731	14111
858.864	14103
858.997	14065
859.13	14172
859.263	14183
859.396	14172
859.529	14027
859.662	14069
859.795	14092
859.928	14180
860.061	14370
860.194	14313
860.327	14145
860.46	14202
860.592	14244
860.725	14271
860.858	14180
860.99	14084
861.123	14012
861.256	14172
861.388	14237
861.521	14887
861.653	14062
861.786	14016
861.918	13970
862.05	14054
862.183	14153
862.315	14161
862.447	14183
862.58	14119
862.712	13921
862.844	13849
862.976	14046
863.108	13978
863.24	14358
863.372	13887
863.504	13909
863.636	13951
863.768	13989
863.9	13978
864.032	13803
864.164	13837
864.296	13986
864.428	14035
864.559	13898
864.691	14126
864.823	13993
864.954	14024
865.086	14058
865.217	13841
865.349	13944
865.48	13875
865.612	13917
865.743	14069
865.875	13951
866.006	13879
866.137	13951
866.269	13906
866.4	13887
866.531	13871
866.662	13856
866.793	13830
866.924	13925
867.055	14027
867.186	13795
867.317	13814
867.448	13830
867.579	13860
867.71	13799
867.841	13883
867.972	13936
868.103	13906
868.233	13913
868.364	13989
868.495	13944
868.625	14039
868.756	14343
868.886	14111
869.017	14214
869.147	14290
869.278	14229
869.408	14138
869.539	14161
869.669	14199
869.799	14157
869.929	14301
870.06	14271
870.19	14522
870.32	14476
870.45	14549
870.58	14522
870.71	14606
870.84	14693
870.97	14556
871.1	14583
871.23	14712
871.36	14724
871.489	14632
871.619	14762
871.749	14792
871.879	14842
872.008	14887
872.138	14796
872.267	14811
872.397	14644
872.526	14610
872.656	14450
872.785	14579
872.915	14758
873.044	14891
873.173	14823
873.303	14815
873.432	14807
873.561	14937
873.69	14880
873.819	14815
873.948	15001
874.077	14842
874.206	14758
874.335	14880
874.464	14910
874.593	15127
874.722	15047
874.851	15161
874.979	15222
875.108	15077
875.237	15173
875.365	15058
875.494	15161
875.623	15226
875.751	15093
875.88	15146
876.008	15294
876.136	15397
876.265	15519
876.393	15660
876.521	15625
876.65	15728
876.778	15542
876.906	15492
877.034	15557
877.162	15553
877.29	15466
877.418	15553
877.546	15614
877.674	15466
877.802	15625
877.93	15526
878.058	15507
878.185	15405
878.313	15610
878.441	15610
878.568	15386
878.696	15496
878.824	15564
878.951	15648
879.079	15671
879.206	15922
879.333	15682
879.461	15568
879.588	15644
879.715	15644
879.842	15781
879.97	15591
880.097	15447
880.224	15329
880.351	15397
880.478	15416
880.605	15344
880.732	15344
880.859	15641
880.986	15492
881.112	15473
881.239	15264
881.366	15157
881.493	15081
881.619	15089
881.746	15039
881.872	15058
881.999	15009
882.125	15032
882.252	15070
882.378	15009
882.505	15207
882.631	15039
882.757	14937
882.883	15009
883.01	14895
883.136	14834
883.262	14701
883.388	14769
883.514	14963
883.64	14918
883.766	14864
883.892	14689
884.018	14762
884.143	14834
884.269	15024
884.395	14644
884.52	14556
884.646	14617
884.772	14465
884.897	14484
885.023	14602
885.148	14659
885.274	14724
885.399	14724
885.524	14659
885.65	14533
885.775	14701
885.9	14610
886.025	14655
886.15	14640
886.275	14537
886.4	14507
886.525	14575
886.65	14492
886.775	14530
886.9	14663
887.025	14895
887.149	14659
887.274	14324
887.399	14366
887.523	14355
887.648	14362
887.773	14317
887.897	14495
888.021	14518
888.146	14396
888.27	14575
888.395	14518
888.519	14469
888.643	14454
888.767	14374
888.891	14324
889.015	14347
889.139	14336
889.263	14206
889.387	14396
889.511	14412
889.635	14469
889.759	14286
889.883	14320
890.006	14355
890.13	14465
890.254	14237
890.377	14313
890.501	14020
890.624	14111
890.748	14168
890.871	14096
890.995	14031
891.118	13913
891.241	14046
891.364	14046
891.488	14050
891.611	13959
891.734	13932
891.857	13936
891.98	14046
892.103	14039
892.226	14065
892.349	13909
892.471	13864
892.594	13947
892.717	14024
892.839	14005
892.962	14096
893.085	14001
893.207	13989
893.33	13879
893.452	13871
893.575	14214
893.697	13906
893.819	14054
893.941	14214
894.064	14172
894.186	13967
894.308	13944
894.43	14096
894.552	14229
894.674	14164
894.796	14024
894.918	13989
895.04	14050
895.161	14103
895.283	14191
895.405	13925
895.526	14199
895.648	14123
895.769	14073
895.891	14221
896.012	14305
896.134	14107
896.255	14111
896.376	14153
896.498	14210
896.619	14199
896.74	14180
896.861	14282
896.982	14495
897.103	14693
897.224	14610
897.345	14404
897.466	14381
897.587	14324
897.708	14518
897.828	14461
897.949	14351
898.07	14377
898.19	14549
898.311	14541
898.431	14431
898.552	14560
898.672	14594
898.792	14632
898.913	14560
899.033	14427
899.153	14366
899.273	14248
899.393	14427
899.513	14408
899.633	14381
899.753	14434
899.873	14396
899.993	14415
900.113	14381
900.232	14362
900.352	14347
900.472	14183
900.591	14237
900.711	14278
900.83	14263
900.95	14324
901.069	14301
901.189	14214
901.308	13986
901.427	13871
901.546	13868
901.665	13925
901.784	13955
901.904	13822
902.023	13685
902.141	13487
902.26	13403
902.379	13578
902.498	13422
902.617	13396
902.735	13571
902.854	13476
902.973	13400
903.091	13209
903.21	13221
903.328	13141
903.446	13194
903.565	13069
903.683	13061
903.801	12909
903.919	13084
904.038	13103
904.156	12878
904.274	13008
904.392	12787
904.51	12821
904.627	12817
904.745	12943
904.863	12886
904.981	12741
905.098	12536
905.216	12540
905.334	12639
905.451	12597
905.569	12585
905.686	12578
905.803	12604
905.921	12372
906.038	12467
906.155	12376
906.272	12372
906.389	12235
906.506	12190
906.623	12194
906.74	12148
906.857	12041
906.974	12015
907.091	12213
907.208	12243
907.324	12201
907.441	12060
907.557	11942
907.674	11866
907.79	11874
907.907	11901
908.023	11920
908.139	11912
908.256	11771
908.372	11802
908.488	11847
908.604	11611
908.72	11695
908.836	11661
908.952	11570
909.068	11646
909.184	11764
909.3	11657
909.415	11646
909.531	11718
909.647	11520
909.762	11566
909.878	11395
909.993	11455
910.108	11353
910.224	11406
910.339	11444
910.454	11406
910.57	11258
910.685	11322
910.8	11547
910.915	11486
911.03	11376
911.145	11162
911.259	11094
911.374	11113
911.489	11105
911.604	11045
911.718	10881
911.833	10839
911.947	10755
912.062	10801
912.176	10869
912.291	10866
912.405	10984
912.519	11052
912.633	11113
912.748	10972
912.862	10915
912.976	10763
913.09	10664
913.204	10755
913.318	10850
913.431	10873
913.545	10797
913.659	10835
913.772	10755
913.886	10656
914	10637
914.113	10782
914.226	10862
914.34	10710
914.453	10592
914.566	10668
914.68	10607
914.793	10664
914.906	10447
915.019	10303
915.132	10318
915.245	10421
915.358	10398
915.47	10386
915.583	10462
915.696	10535
915.809	10569
915.921	10542
916.034	10405
916.146	10386
916.259	10333
916.371	10436
916.483	10360
916.595	10310
916.708	10382
916.82	10280
916.932	10390
917.044	10265
917.156	10363
917.268	10166
917.38	10227
917.491	10204
917.603	10310
917.715	10348
917.826	10325
917.938	10246
918.049	10147
918.161	10268
918.272	10348
918.384	10352
918.495	10200
918.606	10162
918.717	10071
918.828	10135
918.939	10196
919.05	9994
919.161	10116
919.272	9903
919.383	10063
919.494	10188
919.604	10325
919.715	10116
919.826	10029
919.936	10078
920.047	10211
920.157	10207
920.267	10375
920.378	10246
920.488	10188
920.598	10322
920.708	10440
920.818	10322
920.928	10360
921.038	10519
921.148	10432
921.258	10253
921.368	10071
921.477	10017
921.587	9991
921.697	9873
921.806	10044
921.916	9899
922.025	9759
922.134	9724
922.244	9709
922.353	9778
922.462	9580
922.571	9553
922.68	9424
922.789	9367
922.898	9454
923.007	9313
923.116	9450
923.224	9359
923.333	9389
923.442	9306
923.55	9256
923.659	9317
923.767	9355
923.876	9241
923.984	9325
924.092	9157
924.201	9272
924.309	9249
924.417	9329
924.525	9176
924.633	9199
924.741	10120
924.849	9009
924.956	9161
925.064	8979
925.172	8937
925.279	9017
925.387	9058
925.494	9077
925.602	9161
925.709	9157
925.816	9005
925.924	9051
926.031	9207
926.138	9024
926.245	9108
926.352	9005
926.459	9135
926.566	9116
926.673	8986
926.779	8876
926.886	8944
926.993	8853
927.099	8838
927.206	8644
927.312	8792
927.419	8788
927.525	8800
927.631	8864
927.737	8724
927.843	8670
927.95	8583
928.056	8655
928.162	8697
928.267	8762
928.373	9374
928.479	8739
928.585	8507
928.69	8625
928.796	8693
928.901	8621
929.007	8484
929.112	8613
929.218	8621
929.323	8526
929.428	8533
929.533	8594
929.638	8492
929.743	8507
929.848	8537
929.953	8488
930.058	8362
930.163	8229
930.267	8290
930.372	8423
930.477	8123
930.581	8446
930.685	8389
930.79	8240
930.894	8282
930.998	8199
931.103	8377
931.207	7967
931.311	8008
931.415	7909
931.519	7685
931.623	7734
