Data from test_V78500241_2401.txt Node
Date: Fri Mar 25 14:50:25 CST 2022
User: usil
Spectrometer: V785-0024
Trigger mode: 0
Integration Time (sec): 4.000000E-1
Scans to average: 1
Nonlinearity correction enabled: false
Boxcar width: 0
Storing dark spectrum: false
XAxis mode: Wavelengths
Number of Pixels in Spectrum: 1024
>>>>>Begin Spectral Data<<<<<
801.071	22093
801.214	22150
801.356	21759
801.499	21625
801.641	21545
801.783	21557
801.926	21504
802.068	21389
802.211	21291
802.353	21222
802.496	21180
802.638	20967
802.78	20948
802.923	20902
803.065	20819
803.208	20804
803.35	20781
803.492	20933
803.635	20960
803.777	20834
803.919	20941
804.061	21077
804.204	20990
804.346	20621
804.488	20777
804.63	20895
804.773	20743
804.915	20716
805.057	20746
805.199	20708
805.341	20815
805.483	20777
805.626	20899
805.768	20613
805.91	20792
806.052	20777
806.194	20632
806.336	21039
806.478	20731
806.62	20651
806.762	20849
806.904	20868
807.046	21100
807.188	21089
807.33	21154
807.472	21077
807.614	20971
807.756	20948
807.898	20929
808.04	20807
808.182	20644
808.324	20899
808.465	20941
808.607	20952
808.749	21123
808.891	21298
809.033	21363
809.174	21272
809.316	21077
809.458	21272
809.6	21070
809.741	21275
809.883	21256
810.025	21386
810.166	21386
810.308	21268
810.45	21310
810.591	21096
810.733	21142
810.875	20937
811.016	20788
811.158	20880
811.299	20956
811.441	21089
811.582	20948
811.724	21020
811.865	20910
812.007	20857
812.148	20929
812.29	20914
812.431	21180
812.573	21074
812.714	21287
812.855	21401
812.997	21477
813.138	21667
813.279	21367
813.421	21439
813.562	21272
813.703	21077
813.845	21135
813.986	20746
814.127	20678
814.268	20533
814.41	20568
814.551	20457
814.692	20602
814.833	20294
814.974	20358
815.115	20541
815.256	20442
815.397	20248
815.539	20221
815.68	20218
815.821	20062
815.962	20240
816.103	20111
816.244	20020
816.385	19906
816.526	19974
816.666	19868
816.807	19613
816.948	19704
817.089	19803
817.23	19613
817.371	19518
817.512	19715
817.653	19518
817.793	19419
817.934	19502
818.075	19590
818.216	19540
818.356	19575
818.497	19358
818.638	19304
818.778	19213
818.919	19297
819.06	19331
819.2	19426
819.341	19457
819.481	19335
819.622	19559
819.762	19811
819.903	19685
820.043	19689
820.184	19559
820.324	19567
820.465	19643
820.605	19651
820.746	19552
820.886	19396
821.026	19537
821.167	19563
821.307	19525
821.447	19537
821.588	19358
821.728	19266
821.868	19179
822.008	18985
822.149	18951
822.289	18875
822.429	18673
822.569	18673
822.709	18814
822.849	18479
822.99	18490
823.13	18399
823.27	18426
823.41	18315
823.55	18216
823.69	18247
823.83	18266
823.97	18129
824.11	18110
824.25	17999
824.389	18068
824.529	18174
824.669	18022
824.809	18045
824.949	18117
825.089	18068
825.228	18133
825.368	17824
825.508	17855
825.648	17901
825.787	17798
825.927	17775
826.067	17760
826.206	17695
826.346	17840
826.485	17748
826.625	17707
826.765	17855
826.904	17882
827.044	17509
827.183	17619
827.323	17414
827.462	17570
827.601	17395
827.741	17395
827.88	17611
828.02	17364
828.159	17395
828.298	17436
828.437	17577
828.577	17543
828.716	17558
828.855	17463
828.994	17250
829.134	17090
829.273	17231
829.412	17162
829.551	17235
829.69	17197
829.829	17189
829.968	17334
830.107	17307
830.246	17212
830.385	17155
830.524	17121
830.663	17025
830.802	16957
830.941	16949
831.08	16790
831.219	17025
831.357	16980
831.496	17060
831.635	16850
831.774	16759
831.913	16656
832.051	16672
832.19	16538
832.329	16599
832.467	16550
832.606	16474
832.744	16443
832.883	16470
833.022	16504
833.16	16493
833.299	16603
833.437	16596
833.576	16679
833.714	16611
833.852	16535
833.991	16649
834.129	16645
834.267	16725
834.406	16519
834.544	16573
834.682	16649
834.821	16615
834.959	16774
835.097	16459
835.235	16717
835.373	16618
835.511	16577
835.65	16489
835.788	16512
835.926	16367
836.064	16318
836.202	16261
836.34	16462
836.478	16577
836.615	16405
836.753	16569
836.891	16592
837.029	16493
837.167	16447
837.305	16413
837.443	16337
837.58	16375
837.718	16379
837.856	16375
837.993	16352
838.131	16249
838.269	16306
838.406	16352
838.544	16246
838.681	16063
838.819	16120
838.956	15819
839.094	15903
839.231	16010
839.369	16120
839.506	16272
839.643	16166
839.781	15865
839.918	15793
840.055	15873
840.193	15895
840.33	15884
840.467	15873
840.604	15922
840.742	16120
840.879	15762
841.016	15888
841.153	15823
841.29	15987
841.427	15949
841.564	15945
841.701	15918
841.838	15831
841.975	15884
842.112	15808
842.249	15755
842.385	15629
842.522	15812
842.659	15739
842.796	15717
842.933	15675
843.069	15717
843.206	15671
843.343	15778
843.479	15660
843.616	15686
843.752	15557
843.889	15507
844.025	15637
844.162	15386
844.298	15568
844.435	15401
844.571	15477
844.708	15530
844.844	15591
844.98	15526
845.117	15534
845.253	15378
845.389	15264
845.525	15401
845.661	15344
845.798	15252
845.934	15325
846.07	15321
846.206	15306
846.342	15382
846.478	15222
846.614	15131
846.75	14979
846.886	15085
847.022	15135
847.158	15043
847.294	15055
847.429	15100
847.565	14975
847.701	15188
847.837	14826
847.972	14674
848.108	14887
848.244	14811
848.379	14693
848.515	14712
848.65	14537
848.786	14640
848.921	14613
849.057	14785
849.192	14727
849.328	14765
849.463	14651
849.598	14579
849.734	14583
849.869	14484
850.004	14415
850.14	14484
850.275	14400
850.41	14366
850.545	14484
850.68	14370
850.815	14480
850.95	14454
851.085	14594
851.22	14571
851.355	14434
851.49	14343
851.625	14431
851.76	14336
851.895	14263
852.03	14332
852.165	14381
852.299	14412
852.434	14476
852.569	14393
852.703	14495
852.838	14396
852.973	14507
853.107	14514
853.242	14324
853.376	14214
853.511	14244
853.645	14084
853.78	14465
853.914	14248
854.048	14172
854.183	14157
854.317	14202
854.451	14404
854.585	14202
854.72	14298
854.854	14450
854.988	14168
855.122	14225
855.256	14134
855.39	14237
855.524	14385
855.658	14309
855.792	14434
855.926	14225
856.06	14317
856.194	14351
856.327	14317
856.461	14107
856.595	14199
856.729	14233
856.862	14328
856.996	14339
857.13	14336
857.263	14408
857.397	14434
857.53	14389
857.664	14351
857.797	14419
857.931	14423
858.064	14355
858.197	14434
858.331	14271
858.464	14214
858.597	14111
858.731	14237
858.864	14320
858.997	14180
859.13	14320
859.263	14237
859.396	14267
859.529	14199
859.662	14286
859.795	14214
859.928	14339
860.061	14377
860.194	14465
860.327	14336
860.46	14259
860.592	14438
860.725	14427
860.858	14339
860.99	14309
861.123	14126
861.256	14199
861.388	14267
861.521	14857
861.653	14153
861.786	14081
861.918	14054
862.05	14271
862.183	14142
862.315	14240
862.447	14404
862.58	14267
862.712	14031
862.844	13986
862.976	14043
863.108	14043
863.24	14415
863.372	14050
863.504	13974
863.636	14039
863.768	14221
863.9	14035
864.032	14050
864.164	13963
864.296	14115
864.428	14164
864.559	14142
864.691	14096
864.823	14058
864.954	14008
865.086	14012
865.217	14012
865.349	13989
865.48	14031
865.612	14008
865.743	14206
865.875	14046
866.006	13982
866.137	14062
866.269	14008
866.4	14065
866.531	13932
866.662	13982
866.793	13940
866.924	13989
867.055	14073
867.186	14031
867.317	14005
867.448	13864
867.579	13936
867.71	13879
867.841	14035
867.972	13993
868.103	14027
868.233	13932
868.364	14096
868.495	14100
868.625	14134
868.756	14404
868.886	14145
869.017	14336
869.147	14332
869.278	14499
869.408	14351
869.539	14221
869.669	14301
869.799	14290
869.929	14419
870.06	14404
870.19	14556
870.32	14583
870.45	14670
870.58	14693
870.71	14743
870.84	14720
870.97	14712
871.1	14613
871.23	14811
871.36	14876
871.489	14891
871.619	14880
871.749	14830
871.879	14918
872.008	14899
872.138	14887
872.267	14861
872.397	14754
872.526	14762
872.656	14667
872.785	14762
872.915	14918
873.044	15028
873.173	14906
873.303	14948
873.432	14925
873.561	14982
873.69	14960
873.819	14906
873.948	14979
874.077	14948
874.206	14887
874.335	15032
874.464	15097
874.593	15260
874.722	15100
874.851	15325
874.979	15291
875.108	15294
875.237	15245
875.365	15245
875.494	15332
875.623	15268
875.751	15211
875.88	15249
876.008	15294
876.136	15450
876.265	15625
876.393	15694
876.521	15698
876.65	15827
876.778	15648
876.906	15622
877.034	15580
877.162	15656
877.29	15591
877.418	15625
877.546	15705
877.674	15701
877.802	15576
877.93	15656
878.058	15633
878.185	15530
878.313	15561
878.441	15690
878.568	15488
878.696	15610
878.824	15736
878.951	15641
879.079	15812
879.206	15869
879.333	15812
879.461	15595
879.588	15732
879.715	15743
879.842	15979
879.97	15622
880.097	15568
880.224	15523
880.351	15469
880.478	15526
880.605	15530
880.732	15500
880.859	15724
880.986	15599
881.112	15443
881.239	15344
881.366	15313
881.493	15218
881.619	15203
881.746	15119
881.872	15218
881.999	15146
882.125	15195
882.252	15294
882.378	15150
882.505	15378
882.631	15100
882.757	14952
882.883	15112
883.01	15036
883.136	14880
883.262	14842
883.388	14891
883.514	14952
883.64	14986
883.766	14967
883.892	14857
884.018	14895
884.143	14994
884.269	15077
884.395	14750
884.52	14720
884.646	14507
884.772	14712
884.897	14564
885.023	14697
885.148	14750
885.274	14853
885.399	14819
885.524	14743
885.65	14705
885.775	14701
885.9	14648
886.025	14826
886.15	14804
886.275	14651
886.4	14590
886.525	14651
886.65	14746
886.775	14556
886.9	14750
887.025	14880
887.149	14701
887.274	14484
887.399	14537
887.523	14442
887.648	14442
887.773	14415
887.897	14575
888.021	14648
888.146	14480
888.27	14583
888.395	14617
888.519	14583
888.643	14568
888.767	14602
888.891	14514
889.015	14298
889.139	14434
889.263	14423
889.387	14480
889.511	14610
889.635	14427
889.759	14355
889.883	14355
890.006	14366
890.13	14492
890.254	14271
890.377	14336
890.501	14161
890.624	14233
890.748	14290
890.871	14119
890.995	14008
891.118	14046
891.241	14058
891.364	14168
891.488	14191
891.611	13997
891.734	14176
891.857	14145
891.98	14062
892.103	14126
892.226	14248
892.349	14107
892.471	13993
892.594	14092
892.717	14153
892.839	13982
892.962	14020
893.085	14119
893.207	14153
893.33	13928
893.452	14001
893.575	14183
893.697	14115
893.819	14282
893.941	14305
894.064	14206
894.186	14073
894.308	14073
894.43	14180
894.552	14240
894.674	14233
894.796	14134
894.918	14096
895.04	14176
895.161	14214
895.283	14244
895.405	14130
895.526	14115
895.648	14180
895.769	14305
895.891	14214
896.012	14351
896.134	14259
896.255	14267
896.376	14206
896.498	14138
896.619	14229
896.74	14278
896.861	14358
896.982	14492
897.103	14701
897.224	14495
897.345	14564
897.466	14419
897.587	14537
897.708	14621
897.828	14674
897.949	14499
898.07	14339
898.19	14488
898.311	14663
898.431	14552
898.552	14590
898.672	14682
898.792	14629
898.913	14689
899.033	14602
899.153	14412
899.273	14301
899.393	14446
899.513	14450
899.633	14522
899.753	14533
899.873	14324
899.993	14530
900.113	14469
900.232	14495
900.352	14480
900.472	14278
900.591	14309
900.711	14355
900.83	14324
900.95	14503
901.069	14423
901.189	14176
901.308	14073
901.427	13978
901.546	13928
901.665	13978
901.784	14058
901.904	13955
902.023	13761
902.141	13662
902.26	13525
902.379	13518
902.498	13590
902.617	13529
902.735	13620
902.854	13575
902.973	13552
903.091	13266
903.21	13278
903.328	13354
903.446	13244
903.565	13164
903.683	13194
903.801	13065
903.919	13034
904.038	13202
904.156	13004
904.274	13118
904.392	12909
904.51	12970
904.627	13015
904.745	12935
904.863	13057
904.981	12688
905.098	12608
905.216	12662
905.334	12642
905.451	12612
905.569	12669
905.686	12662
905.803	12639
905.921	12555
906.038	12604
906.155	12494
906.272	12418
906.389	12266
906.506	12292
906.623	12232
906.74	12281
906.857	12133
906.974	12155
907.091	12380
907.208	12365
907.324	12330
907.441	12213
907.557	11931
907.674	12011
907.79	11882
907.907	11828
908.023	11961
908.139	11973
908.256	11984
908.372	11824
908.488	11889
908.604	11752
908.72	11771
908.836	11722
908.952	11714
909.068	11707
909.184	11847
909.3	11707
909.415	11764
909.531	11733
909.647	11585
909.762	11547
909.878	11509
909.993	11509
910.108	11570
910.224	11452
910.339	11497
910.454	11436
910.57	11330
910.685	11189
910.8	11547
910.915	11474
911.03	11417
911.145	11204
911.259	11208
911.374	11201
911.489	11124
911.604	11094
911.718	10908
911.833	11033
911.947	10877
912.062	10797
912.176	10984
912.291	10919
912.405	10949
912.519	11140
912.633	11098
912.748	11014
912.862	11045
912.976	10771
913.09	10714
913.204	10782
913.318	10858
913.431	10847
913.545	10873
913.659	10938
913.772	10892
913.886	10748
914	10763
914.113	10885
914.226	10904
914.34	10820
914.453	10668
914.566	10729
914.68	10645
914.793	10702
914.906	10519
915.019	10474
915.132	10390
915.245	10466
915.358	10489
915.47	10459
915.583	10504
915.696	10569
915.809	10622
915.921	10634
916.034	10440
916.146	10519
916.259	10432
916.371	10531
916.483	10398
916.595	10405
916.708	10306
916.82	10428
916.932	10417
917.044	10394
917.156	10341
917.268	10284
917.38	10284
917.491	10310
917.603	10253
917.715	10344
917.826	10436
917.938	10310
918.049	10257
918.161	10314
918.272	10432
918.384	10421
918.495	10348
918.606	10242
918.717	10185
918.828	10207
918.939	10211
919.05	10211
919.161	10131
919.272	10021
919.383	10090
919.494	10166
919.604	10409
919.715	10207
919.826	10116
919.936	10116
920.047	10322
920.157	10215
920.267	10443
920.378	10329
920.488	10242
920.598	10367
920.708	10489
920.818	10394
920.928	10386
921.038	10565
921.148	10573
921.258	10257
921.368	10158
921.477	10093
921.587	10044
921.697	9953
921.806	10074
921.916	9994
922.025	9831
922.134	9789
922.244	9740
922.353	9778
922.462	9686
922.571	9622
922.68	9553
922.789	9401
922.898	9447
923.007	9401
923.116	9443
923.224	9458
923.333	9348
923.442	9348
923.55	9317
923.659	9428
923.767	9405
923.876	9279
923.984	9386
924.092	9226
924.201	9405
924.309	9351
924.417	9340
924.525	9268
924.633	9317
924.741	10074
924.849	9100
924.956	9275
925.064	9192
925.172	9066
925.279	9043
925.387	9112
925.494	9146
925.602	9245
925.709	9142
925.816	9036
925.924	9066
926.031	9207
926.138	9119
926.245	9142
926.352	8910
926.459	9165
926.566	9146
926.673	9070
926.779	9005
926.886	8971
926.993	8826
927.099	8864
927.206	8750
927.312	8845
927.419	8853
927.525	8788
927.631	8902
927.737	8754
927.843	8766
927.95	8689
928.056	8625
928.162	8712
928.267	8766
928.373	9348
928.479	8853
928.585	8583
928.69	8735
928.796	8731
928.901	8632
929.007	8511
929.112	8689
929.218	8667
929.323	8530
929.428	8537
929.533	8621
929.638	8507
929.743	8594
929.848	8598
929.953	8613
930.058	8419
930.163	8339
930.267	8328
930.372	8454
930.477	8282
930.581	8568
930.685	8362
930.79	8210
930.894	8240
930.998	8267
931.103	8358
931.207	8065
931.311	7959
931.415	7959
931.519	7731
931.623	7818
