Data from test_V78500241_404.txt Node
Date: Fri Mar 25 14:36:32 CST 2022
User: usil
Spectrometer: V785-0024
Trigger mode: 0
Integration Time (sec): 4.000000E-1
Scans to average: 1
Nonlinearity correction enabled: false
Boxcar width: 0
Storing dark spectrum: false
XAxis mode: Wavelengths
Number of Pixels in Spectrum: 1024
>>>>>Begin Spectral Data<<<<<
801.071	26727
801.214	26488
801.356	26393
801.499	26362
801.641	26172
801.783	26058
801.926	26058
802.068	26103
802.211	26031
802.353	25936
802.496	25826
802.638	25681
802.78	25719
802.923	25670
803.065	25632
803.208	25487
803.35	25814
803.492	25696
803.635	25738
803.777	25563
803.919	25670
804.061	25970
804.204	25772
804.346	25548
804.488	25571
804.63	25616
804.773	25491
804.915	25590
805.057	25727
805.199	25552
805.341	25651
805.483	25712
805.626	25613
805.768	25567
805.91	25613
806.052	25742
806.194	25548
806.336	25860
806.478	25620
806.62	25632
806.762	25643
806.904	26001
807.046	26142
807.188	25986
807.33	26020
807.472	26225
807.614	26016
807.756	25913
807.898	25818
808.04	25864
808.182	25807
808.324	25849
808.465	25913
808.607	26031
808.749	26107
808.891	26256
809.033	26381
809.174	26161
809.316	26195
809.458	26187
809.6	26077
809.741	26267
809.883	26149
810.025	26488
810.166	26347
810.308	26282
810.45	26320
810.591	26259
810.733	26092
810.875	25989
811.016	25845
811.158	25871
811.299	26001
811.441	26103
811.582	26191
811.724	25955
811.865	26065
812.007	26016
812.148	26020
812.29	26031
812.431	26153
812.573	26313
812.714	26389
812.855	26431
812.997	26396
813.138	26712
813.279	26476
813.421	26602
813.562	26507
813.703	26309
813.845	26130
813.986	25906
814.127	25689
814.268	25639
814.41	25628
814.551	25639
814.692	25655
814.833	25540
814.974	25499
815.115	25445
815.256	25350
815.397	25457
815.539	25441
815.68	25324
815.821	25236
815.962	25320
816.103	25266
816.244	25000
816.385	25114
816.526	25004
816.666	24852
816.807	24764
816.948	24821
817.089	24810
817.23	24764
817.371	24616
817.512	24612
817.653	24604
817.793	24578
817.934	24551
818.075	24627
818.216	24616
818.356	24623
818.497	24429
818.638	24388
818.778	24213
818.919	24426
819.06	24410
819.2	24528
819.341	24513
819.481	24464
819.622	24825
819.762	24798
819.903	24867
820.043	24810
820.184	24623
820.324	24635
820.465	24722
820.605	24608
820.746	24669
820.886	24498
821.026	24635
821.167	24658
821.307	24749
821.447	24551
821.588	24483
821.728	24292
821.868	24209
822.008	23996
822.149	24038
822.289	23996
822.429	23779
822.569	23737
822.709	23714
822.849	23406
822.99	23356
823.13	23425
823.27	23360
823.41	23277
823.55	23200
823.69	23307
823.83	23242
823.97	23200
824.11	23083
824.25	22972
824.389	22824
824.529	23098
824.669	22839
824.809	23044
824.949	23071
825.089	23056
825.228	22957
825.368	22816
825.508	22790
825.648	22679
825.787	22858
825.927	22835
826.067	22824
826.206	22778
826.346	22881
826.485	22797
826.625	22668
826.765	22984
826.904	22896
827.044	22603
827.183	22485
827.323	22546
827.462	22603
827.601	22489
827.741	22417
827.88	22550
828.02	22356
828.159	22497
828.298	22512
828.437	22523
828.577	22318
828.716	22428
828.855	22375
828.994	22291
829.134	22188
829.273	22249
829.412	22185
829.551	22051
829.69	22086
829.829	22169
829.968	22112
830.107	22238
830.246	22181
830.385	22055
830.524	21934
830.663	22017
830.802	21789
830.941	21720
831.08	21595
831.219	21637
831.357	21759
831.496	21953
831.635	21667
831.774	21663
831.913	21583
832.051	21507
832.19	21488
832.329	21408
832.467	21447
832.606	21462
832.744	21389
832.883	21485
833.022	21317
833.16	21458
833.299	21466
833.437	21405
833.576	21408
833.714	21477
833.852	21382
833.991	21485
834.129	21389
834.267	21443
834.406	21424
834.544	21538
834.682	21397
834.821	21420
834.959	21663
835.097	21302
835.235	21386
835.373	21332
835.511	21370
835.65	21332
835.788	21222
835.926	21096
836.064	21058
836.202	21104
836.34	21211
836.478	21218
836.615	21199
836.753	21176
836.891	21439
837.029	21329
837.167	21173
837.305	21180
837.443	21100
837.58	21100
837.718	21093
837.856	21142
837.993	21039
838.131	21055
838.269	20906
838.406	21100
838.544	20986
838.681	20758
838.819	20769
838.956	20758
839.094	20663
839.231	20651
839.369	20762
839.506	20948
839.643	20830
839.781	20526
839.918	20442
840.055	20507
840.193	20552
840.33	20423
840.467	20480
840.604	20339
840.742	20716
840.879	20309
841.016	20385
841.153	20370
841.29	20507
841.427	20499
841.564	20454
841.701	20431
841.838	20332
841.975	20263
842.112	20271
842.249	20176
842.385	20107
842.522	20415
842.659	20248
842.796	20240
842.933	20153
843.069	20122
843.206	20149
843.343	20218
843.479	20111
843.616	20229
843.752	20012
843.889	19974
844.025	20092
844.162	20001
844.298	20145
844.435	19887
844.571	19925
844.708	19959
844.844	20008
844.98	19978
845.117	20035
845.253	19883
845.389	19841
845.525	19890
845.661	19795
845.798	19765
845.934	19727
846.07	19791
846.206	19666
846.342	19837
846.478	19731
846.614	19540
846.75	19415
846.886	19403
847.022	19514
847.158	19419
847.294	19419
847.429	19430
847.565	19487
847.701	19693
847.837	19107
847.972	19198
848.108	19320
848.244	19114
848.379	19057
848.515	19027
848.65	19084
848.786	18966
848.921	19015
849.057	19008
849.192	19088
849.328	18981
849.463	18909
849.598	18920
849.734	18852
849.869	18791
850.004	18749
850.14	18703
850.275	18863
850.41	18604
850.545	18692
850.68	18639
850.815	18776
850.95	18673
851.085	18779
851.22	18768
851.355	18734
851.49	18646
851.625	18616
851.76	18719
851.895	18642
852.03	18544
852.165	18730
852.299	18703
852.434	18665
852.569	18719
852.703	18730
852.838	18726
852.973	18738
853.107	18878
853.242	18715
853.376	18623
853.511	18429
853.645	18486
853.78	18627
853.914	18555
854.048	18604
854.183	18502
854.317	18486
854.451	18642
854.585	18525
854.72	18521
854.854	18551
854.988	18494
855.122	18418
855.256	18388
855.39	18429
855.524	18574
855.658	18483
855.792	18490
855.926	18429
856.06	18566
856.194	18532
856.327	18467
856.461	18540
856.595	18407
856.729	18544
856.862	18711
856.996	18483
857.13	18555
857.263	18726
857.397	18483
857.53	18498
857.664	18532
857.797	18494
857.931	18604
858.064	18536
858.197	18540
858.331	18483
858.464	18437
858.597	18213
858.731	18574
858.864	18445
858.997	18395
859.13	18327
859.263	18536
859.396	18559
859.529	18323
859.662	18410
859.795	18292
859.928	18490
860.061	18593
860.194	18597
860.327	18388
860.46	18456
860.592	18502
860.725	18456
860.858	18574
860.99	18361
861.123	18346
861.256	18490
861.388	18498
861.521	19168
861.653	18380
861.786	18258
861.918	18296
862.05	18319
862.183	18540
862.315	18475
862.447	18471
862.58	18418
862.712	18148
862.844	18133
862.976	18292
863.108	18251
863.24	18585
863.372	18186
863.504	18213
863.636	18262
863.768	18224
863.9	18125
864.032	18235
864.164	18205
864.296	18110
864.428	18254
864.559	18228
864.691	18197
864.823	18133
864.954	18064
865.086	18167
865.217	18171
865.349	18034
865.48	18087
865.612	18273
865.743	18205
865.875	18155
866.006	18022
866.137	18072
866.269	18228
866.4	18133
866.531	18007
866.662	18076
866.793	17984
866.924	18235
867.055	17973
867.186	18003
867.317	18011
867.448	17908
867.579	17977
867.71	17863
867.841	17950
867.972	18155
868.103	17961
868.233	18060
868.364	17984
868.495	18091
868.625	18117
868.756	18388
868.886	18197
869.017	18441
869.147	18403
869.278	18433
869.408	18296
869.539	18216
869.669	18388
869.799	18300
869.929	18410
870.06	18414
870.19	18532
870.32	18604
870.45	18734
870.58	18585
870.71	18741
870.84	18837
870.97	18711
871.1	18738
871.23	18859
871.36	18867
871.489	18848
871.619	18909
871.749	18738
871.879	18882
872.008	18951
872.138	18928
872.267	18859
872.397	18738
872.526	18738
872.656	18715
872.785	18844
872.915	19023
873.044	18928
873.173	18954
873.303	18924
873.432	18973
873.561	19012
873.69	18905
873.819	18840
873.948	18954
874.077	19004
874.206	18878
874.335	18909
874.464	18993
874.593	19160
874.722	19175
874.851	19228
874.979	19190
875.108	19179
875.237	19168
875.365	19057
875.494	19114
875.623	19225
875.751	19190
875.88	19194
876.008	19228
876.136	19377
876.265	19540
876.393	19704
876.521	19502
876.65	19605
876.778	19578
876.906	19544
877.034	19521
877.162	19521
877.29	19521
877.418	19666
877.546	19544
877.674	19544
877.802	19563
877.93	19460
878.058	19563
878.185	19521
878.313	19430
878.441	19533
878.568	19426
878.696	19525
878.824	19601
878.951	19696
879.079	19757
879.206	19887
879.333	19731
879.461	19635
879.588	19753
879.715	19795
879.842	19951
879.97	19757
880.097	19365
880.224	19339
880.351	19525
880.478	19491
880.605	19403
880.732	19464
880.859	19556
880.986	19434
881.112	19552
881.239	19331
881.366	19213
881.493	19179
881.619	19008
881.746	18958
881.872	19057
881.999	19012
882.125	18996
882.252	19088
882.378	19034
882.505	19118
882.631	18943
882.757	18848
882.883	18863
883.01	18791
883.136	18779
883.262	18722
883.388	18738
883.514	18821
883.64	18719
883.766	18696
883.892	18612
884.018	18620
884.143	18722
884.269	18810
884.395	18616
884.52	18372
884.646	18422
884.772	18483
884.897	18292
885.023	18566
885.148	18574
885.274	18536
885.399	18574
885.524	18391
885.65	18467
885.775	18334
885.9	18403
886.025	18502
886.15	18490
886.275	18330
886.4	18277
886.525	18456
886.65	18433
886.775	18338
886.9	18509
887.025	18681
887.149	18551
887.274	18304
887.399	18251
887.523	18159
887.648	18228
887.773	18102
887.897	18304
888.021	18327
888.146	18152
888.27	18391
888.395	18285
888.519	18300
888.643	18277
888.767	18266
888.891	18152
889.015	17999
889.139	18106
889.263	18045
889.387	18152
889.511	18087
889.635	18228
889.759	17942
889.883	17965
890.006	17973
890.13	18106
890.254	17950
890.377	17939
890.501	17775
890.624	17668
890.748	17775
890.871	17611
890.995	17615
891.118	17539
891.241	17642
891.364	17657
891.488	17649
891.611	17592
891.734	17714
891.857	17764
891.98	17646
892.103	17714
892.226	17634
892.349	17512
892.471	17433
892.594	17592
892.717	17627
892.839	17600
892.962	17649
893.085	17661
893.207	17562
893.33	17387
893.452	17493
893.575	17543
893.697	17528
893.819	17695
893.941	17897
894.064	17726
894.186	17608
894.308	17520
894.43	17604
894.552	17783
894.674	17596
894.796	17512
894.918	17653
895.04	17592
895.161	17684
895.283	17748
895.405	17497
895.526	17653
895.648	17649
895.769	17558
895.891	17653
896.012	17760
896.134	17710
896.255	17649
896.376	17745
896.498	17657
896.619	17714
896.74	17695
896.861	17676
896.982	17961
897.103	18171
897.224	17992
897.345	17897
897.466	17817
897.587	17973
897.708	18144
897.828	17912
897.949	17851
898.07	17684
898.19	17836
898.311	17939
898.431	17897
898.552	17859
898.672	18022
898.792	18007
898.913	17904
899.033	17847
899.153	17707
899.273	17638
899.393	17745
899.513	17775
899.633	17668
899.753	17733
899.873	17642
899.993	17687
900.113	17649
900.232	17573
900.352	17657
900.472	17543
900.591	17501
900.711	17570
900.83	17467
900.95	17611
901.069	17566
901.189	17444
901.308	17254
901.427	17143
901.546	17090
901.665	17143
901.784	17174
901.904	17022
902.023	16934
902.141	16736
902.26	16782
902.379	16786
902.498	16656
902.617	16679
902.735	16759
902.854	16691
902.973	16607
903.091	16440
903.21	16333
903.328	16386
903.446	16265
903.565	16246
903.683	16230
903.801	16109
903.919	16150
904.038	16188
904.156	15892
904.274	15983
904.392	15857
904.51	15903
904.627	15998
904.745	16032
904.863	15972
904.981	15781
905.098	15705
905.216	15576
905.334	15641
905.451	15610
905.569	15679
905.686	15743
905.803	15542
905.921	15443
906.038	15500
906.155	15412
906.272	15222
906.389	15279
906.506	15222
906.623	15131
906.74	15119
906.857	15058
906.974	15123
907.091	15142
907.208	15317
907.324	15150
907.441	15020
907.557	14910
907.674	14933
907.79	14861
907.907	14842
908.023	14906
908.139	14914
908.256	14811
908.372	14785
908.488	14743
908.604	14587
908.72	14552
908.836	14583
908.952	14598
909.068	14511
909.184	14682
909.3	14552
909.415	14613
909.531	14526
909.647	14427
909.762	14366
909.878	14248
909.993	14278
910.108	14298
910.224	14286
910.339	14267
910.454	14210
910.57	14103
910.685	14035
910.8	14427
910.915	14271
911.03	14145
911.145	13967
911.259	13879
911.374	13811
911.489	13826
911.604	13822
911.718	13670
911.833	13715
911.947	13502
912.062	13548
912.176	13689
912.291	13613
912.405	13632
912.519	13856
912.633	13845
912.748	13666
912.862	13677
912.976	13476
913.09	13384
913.204	13514
913.318	13594
913.431	13533
913.545	13518
913.659	13616
913.772	13453
913.886	13282
914	13343
914.113	13403
914.226	13510
914.34	13407
914.453	13270
914.566	13411
914.68	13236
914.793	13259
914.906	12985
915.019	13084
915.132	12935
915.245	13015
915.358	13034
915.47	12966
915.583	13004
915.696	13061
915.809	13240
915.921	13152
916.034	13061
916.146	12973
916.259	13004
916.371	13114
916.483	13050
916.595	12894
916.708	12924
916.82	12859
916.932	12859
917.044	12973
917.156	12909
917.268	12665
917.38	12783
917.491	12703
917.603	12859
917.715	12837
917.826	12939
917.938	12734
918.049	12760
918.161	12768
918.272	12928
918.384	12954
918.495	12722
918.606	12540
918.717	12441
918.828	12544
918.939	12620
919.05	12467
919.161	12551
919.272	12372
919.383	12376
919.494	12582
919.604	12776
919.715	12540
919.826	12467
919.936	12578
920.047	12608
920.157	12604
920.267	12681
920.378	12585
920.488	12441
920.598	12779
920.708	12787
920.818	12753
920.928	12692
921.038	12882
921.148	12840
921.258	12585
921.368	12475
921.477	12376
921.587	12384
921.697	12224
921.806	12308
921.916	12171
922.025	12064
922.134	12030
922.244	12015
922.353	11988
922.462	11855
922.571	11786
922.68	11767
922.789	11516
922.898	11627
923.007	11581
923.116	11680
923.224	11611
923.333	11554
923.442	11505
923.55	11516
923.659	11589
923.767	11486
923.876	11478
923.984	11573
924.092	11391
924.201	11471
924.309	11395
924.417	11459
924.525	11364
924.633	11372
924.741	12304
924.849	11223
924.956	11356
925.064	11193
925.172	11052
925.279	11128
925.387	11280
925.494	11216
925.602	11353
925.709	11204
925.816	11109
925.924	11185
926.031	11174
926.138	11162
926.245	11166
926.352	11083
926.459	11109
926.566	11254
926.673	11041
926.779	11003
926.886	11033
926.993	10919
927.099	10843
927.206	10904
927.312	10771
927.419	10866
927.525	10862
927.631	10797
927.737	10740
927.843	10622
927.95	10584
928.056	10641
928.162	10683
928.267	10702
928.373	11311
928.479	10793
928.585	10535
928.69	10599
928.796	10687
928.901	10535
929.007	10417
929.112	10500
929.218	10542
929.323	10527
929.428	10428
929.533	10550
929.638	10306
929.743	10409
929.848	10402
929.953	10402
930.058	10265
930.163	10139
930.267	10078
930.372	10310
930.477	10109
930.581	10341
930.685	10219
930.79	10112
930.894	10059
930.998	9968
931.103	10105
931.207	9854
931.311	9682
931.415	9633
931.519	9507
931.623	9412
