Data from test_V78500241_1089.txt Node
Date: Fri Mar 25 14:41:18 CST 2022
User: usil
Spectrometer: V785-0024
Trigger mode: 0
Integration Time (sec): 4.000000E-1
Scans to average: 1
Nonlinearity correction enabled: false
Boxcar width: 0
Storing dark spectrum: false
XAxis mode: Wavelengths
Number of Pixels in Spectrum: 1024
>>>>>Begin Spectral Data<<<<<
801.071	22812
801.214	22626
801.356	22371
801.499	22287
801.641	22021
801.783	22082
801.926	22048
802.068	22013
802.211	21953
802.353	21759
802.496	21572
802.638	21504
802.78	21572
802.923	21420
803.065	21359
803.208	21431
803.35	21458
803.492	21519
803.635	21507
803.777	21405
803.919	21485
804.061	21694
804.204	21523
804.346	21382
804.488	21325
804.63	21348
804.773	21256
804.915	21294
805.057	21507
805.199	21317
805.341	21351
805.483	21401
805.626	21454
805.768	21443
805.91	21507
806.052	21355
806.194	21207
806.336	21469
806.478	21321
806.62	21492
806.762	21260
806.904	21526
807.046	21816
807.188	21709
807.33	21755
807.472	21884
807.614	21671
807.756	21660
807.898	21580
808.04	21618
808.182	21618
808.324	21713
808.465	21812
808.607	22006
808.749	22143
808.891	22272
809.033	22299
809.174	22287
809.316	22086
809.458	22055
809.6	21987
809.741	22070
809.883	21987
810.025	21991
810.166	21998
810.308	22002
810.45	21979
810.591	21892
810.733	21724
810.875	21561
811.016	21500
811.158	21488
811.299	21622
811.441	21694
811.582	21736
811.724	21591
811.865	21656
812.007	21477
812.148	21587
812.29	21591
812.431	21770
812.573	21816
812.714	21934
812.855	22086
812.997	22166
813.138	22196
813.279	22150
813.421	22116
813.562	21987
813.703	21930
813.845	21705
813.986	21504
814.127	21241
814.268	21256
814.41	21142
814.551	21085
814.692	21127
814.833	20990
814.974	21127
815.115	21131
815.256	20975
815.397	20952
815.539	20918
815.68	20785
815.821	20834
815.962	20849
816.103	20739
816.244	20655
816.385	20697
816.526	20507
816.666	20396
816.807	20248
816.948	20366
817.089	20370
817.23	20362
817.371	20294
817.512	20355
817.653	20358
817.793	20172
817.934	20240
818.075	20187
818.216	20237
818.356	20164
818.497	20008
818.638	19974
818.778	20073
818.919	19902
819.06	20001
819.2	20050
819.341	19993
819.481	20172
819.622	20290
819.762	20454
819.903	20377
820.043	20271
820.184	20214
820.324	20328
820.465	20229
820.605	20324
820.746	20305
820.886	19978
821.026	20233
821.167	20202
821.307	20328
821.447	20168
821.588	20031
821.728	19959
821.868	19734
822.008	19689
822.149	19624
822.289	19533
822.429	19403
822.569	19320
822.709	19324
822.849	19126
822.99	19145
823.13	19107
823.27	19084
823.41	18966
823.55	18939
823.69	18897
823.83	18977
823.97	18905
824.11	18764
824.25	18688
824.389	18795
824.529	18696
824.669	18692
824.809	18924
824.949	18882
825.089	18745
825.228	18700
825.368	18604
825.508	18551
825.648	18467
825.787	18544
825.927	18532
826.067	18513
826.206	18498
826.346	18582
826.485	18338
826.625	18540
826.765	18582
826.904	18521
827.044	18407
827.183	18216
827.323	18129
827.462	18311
827.601	18125
827.741	18117
827.88	18148
828.02	18159
828.159	18129
828.298	18186
828.437	18209
828.577	18087
828.716	18334
828.855	18110
828.994	18053
829.134	17950
829.273	17855
829.412	17828
829.551	17889
829.69	17908
829.829	17946
829.968	18015
830.107	17885
830.246	17961
830.385	17836
830.524	17908
830.663	17657
830.802	17726
830.941	17547
831.08	17455
831.219	17745
831.357	17611
831.496	17748
831.635	17532
831.774	17433
831.913	17455
832.051	17345
832.19	17299
832.329	17372
832.467	17296
832.606	17334
832.744	17258
832.883	17265
833.022	17235
833.16	17318
833.299	17315
833.437	17341
833.576	17322
833.714	17372
833.852	17391
833.991	17398
834.129	17406
834.267	17417
834.406	17181
834.544	17337
834.682	17341
834.821	17223
834.959	17490
835.097	17254
835.235	17421
835.373	17337
835.511	17265
835.65	17189
835.788	17208
835.926	17003
836.064	16995
836.202	17033
836.34	17193
836.478	17227
836.615	17159
836.753	17349
836.891	17315
837.029	17330
837.167	17128
837.305	17105
837.443	17143
837.58	17045
837.718	17117
837.856	17083
837.993	17067
838.131	17124
838.269	17003
838.406	16946
838.544	16904
838.681	16778
838.819	16660
838.956	16634
839.094	16561
839.231	16797
839.369	16831
839.506	16984
839.643	16831
839.781	16622
839.918	16542
840.055	16565
840.193	16565
840.33	16565
840.467	16554
840.604	16660
840.742	16904
840.879	16428
841.016	16561
841.153	16481
841.29	16713
841.427	16611
841.564	16645
841.701	16611
841.838	16535
841.975	16481
842.112	16523
842.249	16352
842.385	16371
842.522	16558
842.659	16436
842.796	16367
842.933	16375
843.069	16341
843.206	16413
843.343	16558
843.479	16527
843.616	16325
843.752	16150
843.889	16192
844.025	16226
844.162	16078
844.298	16310
844.435	16223
844.571	16101
844.708	16109
844.844	16280
844.98	16348
845.117	16306
845.253	16200
845.389	16097
845.525	16249
845.661	16257
845.798	16291
845.934	16440
846.07	16489
846.206	16573
846.342	16474
846.478	16204
846.614	15865
846.75	15819
846.886	15793
847.022	15880
847.158	15751
847.294	15774
847.429	15778
847.565	15705
847.701	15975
847.837	15580
847.972	15458
848.108	15652
848.244	15538
848.379	15370
848.515	15348
848.65	15256
848.786	15325
848.921	15420
849.057	15397
849.192	15416
849.328	15279
849.463	15367
849.598	15211
849.734	15279
849.869	15188
850.004	15123
850.14	15176
850.275	15043
850.41	15066
850.545	14998
850.68	15020
850.815	15104
850.95	15043
851.085	15287
851.22	15138
851.355	15138
851.49	14883
851.625	15066
851.76	15020
851.895	14982
852.03	14918
852.165	14998
852.299	15039
852.434	15176
852.569	15100
852.703	15138
852.838	15214
852.973	15260
853.107	15207
853.242	15001
853.376	14994
853.511	14872
853.645	14819
853.78	15093
853.914	14994
854.048	14887
854.183	14956
854.317	14979
854.451	15165
854.585	14971
854.72	14948
854.854	14948
854.988	14861
855.122	14868
855.256	14792
855.39	14910
855.524	15093
855.658	14948
855.792	14994
855.926	14963
856.06	14990
856.194	15089
856.327	14823
856.461	14906
856.595	14925
856.729	14880
856.862	14956
856.996	14986
857.13	14994
857.263	15028
857.397	15051
857.53	14963
857.664	15017
857.797	15051
857.931	15138
858.064	14967
858.197	15032
858.331	15001
858.464	14895
858.597	14838
858.731	14838
858.864	14868
858.997	14910
859.13	14906
859.263	14929
859.396	14971
859.529	14902
859.662	14830
859.795	14891
859.928	15055
860.061	15138
860.194	15135
860.327	14975
860.46	14887
860.592	15051
860.725	15055
860.858	15093
860.99	15001
861.123	14895
861.256	14876
861.388	14891
861.521	15462
861.653	14712
861.786	14746
861.918	14804
862.05	14902
862.183	14899
862.315	14933
862.447	14948
862.58	14902
862.712	14773
862.844	14632
862.976	14823
863.108	14773
863.24	15180
863.372	14625
863.504	14781
863.636	14602
863.768	14815
863.9	14674
864.032	14735
864.164	14781
864.296	14708
864.428	14811
864.559	14883
864.691	14754
864.823	14693
864.954	14746
865.086	14712
865.217	14735
865.349	14552
865.48	14629
865.612	14708
865.743	14815
865.875	14705
866.006	14587
866.137	14689
866.269	14712
866.4	14689
866.531	14629
866.662	14636
866.793	14621
866.924	14648
867.055	14727
867.186	14735
867.317	14670
867.448	14587
867.579	14617
867.71	14670
867.841	14495
867.972	14701
868.103	14712
868.233	14594
868.364	14625
868.495	14670
868.625	14899
868.756	15028
868.886	14902
869.017	14982
869.147	15058
869.278	15062
869.408	14918
869.539	14868
869.669	15055
869.799	15036
869.929	15051
870.06	15058
870.19	15317
870.32	15207
870.45	15302
870.58	15306
870.71	15564
870.84	15306
870.97	15405
871.1	15317
871.23	15576
871.36	15564
871.489	15431
871.619	15507
871.749	15534
871.879	15553
872.008	15682
872.138	15477
872.267	15526
872.397	15454
872.526	15412
872.656	15306
872.785	15420
872.915	15606
873.044	15587
873.173	15526
873.303	15652
873.432	15618
873.561	15671
873.69	15690
873.819	15530
873.948	15675
874.077	15584
874.206	15564
874.335	15622
874.464	15743
874.593	15831
874.722	15743
874.851	15934
874.979	15975
875.108	15827
875.237	15857
875.365	15816
875.494	15899
875.623	15991
875.751	15907
875.88	15956
876.008	16112
876.136	16097
876.265	16386
876.393	16341
876.521	16348
876.65	16375
876.778	16276
876.906	16188
877.034	16287
877.162	16246
877.29	16242
877.418	16344
877.546	16402
877.674	16379
877.802	16177
877.93	16325
878.058	16284
878.185	16280
878.313	16284
878.441	16382
878.568	16230
878.696	16295
878.824	16295
878.951	16432
879.079	16599
879.206	16721
879.333	16710
879.461	16554
879.588	16710
879.715	16850
879.842	16736
879.97	16550
880.097	16261
880.224	16303
880.351	16265
880.478	16295
880.605	16211
880.732	16249
880.859	16409
880.986	16154
881.112	16207
881.239	16025
881.366	16074
881.493	15911
881.619	15926
881.746	15857
881.872	15918
881.999	15709
882.125	15808
882.252	15945
882.378	16010
882.505	15964
882.631	15812
882.757	15709
882.883	15766
883.01	15633
883.136	15606
883.262	15545
883.388	15545
883.514	15732
883.64	15739
883.766	15538
883.892	15549
884.018	15447
884.143	15618
884.269	15736
884.395	15370
884.52	15302
884.646	15389
884.772	15363
884.897	15226
885.023	15329
885.148	15481
885.274	15523
885.399	15515
885.524	15294
885.65	15272
885.775	15386
885.9	15317
886.025	15428
886.15	15355
886.275	15310
886.4	15264
886.525	15203
886.65	15310
886.775	15279
886.9	15389
887.025	15507
887.149	15294
887.274	15119
887.399	15165
887.523	15131
887.648	15077
887.773	15036
887.897	15355
888.021	15230
888.146	15131
888.27	15294
888.395	15207
888.519	15188
888.643	15222
888.767	15207
888.891	15066
889.015	14979
889.139	15001
889.263	15001
889.387	15161
889.511	15188
889.635	15032
889.759	14975
889.883	14971
890.006	15108
890.13	15119
890.254	15024
890.377	14982
890.501	14788
890.624	14697
890.748	14872
890.871	14754
890.995	14602
891.118	14564
891.241	14674
891.364	14621
891.488	14792
891.611	14686
891.734	14674
891.857	14705
891.98	14640
892.103	14762
892.226	14705
892.349	14644
892.471	14541
892.594	14602
892.717	14731
892.839	14613
892.962	14667
893.085	14636
893.207	14636
893.33	14598
893.452	14568
893.575	14678
893.697	14640
893.819	14800
893.941	14872
894.064	14792
894.186	14712
894.308	14632
894.43	14746
894.552	14868
894.674	14765
894.796	14568
894.918	14689
895.04	14716
895.161	14735
895.283	14765
895.405	14693
895.526	14716
895.648	14689
895.769	14834
895.891	14857
896.012	14929
896.134	14845
896.255	14845
896.376	14765
896.498	14857
896.619	14933
896.74	14765
896.861	14960
896.982	15112
897.103	15272
897.224	15047
897.345	15146
897.466	14944
897.587	15097
897.708	15173
897.828	15112
897.949	15005
898.07	14956
898.19	15047
898.311	15093
898.431	15104
898.552	15055
898.672	15218
898.792	15294
898.913	15256
899.033	15074
899.153	15104
899.273	14853
899.393	14998
899.513	14994
899.633	14982
899.753	15039
899.873	15024
899.993	15005
900.113	15001
900.232	15017
900.352	14979
900.472	14906
900.591	14815
900.711	14910
900.83	14804
900.95	14979
901.069	15005
901.189	14800
901.308	14606
901.427	14541
901.546	14495
901.665	14537
901.784	14655
901.904	14473
902.023	14324
902.141	14096
902.26	14073
902.379	14126
902.498	14008
902.617	14092
902.735	14035
902.854	14100
902.973	14092
903.091	13742
903.21	13803
903.328	13871
903.446	13723
903.565	13731
903.683	13674
903.801	13563
903.919	13590
904.038	13712
904.156	13487
904.274	13552
904.392	13464
904.51	13396
904.627	13495
904.745	13415
904.863	13480
904.981	13263
905.098	13053
905.216	13110
905.334	13171
905.451	13160
905.569	13114
905.686	13190
905.803	13168
905.921	13046
906.038	13042
906.155	12939
906.272	12867
906.389	12852
906.506	12726
906.623	12707
906.74	12696
906.857	12589
906.974	12711
907.091	12817
907.208	13023
907.324	12810
907.441	12631
907.557	12517
907.674	12483
907.79	12414
907.907	12445
908.023	12460
908.139	12467
908.256	12365
908.372	12437
908.488	12376
908.604	12213
908.72	12209
908.836	12197
908.952	12182
909.068	12270
909.184	12334
909.3	12216
909.415	12311
909.531	12232
909.647	12060
909.762	11920
909.878	12045
909.993	11965
910.108	11988
910.224	11999
910.339	12057
910.454	11980
910.57	11908
910.685	11695
910.8	12026
910.915	12022
911.03	11786
911.145	11638
911.259	11714
911.374	11710
911.489	11596
911.604	11646
911.718	11463
911.833	11558
911.947	11368
912.062	11277
912.176	11444
912.291	11406
912.405	11406
912.519	11558
912.633	11554
912.748	11429
912.862	11398
912.976	11318
913.09	11197
913.204	11288
913.318	11261
913.431	11467
913.545	11391
913.659	11368
913.772	11250
913.886	11231
914	11185
914.113	11239
914.226	11261
914.34	11277
914.453	11159
914.566	11216
914.68	11083
914.793	11086
914.906	11067
915.019	10904
915.132	10915
915.245	10942
915.358	10885
915.47	10938
915.583	10835
915.696	10984
915.809	11105
915.921	11121
916.034	10930
916.146	10858
916.259	10858
916.371	10953
916.483	10904
916.595	10820
916.708	10824
916.82	10831
916.932	10736
917.044	10816
917.156	10786
917.268	10668
917.38	10687
917.491	10706
917.603	10733
917.715	10786
917.826	10801
917.938	10675
918.049	10577
918.161	10698
918.272	10801
918.384	10820
918.495	10656
918.606	10611
918.717	10615
918.828	10603
918.939	10668
919.05	10538
919.161	10554
919.272	10390
919.383	10375
919.494	10675
919.604	10755
919.715	10607
919.826	10481
919.936	10577
920.047	10660
920.157	10637
920.267	10755
920.378	10649
920.488	10607
920.598	10835
920.708	11041
920.818	10809
920.928	10683
921.038	11022
921.148	10904
921.258	10672
921.368	10596
921.477	10394
921.587	10386
921.697	10333
921.806	10405
921.916	10360
922.025	10150
922.134	10139
922.244	10101
922.353	10303
922.462	10078
922.571	9899
922.68	9876
922.789	9918
922.898	9827
923.007	9781
923.116	9899
923.224	9850
923.333	9823
923.442	9732
923.55	9663
923.659	9755
923.767	9797
923.876	9656
923.984	9717
924.092	9641
924.201	9679
924.309	9682
924.417	9751
924.525	9660
924.633	9587
924.741	10527
924.849	9466
924.956	9629
925.064	9477
925.172	9405
925.279	9504
925.387	9515
925.494	9481
925.602	9618
925.709	9545
925.816	9401
925.924	9496
926.031	9507
926.138	9466
926.245	9454
926.352	9386
926.459	9507
926.566	9523
926.673	9439
926.779	9336
926.886	9313
926.993	9226
927.099	9169
927.206	9104
927.312	9028
927.419	9230
927.525	9165
927.631	9180
927.737	9123
927.843	9017
927.95	8944
928.056	9032
928.162	9058
928.267	9131
928.373	9705
928.479	9123
928.585	8986
928.69	9024
928.796	8998
928.901	8952
929.007	8826
929.112	8880
929.218	8918
929.323	8868
929.428	8826
929.533	8990
929.638	8750
929.743	8823
929.848	8895
929.953	8853
930.058	8773
930.163	8659
930.267	8686
930.372	8758
930.477	8632
930.581	8864
930.685	8667
930.79	8606
930.894	8587
930.998	8507
931.103	8659
931.207	8385
931.311	8351
931.415	8267
931.519	8008
931.623	8092
