Data from test_V78500241_2696.txt Node
Date: Fri Mar 25 14:52:29 CST 2022
User: usil
Spectrometer: V785-0024
Trigger mode: 0
Integration Time (sec): 4.000000E-1
Scans to average: 1
Nonlinearity correction enabled: false
Boxcar width: 0
Storing dark spectrum: false
XAxis mode: Wavelengths
Number of Pixels in Spectrum: 1024
>>>>>Begin Spectral Data<<<<<
801.071	21998
801.214	21937
801.356	21694
801.499	21568
801.641	21412
801.783	21363
801.926	21469
802.068	21260
802.211	21142
802.353	21066
802.496	20979
802.638	20781
802.78	20804
802.923	20731
803.065	20708
803.208	20602
803.35	20678
803.492	20743
803.635	20880
803.777	20735
803.919	20750
804.061	21039
804.204	20845
804.346	20670
804.488	20606
804.63	20636
804.773	20579
804.915	20659
805.057	20609
805.199	20579
805.341	20629
805.483	20564
805.626	20625
805.768	20473
805.91	20712
806.052	20552
806.194	20587
806.336	20739
806.478	20579
806.62	20537
806.762	20541
806.904	20716
807.046	20956
807.188	20906
807.33	20975
807.472	20910
807.614	20670
807.756	20876
807.898	20807
808.04	20682
808.182	20712
808.324	20743
808.465	20686
808.607	20842
808.749	20895
808.891	21028
809.033	21123
809.174	20963
809.316	20864
809.458	21005
809.6	20925
809.741	21032
809.883	20994
810.025	21055
810.166	21062
810.308	21135
810.45	21062
810.591	20914
810.733	20887
810.875	20750
811.016	20636
811.158	20621
811.299	20804
811.441	20750
811.582	20899
811.724	20602
811.865	20746
812.007	20686
812.148	20796
812.29	20807
812.431	20929
812.573	21024
812.714	21096
812.855	21157
812.997	21252
813.138	21485
813.279	21435
813.421	21260
813.562	21169
813.703	21032
813.845	20868
813.986	20575
814.127	20374
814.268	20347
814.41	20427
814.551	20290
814.692	20309
814.833	20248
814.974	20252
815.115	20275
815.256	20050
815.397	20252
815.539	20161
815.68	19906
815.821	19970
815.962	20008
816.103	19982
816.244	19860
816.385	19852
816.526	19674
816.666	19575
816.807	19350
816.948	19518
817.089	19586
817.23	19533
817.371	19483
817.512	19445
817.653	19400
817.793	19354
817.934	19518
818.075	19422
818.216	19354
818.356	19350
818.497	19175
818.638	19057
818.778	19141
818.919	19129
819.06	19156
819.2	19209
819.341	19263
819.481	19438
819.622	19468
819.762	19624
819.903	19480
820.043	19441
820.184	19396
820.324	19384
820.465	19449
820.605	19362
820.746	19396
820.886	19308
821.026	19346
821.167	19350
821.307	19350
821.447	19304
821.588	19202
821.728	19065
821.868	18989
822.008	18829
822.149	18882
822.289	18711
822.429	18601
822.569	18483
822.709	18445
822.849	18342
822.99	18270
823.13	18277
823.27	18308
823.41	18064
823.55	18072
823.69	18034
823.83	18140
823.97	17996
824.11	17843
824.25	17893
824.389	17859
824.529	17916
824.669	17908
824.809	18041
824.949	17999
825.089	17977
825.228	17847
825.368	17733
825.508	17630
825.648	17676
825.787	17627
825.927	17707
826.067	17646
826.206	17577
826.346	17707
826.485	17714
826.625	17509
826.765	17737
826.904	17687
827.044	17532
827.183	17334
827.323	17299
827.462	17535
827.601	17292
827.741	17277
827.88	17383
828.02	17265
828.159	17315
828.298	17326
828.437	17372
828.577	17185
828.716	17376
828.855	17212
828.994	17094
829.134	17197
829.273	17208
829.412	17041
829.551	17121
829.69	17033
829.829	17064
829.968	17220
830.107	17250
830.246	17143
830.385	17045
830.524	17029
830.663	16904
830.802	16835
830.941	16710
831.08	16752
831.219	16809
831.357	16755
831.496	17010
831.635	16573
831.774	16630
831.913	16630
832.051	16478
832.19	16474
832.329	16516
832.467	16447
832.606	16382
832.744	16348
832.883	16459
833.022	16318
833.16	16424
833.299	16527
833.437	16443
833.576	16447
833.714	16497
833.852	16443
833.991	16523
834.129	16512
834.267	16485
834.406	16466
834.544	16466
834.682	16527
834.821	16424
834.959	16668
835.097	16432
835.235	16611
835.373	16516
835.511	16455
835.65	16455
835.788	16402
835.926	16284
836.064	16215
836.202	16249
836.34	16337
836.478	16504
836.615	16421
836.753	16485
836.891	16466
837.029	16398
837.167	16424
837.305	16382
837.443	16367
837.58	16166
837.718	16360
837.856	16295
837.993	16261
838.131	16207
838.269	16230
838.406	16230
838.544	16116
838.681	15941
838.819	16006
838.956	15823
839.094	15846
839.231	15930
839.369	15968
839.506	16238
839.643	16051
839.781	15865
839.918	15709
840.055	15892
840.193	15953
840.33	15781
840.467	15755
840.604	15732
840.742	16078
840.879	15671
841.016	15774
841.153	15701
841.29	15960
841.427	15789
841.564	15869
841.701	15823
841.838	15789
841.975	15728
842.112	15694
842.249	15667
842.385	15614
842.522	15781
842.659	15629
842.796	15564
842.933	15606
843.069	15553
843.206	15572
843.343	15728
843.479	15663
843.616	15641
843.752	15454
843.889	15462
844.025	15462
844.162	15359
844.298	15500
844.435	15488
844.571	15420
844.708	15374
844.844	15492
844.98	15504
845.117	15507
845.253	15370
845.389	15241
845.525	15378
845.661	15317
845.798	15135
845.934	15260
846.07	15154
846.206	15310
846.342	15351
846.478	15161
846.614	15058
846.75	14906
846.886	14914
847.022	15100
847.158	15005
847.294	15009
847.429	14864
847.565	14921
847.701	15245
847.837	14762
847.972	14552
848.108	14754
848.244	14743
848.379	14629
848.515	14488
848.65	14625
848.786	14583
848.921	14549
849.057	14629
849.192	14667
849.328	14575
849.463	14583
849.598	14495
849.734	14556
849.869	14438
850.004	14404
850.14	14404
850.275	14385
850.41	14263
850.545	14218
850.68	14233
850.815	14282
850.95	14275
851.085	14537
851.22	14465
851.355	14385
851.49	14313
851.625	14282
851.76	14298
851.895	14202
852.03	14233
852.165	14408
852.299	14358
852.434	14347
852.569	14339
852.703	14404
852.838	14404
852.973	14522
853.107	14419
853.242	14278
853.376	14271
853.511	14111
853.645	14153
853.78	14347
853.914	14252
854.048	14119
854.183	14073
854.317	14240
854.451	14423
854.585	14168
854.72	14195
854.854	14183
854.988	14199
855.122	14191
855.256	14058
855.39	14240
855.524	14298
855.658	14244
855.792	14191
855.926	14271
856.06	14271
856.194	14298
856.327	14229
856.461	14103
856.595	14145
856.729	14202
856.862	14290
856.996	14271
857.13	14313
857.263	14404
857.397	14240
857.53	14206
857.664	14301
857.797	14298
857.931	14263
858.064	14252
858.197	14313
858.331	14214
858.464	14115
858.597	14187
858.731	14225
858.864	14275
858.997	14138
859.13	14286
859.263	14240
859.396	14290
859.529	14119
859.662	14244
859.795	14088
859.928	14176
860.061	14408
860.194	14408
860.327	14259
860.46	14275
860.592	14305
860.725	14225
860.858	14294
860.99	14214
861.123	14229
861.256	14161
861.388	14237
861.521	14933
861.653	14176
861.786	14024
861.918	14142
862.05	14187
862.183	14138
862.315	14263
862.447	14153
862.58	14073
862.712	13982
862.844	13902
862.976	14020
863.108	14138
863.24	14473
863.372	13890
863.504	13978
863.636	14027
863.768	13982
863.9	14016
864.032	13898
864.164	13849
864.296	14046
864.428	14043
864.559	14058
864.691	14024
864.823	14024
864.954	14039
865.086	14077
865.217	14016
865.349	13970
865.48	14031
865.612	14005
865.743	14084
865.875	14005
866.006	13993
866.137	13894
866.269	14020
866.4	13944
866.531	13970
866.662	13940
866.793	13890
866.924	13898
867.055	14008
867.186	13986
867.317	13997
867.448	13894
867.579	13982
867.71	13951
867.841	13959
867.972	14001
868.103	13993
868.233	14069
868.364	14012
868.495	14069
868.625	14225
868.756	14263
868.886	14119
869.017	14206
869.147	14351
869.278	14313
869.408	14347
869.539	14259
869.669	14244
869.799	14267
869.929	14389
870.06	14339
870.19	14522
870.32	14450
870.45	14499
870.58	14564
870.71	14792
870.84	14765
870.97	14625
871.1	14568
871.23	14861
871.36	14880
871.489	14610
871.619	14861
871.749	14811
871.879	14864
872.008	14960
872.138	14823
872.267	14800
872.397	14629
872.526	14632
872.656	14659
872.785	14686
872.915	14823
873.044	14960
873.173	14933
873.303	14914
873.432	14899
873.561	15074
873.69	14887
873.819	14769
873.948	14960
874.077	14952
874.206	14861
874.335	14857
874.464	15070
874.593	15184
874.722	15017
874.851	15241
874.979	15161
875.108	15310
875.237	15192
875.365	15146
875.494	15268
875.623	15264
875.751	15154
875.88	15230
876.008	15336
876.136	15359
876.265	15656
876.393	15739
876.521	15717
876.65	15698
876.778	15618
876.906	15561
877.034	15629
877.162	15675
877.29	15622
877.418	15648
877.546	15671
877.674	15614
877.802	15561
877.93	15625
878.058	15595
878.185	15515
878.313	15633
878.441	15591
878.568	15523
878.696	15663
878.824	15644
878.951	15564
879.079	15732
879.206	15937
879.333	15808
879.461	15728
879.588	15667
879.715	15823
879.842	15960
879.97	15694
880.097	15561
880.224	15431
880.351	15504
880.478	15393
880.605	15454
880.732	15557
880.859	15751
880.986	15485
881.112	15561
881.239	15294
881.366	15226
881.493	15180
881.619	15203
881.746	15108
881.872	15074
881.999	15127
882.125	15066
882.252	15184
882.378	15142
882.505	15207
882.631	15112
882.757	14876
882.883	14975
883.01	14963
883.136	14963
883.262	14811
883.388	14743
883.514	15036
883.64	14868
883.766	14921
883.892	14777
884.018	14830
884.143	14899
884.269	14906
884.395	14739
884.52	14651
884.646	14712
884.772	14545
884.897	14598
885.023	14602
885.148	14800
885.274	14857
885.399	14678
885.524	14663
885.65	14613
885.775	14686
885.9	14648
886.025	14758
886.15	14651
886.275	14648
886.4	14526
886.525	14606
886.65	14564
886.775	14712
886.9	14739
887.025	14842
887.149	14617
887.274	14492
887.399	14476
887.523	14412
887.648	14549
887.773	14393
887.897	14499
888.021	14533
888.146	14423
888.27	14537
888.395	14579
888.519	14610
888.643	14488
888.767	14651
888.891	14396
889.015	14324
889.139	14358
889.263	14275
889.387	14393
889.511	14575
889.635	14473
889.759	14298
889.883	14355
890.006	14370
890.13	14476
890.254	14229
890.377	14278
890.501	14168
890.624	14142
890.748	14157
890.871	14077
890.995	13970
891.118	13898
891.241	13967
891.364	14039
891.488	14138
891.611	13974
891.734	14050
891.857	14088
891.98	14027
892.103	14142
892.226	14020
892.349	14046
892.471	13860
892.594	14046
892.717	14084
892.839	14039
892.962	13989
893.085	14111
893.207	14016
893.33	13894
893.452	13860
893.575	14115
893.697	13959
893.819	14244
893.941	14317
894.064	14294
894.186	14020
894.308	13989
894.43	14180
894.552	14278
894.674	14161
894.796	14054
894.918	14100
895.04	14012
895.161	14202
895.283	14176
895.405	14134
895.526	14111
895.648	14183
895.769	14191
895.891	14259
896.012	14248
896.134	14240
896.255	14244
896.376	14126
896.498	14256
896.619	14248
896.74	14221
896.861	14278
896.982	14499
897.103	14670
897.224	14507
897.345	14438
897.466	14377
897.587	14495
897.708	14674
897.828	14476
897.949	14438
898.07	14457
898.19	14434
898.311	14568
898.431	14488
898.552	14518
898.672	14693
898.792	14670
898.913	14579
899.033	14495
899.153	14317
899.273	14336
899.393	14370
899.513	14419
899.633	14450
899.753	14488
899.873	14434
899.993	14454
900.113	14320
900.232	14495
900.352	14374
900.472	14298
900.591	14240
900.711	14278
900.83	14389
900.95	14385
901.069	14457
901.189	14259
901.308	13940
901.427	13932
901.546	13925
901.665	14073
901.784	13913
901.904	13837
902.023	13731
902.141	13578
902.26	13537
902.379	13514
902.498	13426
902.617	13506
902.735	13506
902.854	13514
902.973	13502
903.091	13308
903.21	13247
903.328	13190
903.446	13152
903.565	13072
903.683	13080
903.801	12966
903.919	13099
904.038	13050
904.156	12981
904.274	12996
904.392	12878
904.51	12840
904.627	12886
904.745	12943
904.863	12920
904.981	12749
905.098	12597
905.216	12589
905.334	12642
905.451	12593
905.569	12578
905.686	12696
905.803	12513
905.921	12380
906.038	12475
906.155	12467
906.272	12338
906.389	12399
906.506	12182
906.623	12159
906.74	12125
906.857	12026
906.974	12197
907.091	12258
907.208	12258
907.324	12167
907.441	12106
907.557	12076
907.674	11920
907.79	11923
907.907	11889
908.023	11969
908.139	11958
908.256	11885
908.372	11866
908.488	11866
908.604	11680
908.72	11722
908.836	11657
908.952	11680
909.068	11760
909.184	11783
909.3	11722
909.415	11745
909.531	11630
909.647	11512
909.762	11505
909.878	11429
909.993	11520
910.108	11452
910.224	11429
910.339	11463
910.454	11360
910.57	11364
910.685	11269
910.8	11570
910.915	11490
911.03	11303
911.145	11212
911.259	11124
911.374	11140
911.489	11037
911.604	11109
911.718	10957
911.833	11033
911.947	10816
912.062	10755
912.176	10816
912.291	10938
912.405	10885
912.519	11181
912.633	11136
912.748	11029
912.862	11033
912.976	10771
913.09	10729
913.204	10725
913.318	10831
913.431	10820
913.545	10968
913.659	11022
913.772	10881
913.886	10793
914	10679
914.113	10767
914.226	10858
914.34	10748
914.453	10611
914.566	10752
914.68	10683
914.793	10630
914.906	10409
915.019	10455
915.132	10390
915.245	10360
915.358	10455
915.47	10580
915.583	10489
915.696	10413
915.809	10596
915.921	10561
916.034	10451
916.146	10451
916.259	10379
916.371	10500
916.483	10363
916.595	10329
916.708	10363
916.82	10390
916.932	10322
917.044	10390
917.156	10409
917.268	10325
917.38	10280
917.491	10215
917.603	10333
917.715	10386
917.826	10417
917.938	10280
918.049	10150
918.161	10322
918.272	10481
918.384	10371
918.495	10257
918.606	10166
918.717	10093
918.828	10158
918.939	10154
919.05	10086
919.161	10105
919.272	9934
919.383	10090
919.494	10234
919.604	10341
919.715	10158
919.826	10128
919.936	10105
920.047	10249
920.157	10169
920.267	10322
920.378	10223
920.488	10196
920.598	10356
920.708	10538
920.818	10424
920.928	10371
921.038	10516
921.148	10577
921.258	10249
921.368	10105
921.477	9979
921.587	9918
921.697	9873
921.806	10082
921.916	9930
922.025	9728
922.134	9667
922.244	9660
922.353	9751
922.462	9542
922.571	9564
922.68	9405
922.789	9435
922.898	9435
923.007	9294
923.116	9481
923.224	9401
923.333	9462
923.442	9321
923.55	9329
923.659	9348
923.767	9447
923.876	9329
923.984	9351
924.092	9279
924.201	9329
924.309	9310
924.417	9279
924.525	9237
924.633	9233
924.741	10112
924.849	9070
924.956	9253
925.064	9112
925.172	8967
925.279	9058
925.387	9112
925.494	9009
925.602	9199
925.709	9119
925.816	9036
925.924	9077
926.031	9214
926.138	9100
926.245	9112
926.352	8941
926.459	9195
926.566	9157
926.673	9017
926.779	8975
926.886	8967
926.993	8807
927.099	8788
927.206	8758
927.312	8708
927.419	8830
927.525	8769
927.631	8868
927.737	8682
927.843	8670
927.95	8590
928.056	8663
928.162	8731
928.267	8773
928.373	9416
928.479	8807
928.585	8545
928.69	8697
928.796	8792
928.901	8648
929.007	8492
929.112	8712
929.218	8537
929.323	8511
929.428	8533
929.533	8625
929.638	8469
929.743	8571
929.848	8568
929.953	8545
930.058	8347
930.163	8248
930.267	8275
930.372	8347
930.477	8282
930.581	8480
930.685	8381
930.79	8240
930.894	8233
930.998	8244
931.103	8358
931.207	7959
931.311	7993
931.415	7887
931.519	7719
931.623	7761
