Data from test_V78500241_2059.txt Node
Date: Fri Mar 25 14:48:03 CST 2022
User: usil
Spectrometer: V785-0024
Trigger mode: 0
Integration Time (sec): 4.000000E-1
Scans to average: 1
Nonlinearity correction enabled: false
Boxcar width: 0
Storing dark spectrum: false
XAxis mode: Wavelengths
Number of Pixels in Spectrum: 1024
>>>>>Begin Spectral Data<<<<<
801.071	22166
801.214	22040
801.356	21747
801.499	21606
801.641	21519
801.783	21420
801.926	21599
802.068	21355
802.211	21374
802.353	21150
802.496	21001
802.638	20986
802.78	20982
802.923	20872
803.065	20792
803.208	20815
803.35	20750
803.492	20933
803.635	20910
803.777	20819
803.919	20785
804.061	21116
804.204	20880
804.346	20788
804.488	20705
804.63	20769
804.773	20617
804.915	20686
805.057	20918
805.199	20644
805.341	20830
805.483	20849
805.626	20807
805.768	20625
805.91	20807
806.052	20716
806.194	20522
806.336	20933
806.478	20689
806.62	20663
806.762	20724
806.904	20967
807.046	21093
807.188	21028
807.33	20914
807.472	21157
807.614	20986
807.756	21066
807.898	20845
808.04	20800
808.182	20853
808.324	20781
808.465	20861
808.607	20971
808.749	21150
808.891	21302
809.033	21264
809.174	21325
809.316	21116
809.458	21032
809.6	21066
809.741	21237
809.883	21252
810.025	21348
810.166	21230
810.308	21256
810.45	21237
810.591	21165
810.733	20861
810.875	20918
811.016	20788
811.158	20815
811.299	20937
811.441	21043
811.582	20967
811.724	20891
811.865	20838
812.007	20921
812.148	20773
812.29	20914
812.431	21024
812.573	21154
812.714	21344
812.855	21443
812.997	21496
813.138	21507
813.279	21374
813.421	21317
813.562	21317
813.703	21051
813.845	21142
813.986	20708
814.127	20644
814.268	20526
814.41	20442
814.551	20419
814.692	20556
814.833	20412
814.974	20305
815.115	20431
815.256	20282
815.397	20282
815.539	20256
815.68	20229
815.821	20016
815.962	20130
816.103	20187
816.244	19947
816.385	19860
816.526	19822
816.666	19750
816.807	19529
816.948	19643
817.089	19738
817.23	19510
817.371	19540
817.512	19662
817.653	19521
817.793	19415
817.934	19533
818.075	19449
818.216	19616
818.356	19510
818.497	19400
818.638	19285
818.778	19217
818.919	19320
819.06	19179
819.2	19327
819.341	19476
819.481	19525
819.622	19453
819.762	19753
819.903	19696
820.043	19647
820.184	19655
820.324	19468
820.465	19567
820.605	19525
820.746	19499
820.886	19384
821.026	19468
821.167	19430
821.307	19521
821.447	19449
821.588	19438
821.728	19247
821.868	19095
822.008	18916
822.149	18970
822.289	18897
822.429	18749
822.569	18612
822.709	18669
822.849	18456
822.99	18407
823.13	18441
823.27	18216
823.41	18201
823.55	18174
823.69	18197
823.83	18388
823.97	18140
824.11	18068
824.25	17980
824.389	17992
824.529	18060
824.669	17980
824.809	18171
824.949	18114
825.089	18087
825.228	17980
825.368	17935
825.508	17935
825.648	17847
825.787	17786
825.927	17939
826.067	17748
826.206	17771
826.346	17824
826.485	17817
826.625	17840
826.765	17843
826.904	17824
827.044	17619
827.183	17516
827.323	17497
827.462	17615
827.601	17501
827.741	17482
827.88	17471
828.02	17334
828.159	17482
828.298	17532
828.437	17604
828.577	17471
828.716	17707
828.855	17516
828.994	17242
829.134	17265
829.273	17166
829.412	17174
829.551	17124
829.69	17269
829.829	17204
829.968	17368
830.107	17193
830.246	17269
830.385	17170
830.524	17280
830.663	17045
830.802	17029
830.941	16858
831.08	16839
831.219	16942
831.357	16919
831.496	17159
831.635	16885
831.774	16809
831.913	16793
832.051	16618
832.19	16554
832.329	16816
832.467	16554
832.606	16588
832.744	16561
832.883	16558
833.022	16592
833.16	16493
833.299	16645
833.437	16634
833.576	16599
833.714	16664
833.852	16603
833.991	16702
834.129	16641
834.267	16660
834.406	16622
834.544	16535
834.682	16618
834.821	16558
834.959	16809
835.097	16573
835.235	16622
835.373	16611
835.511	16546
835.65	16462
835.788	16546
835.926	16348
836.064	16337
836.202	16417
836.34	16603
836.478	16573
836.615	16493
836.753	16497
836.891	16660
837.029	16493
837.167	16512
837.305	16421
837.443	16424
837.58	16382
837.718	16432
837.856	16348
837.993	16219
838.131	16363
838.269	16310
838.406	16333
838.544	16306
838.681	16071
838.819	16105
838.956	15899
839.094	15926
839.231	16017
839.369	16059
839.506	16386
839.643	16196
839.781	15918
839.918	15998
840.055	15998
840.193	16002
840.33	15911
840.467	15884
840.604	15865
840.742	16234
840.879	15903
841.016	15705
841.153	15831
841.29	16082
841.427	15934
841.564	15911
841.701	15956
841.838	15975
841.975	15934
842.112	15831
842.249	15652
842.385	15656
842.522	15835
842.659	15762
842.796	15690
842.933	15793
843.069	15587
843.206	15618
843.343	15823
843.479	15736
843.616	15770
843.752	15526
843.889	15454
844.025	15648
844.162	15488
844.298	15618
844.435	15485
844.571	15485
844.708	15591
844.844	15648
844.98	15759
845.117	15553
845.253	15450
845.389	15447
845.525	15454
845.661	15431
845.798	15268
845.934	15287
846.07	15256
846.206	15313
846.342	15378
846.478	15169
846.614	15047
846.75	15005
846.886	15001
847.022	15199
847.158	15093
847.294	15112
847.429	15207
847.565	15017
847.701	15291
847.837	14902
847.972	14697
848.108	14895
848.244	14963
848.379	14731
848.515	14602
848.65	14598
848.786	14617
848.921	14712
849.057	14773
849.192	14762
849.328	14731
849.463	14674
849.598	14701
849.734	14682
849.869	14541
850.004	14385
850.14	14396
850.275	14446
850.41	14290
850.545	14427
850.68	14431
850.815	14362
850.95	14446
851.085	14545
851.22	14499
851.355	14442
851.49	14358
851.625	14415
851.76	14446
851.895	14244
852.03	14248
852.165	14408
852.299	14514
852.434	14465
852.569	14450
852.703	14488
852.838	14431
852.973	14682
853.107	14575
853.242	14267
853.376	14290
853.511	14202
853.645	14294
853.78	14503
853.914	14313
854.048	14298
854.183	14275
854.317	14294
854.451	14431
854.585	14305
854.72	14317
854.854	14381
854.988	14271
855.122	14286
855.256	14115
855.39	14248
855.524	14324
855.658	14336
855.792	14438
855.926	14400
856.06	14374
856.194	14423
856.327	14415
856.461	14278
856.595	14225
856.729	14237
856.862	14457
856.996	14480
857.13	14408
857.263	14412
857.397	14492
857.53	14244
857.664	14408
857.797	14438
857.931	14423
858.064	14328
858.197	14385
858.331	14408
858.464	14290
858.597	14214
858.731	14278
858.864	14218
858.997	14233
859.13	14313
859.263	14396
859.396	14438
859.529	14263
859.662	14229
859.795	14221
859.928	14362
860.061	14484
860.194	14454
860.327	14339
860.46	14214
860.592	14431
860.725	14393
860.858	14374
860.99	14351
861.123	14187
861.256	14278
861.388	14324
861.521	15047
861.653	14225
861.786	14221
861.918	14115
862.05	14183
862.183	14256
862.315	14233
862.447	14305
862.58	14263
862.712	14043
862.844	14008
862.976	14100
863.108	14073
863.24	14438
863.372	13993
863.504	14039
863.636	14084
863.768	14164
863.9	14115
864.032	14081
864.164	14081
864.296	14069
864.428	14180
864.559	14214
864.691	14183
864.823	14107
864.954	14001
865.086	14134
865.217	14092
865.349	13986
865.48	14035
865.612	14062
865.743	14259
865.875	14149
866.006	13967
866.137	14092
866.269	14081
866.4	14088
866.531	13997
866.662	14107
866.793	13967
866.924	14039
867.055	14096
867.186	14088
867.317	14001
867.448	13955
867.579	14039
867.71	13917
867.841	13967
867.972	14107
868.103	14126
868.233	14096
868.364	14180
868.495	14206
868.625	14263
868.756	14488
868.886	14347
869.017	14347
869.147	14461
869.278	14518
869.408	14328
869.539	14351
869.669	14423
869.799	14389
869.929	14404
870.06	14488
870.19	14693
870.32	14598
870.45	14670
870.58	14762
870.71	14834
870.84	14838
870.97	14864
871.1	14765
871.23	14902
871.36	14994
871.489	14861
871.619	15039
871.749	14868
871.879	14944
872.008	15055
872.138	14956
872.267	15009
872.397	14826
872.526	14861
872.656	14758
872.785	14754
872.915	14971
873.044	15001
873.173	14887
873.303	15062
873.432	15020
873.561	15013
873.69	14998
873.819	14899
873.948	15051
874.077	15058
874.206	15009
874.335	14979
874.464	15207
874.593	15298
874.722	15283
874.851	15252
874.979	15378
875.108	15359
875.237	15291
875.365	15283
875.494	15249
875.623	15496
875.751	15351
875.88	15370
876.008	15500
876.136	15530
876.265	15808
876.393	15770
876.521	15850
876.65	15774
876.778	15778
876.906	15660
877.034	15675
877.162	15644
877.29	15808
877.418	15637
877.546	15701
877.674	15770
877.802	15728
877.93	15774
878.058	15732
878.185	15656
878.313	15747
878.441	15671
878.568	15496
878.696	15701
878.824	15709
878.951	15812
879.079	15854
879.206	16074
879.333	15899
879.461	15770
879.588	15804
879.715	15960
879.842	16002
879.97	15838
880.097	15633
880.224	15515
880.351	15622
880.478	15599
880.605	15561
880.732	15549
880.859	15785
880.986	15584
881.112	15587
881.239	15424
881.366	15355
881.493	15348
881.619	15249
881.746	15283
881.872	15245
881.999	15184
882.125	15336
882.252	15332
882.378	15233
882.505	15439
882.631	15207
882.757	15104
882.883	15138
883.01	15093
883.136	15036
883.262	14979
883.388	14933
883.514	15047
883.64	15142
883.766	15043
883.892	14857
884.018	14826
884.143	15047
884.269	15199
884.395	14792
884.52	14826
884.646	14754
884.772	14712
884.897	14610
885.023	14727
885.148	14796
885.274	14918
885.399	14815
885.524	14686
885.65	14807
885.775	14823
885.9	14739
886.025	14925
886.15	14823
886.275	14762
886.4	14663
886.525	14743
886.65	14674
886.775	14758
886.9	14876
887.025	15051
887.149	14720
887.274	14568
887.399	14564
887.523	14594
887.648	14575
887.773	14526
887.897	14739
888.021	14648
888.146	14514
888.27	14701
888.395	14769
888.519	14678
888.643	14670
888.767	14594
888.891	14503
889.015	14549
889.139	14457
889.263	14469
889.387	14530
889.511	14659
889.635	14564
889.759	14526
889.883	14434
890.006	14583
890.13	14560
890.254	14465
890.377	14366
890.501	14229
890.624	14233
890.748	14381
890.871	14145
890.995	14138
891.118	14096
891.241	14115
891.364	14187
891.488	14237
891.611	14035
891.734	14237
891.857	14191
891.98	14191
892.103	14275
892.226	14176
892.349	14191
892.471	13955
892.594	14092
892.717	14103
892.839	14077
892.962	14145
893.085	14244
893.207	14195
893.33	14126
893.452	14088
893.575	14157
893.697	14088
893.819	14366
893.941	14328
894.064	14267
894.186	14046
894.308	14180
894.43	14240
894.552	14366
894.674	14339
894.796	14202
894.918	14176
895.04	14153
895.161	14358
895.283	14233
895.405	14119
895.526	14271
895.648	14244
895.769	14317
895.891	14286
896.012	14415
896.134	14427
896.255	14267
896.376	14229
896.498	14267
896.619	14408
896.74	14305
896.861	14400
896.982	14670
897.103	14883
897.224	14625
897.345	14594
897.466	14400
897.587	14613
897.708	14610
897.828	14617
897.949	14492
898.07	14503
898.19	14484
898.311	14731
898.431	14552
898.552	14648
898.672	14708
898.792	14762
898.913	14697
899.033	14670
899.153	14526
899.273	14495
899.393	14594
899.513	14583
899.633	14610
899.753	14503
899.873	14438
899.993	14655
900.113	14537
900.232	14632
900.352	14549
900.472	14389
900.591	14442
900.711	14377
900.83	14396
900.95	14469
901.069	14492
901.189	14324
901.308	14210
901.427	13978
901.546	13989
901.665	14115
901.784	13986
901.904	13864
902.023	13925
902.141	13639
902.26	13586
902.379	13651
902.498	13632
902.617	13533
902.735	13609
902.854	13704
902.973	13556
903.091	13430
903.21	13343
903.328	13346
903.446	13228
903.565	13225
903.683	13266
903.801	13149
903.919	13152
904.038	13164
904.156	13012
904.274	13076
904.392	13084
904.51	13027
904.627	13012
904.745	13046
904.863	13091
904.981	12787
905.098	12696
905.216	12665
905.334	12806
905.451	12768
905.569	12700
905.686	12738
905.803	12722
905.921	12623
906.038	12646
906.155	12525
906.272	12388
906.389	12429
906.506	12315
906.623	12300
906.74	12277
906.857	12292
906.974	12235
907.091	12346
907.208	12437
907.324	12304
907.441	12254
907.557	12068
907.674	11999
907.79	12045
907.907	12022
908.023	12083
908.139	12057
908.256	12030
908.372	11897
908.488	12022
908.604	11893
908.72	11863
908.836	11859
908.952	11767
909.068	11893
909.184	11882
909.3	11760
909.415	11798
909.531	11764
909.647	11581
909.762	11577
909.878	11524
909.993	11566
910.108	11478
910.224	11573
910.339	11520
910.454	11448
910.57	11455
910.685	11421
910.8	11630
910.915	11596
911.03	11402
911.145	11406
911.259	11231
911.374	11258
911.489	11193
911.604	11151
911.718	11014
911.833	11037
911.947	10946
912.062	10892
912.176	10999
912.291	11079
912.405	11025
912.519	11322
912.633	11269
912.748	11151
912.862	10984
912.976	10892
913.09	10850
913.204	10835
913.318	10892
913.431	10965
913.545	10991
913.659	11041
913.772	10919
913.886	10767
914	10809
914.113	10854
914.226	10877
914.34	10946
914.453	10664
914.566	10858
914.68	10710
914.793	10660
914.906	10580
915.019	10428
915.132	10443
915.245	10542
915.358	10538
915.47	10474
915.583	10607
915.696	10538
915.809	10634
915.921	10725
916.034	10558
916.146	10428
916.259	10519
916.371	10561
916.483	10531
916.595	10478
916.708	10478
916.82	10493
916.932	10436
917.044	10424
917.156	10382
917.268	10329
917.38	10341
917.491	10314
917.603	10424
917.715	10478
917.826	10474
917.938	10310
918.049	10303
918.161	10314
918.272	10546
918.384	10485
918.495	10371
918.606	10242
918.717	10211
918.828	10238
918.939	10280
919.05	10128
919.161	10139
919.272	9987
919.383	10124
919.494	10261
919.604	10489
919.715	10242
919.826	10181
919.936	10318
920.047	10303
920.157	10344
920.267	10459
920.378	10291
920.488	10287
920.598	10363
920.708	10622
920.818	10443
920.928	10447
921.038	10569
921.148	10592
921.258	10306
921.368	10234
921.477	10086
921.587	10097
921.697	9983
921.806	10109
921.916	10078
922.025	9819
922.134	9819
922.244	9812
922.353	9854
922.462	9728
922.571	9690
922.68	9591
922.789	9507
922.898	9622
923.007	9462
923.116	9454
923.224	9492
923.333	9458
923.442	9386
923.55	9279
923.659	9393
923.767	9389
923.876	9329
923.984	9428
924.092	9310
924.201	9348
924.309	9389
924.417	9355
924.525	9287
924.633	9351
924.741	10310
924.849	9180
924.956	9283
925.064	9066
925.172	9104
925.279	9138
925.387	9169
925.494	9188
925.602	9233
925.709	9180
925.816	9085
925.924	9173
926.031	9192
926.138	9169
926.245	9176
926.352	9077
926.459	9245
926.566	9253
926.673	9165
926.779	9009
926.886	9017
926.993	8845
927.099	8853
927.206	8834
927.312	8853
927.419	8921
927.525	8933
927.631	8910
927.737	8796
927.843	8754
927.95	8644
928.056	8735
928.162	8769
928.267	8838
928.373	9386
928.479	8925
928.585	8587
928.69	8766
928.796	8773
928.901	8621
929.007	8556
929.112	8727
929.218	8670
929.323	8598
929.428	8526
929.533	8697
929.638	8537
929.743	8503
929.848	8625
929.953	8560
930.058	8469
930.163	8301
930.267	8408
930.372	8454
930.477	8358
930.581	8590
930.685	8465
930.79	8252
930.894	8263
930.998	8252
931.103	8465
931.207	8145
931.311	7986
931.415	7982
931.519	7784
931.623	7818
