Data from test_V78500241_1277.txt Node
Date: Fri Mar 25 14:42:36 CST 2022
User: usil
Spectrometer: V785-0024
Trigger mode: 0
Integration Time (sec): 4.000000E-1
Scans to average: 1
Nonlinearity correction enabled: false
Boxcar width: 0
Storing dark spectrum: false
XAxis mode: Wavelengths
Number of Pixels in Spectrum: 1024
>>>>>Begin Spectral Data<<<<<
801.071	22341
801.214	22310
801.356	22055
801.499	21869
801.641	21705
801.783	21698
801.926	21701
802.068	21804
802.211	21618
802.353	21485
802.496	21233
802.638	21298
802.78	21142
802.923	21230
803.065	21066
803.208	20948
803.35	21199
803.492	21184
803.635	21233
803.777	21157
803.919	21108
804.061	21344
804.204	21112
804.346	20990
804.488	20975
804.63	21020
804.773	20963
804.915	20990
805.057	21131
805.199	20906
805.341	21100
805.483	21211
805.626	21009
805.768	20948
805.91	21070
806.052	21032
806.194	20807
806.336	21165
806.478	20986
806.62	20960
806.762	21104
806.904	21096
807.046	21534
807.188	21348
807.33	21310
807.472	21340
807.614	21310
807.756	21359
807.898	21249
808.04	21192
808.182	21192
808.324	21127
808.465	21252
808.607	21412
808.749	21458
808.891	21667
809.033	21838
809.174	21606
809.316	21542
809.458	21500
809.6	21370
809.741	21538
809.883	21542
810.025	21595
810.166	21633
810.308	21458
810.45	21622
810.591	21542
810.733	21401
810.875	21275
811.016	21066
811.158	21081
811.299	21214
811.441	21355
811.582	21321
811.724	21302
811.865	21150
812.007	21066
812.148	21173
812.29	21199
812.431	21378
812.573	21549
812.714	21557
812.855	21675
812.997	21755
813.138	21972
813.279	21739
813.421	21736
813.562	21587
813.703	21382
813.845	21317
813.986	21017
814.127	20941
814.268	20811
814.41	20731
814.551	20629
814.692	20727
814.833	20716
814.974	20587
815.115	20712
815.256	20583
815.397	20575
815.539	20507
815.68	20469
815.821	20400
815.962	20446
816.103	20473
816.244	20343
816.385	20214
816.526	20237
816.666	19993
816.807	19906
816.948	19940
817.089	20046
817.23	19860
817.371	19917
817.512	19894
817.653	19852
817.793	19879
817.934	19830
818.075	19887
818.216	19898
818.356	19879
818.497	19708
818.638	19449
818.778	19616
818.919	19563
819.06	19597
819.2	19685
819.341	19731
819.481	19765
819.622	19864
819.762	20103
819.903	20084
820.043	20005
820.184	19814
820.324	19868
820.465	19928
820.605	19852
820.746	19780
820.886	19719
821.026	19795
821.167	19742
821.307	19871
821.447	19913
821.588	19719
821.728	19506
821.868	19457
822.008	19312
822.149	19316
822.289	19251
822.429	19042
822.569	18875
822.709	18882
822.849	18837
822.99	18734
823.13	18768
823.27	18722
823.41	18658
823.55	18566
823.69	18604
823.83	18692
823.97	18559
824.11	18376
824.25	18289
824.389	18289
824.529	18410
824.669	18350
824.809	18486
824.949	18525
825.089	18380
825.228	18369
825.368	18095
825.508	18049
825.648	18079
825.787	18125
825.927	18308
826.067	18102
826.206	18117
826.346	18121
826.485	18232
826.625	18194
826.765	18235
826.904	18224
827.044	17832
827.183	17874
827.323	17885
827.462	17950
827.601	17821
827.741	17836
827.88	17889
828.02	17661
828.159	17893
828.298	17931
828.437	17851
828.577	17817
828.716	18003
828.855	17821
828.994	17551
829.134	17589
829.273	17703
829.412	17471
829.551	17501
829.69	17512
829.829	17646
829.968	17649
830.107	17665
830.246	17596
830.385	17512
830.524	17505
830.663	17364
830.802	17212
830.941	17166
831.08	17223
831.219	17368
831.357	17299
831.496	17376
831.635	17265
831.774	17121
831.913	17029
832.051	17014
832.19	16987
832.329	17045
832.467	17006
832.606	16881
832.744	16927
832.883	16923
833.022	16885
833.16	16904
833.299	16896
833.437	16972
833.576	16896
833.714	16923
833.852	17018
833.991	16911
834.129	17045
834.267	16946
834.406	16946
834.544	17003
834.682	16968
834.821	17006
834.959	17204
835.097	16885
835.235	16984
835.373	17079
835.511	16961
835.65	16782
835.788	16923
835.926	16668
836.064	16577
836.202	16759
836.34	16801
836.478	16976
836.615	16862
836.753	16915
836.891	17006
837.029	17045
837.167	16869
837.305	16809
837.443	16809
837.58	16786
837.718	16786
837.856	16839
837.993	16603
838.131	16721
838.269	16649
838.406	16641
838.544	16607
838.681	16417
838.819	16409
838.956	16253
839.094	16246
839.231	16261
839.369	16382
839.506	16660
839.643	16584
839.781	16287
839.918	16253
840.055	16344
840.193	16318
840.33	16405
840.467	16276
840.604	16363
840.742	16462
840.879	16112
841.016	16261
841.153	16215
841.29	16413
841.427	16325
841.564	16314
841.701	16360
841.838	16131
841.975	16226
842.112	16219
842.249	16143
842.385	15975
842.522	16177
842.659	16116
842.796	16036
842.933	16078
843.069	16006
843.206	15915
843.343	16162
843.479	16010
843.616	16032
843.752	15907
843.889	15854
844.025	15998
844.162	15861
844.298	16059
844.435	15812
844.571	15861
844.708	15857
844.844	15934
844.98	15991
845.117	15979
845.253	15812
845.389	15759
845.525	15838
845.661	15827
845.798	15747
845.934	15907
846.07	15751
846.206	15960
846.342	15949
846.478	15778
846.614	15485
846.75	15469
846.886	15370
847.022	15443
847.158	15424
847.294	15355
847.429	15530
847.565	15428
847.701	15633
847.837	15211
847.972	15074
848.108	15264
848.244	15241
848.379	15074
848.515	14994
848.65	15039
848.786	15100
848.921	15009
849.057	15047
849.192	15089
849.328	14914
849.463	15039
849.598	14982
849.734	14921
849.869	14838
850.004	14857
850.14	14731
850.275	14765
850.41	14693
850.545	14735
850.68	14743
850.815	14739
850.95	14773
851.085	15020
851.22	14899
851.355	14800
851.49	14663
851.625	14727
851.76	14735
851.895	14663
852.03	14606
852.165	14804
852.299	14800
852.434	14773
852.569	14769
852.703	14804
852.838	14826
852.973	15001
853.107	14910
853.242	14796
853.376	14617
853.511	14571
853.645	14629
853.78	14716
853.914	14571
854.048	14632
854.183	14701
854.317	14693
854.451	14933
854.585	14617
854.72	14556
854.854	14716
854.988	14594
855.122	14663
855.256	14488
855.39	14594
855.524	14750
855.658	14678
855.792	14800
855.926	14617
856.06	14750
856.194	14785
856.327	14724
856.461	14644
856.595	14648
856.729	14746
856.862	14727
856.996	14739
857.13	14689
857.263	14804
857.397	14819
857.53	14754
857.664	14602
857.797	14785
857.931	14883
858.064	14697
858.197	14800
858.331	14693
858.464	14689
858.597	14560
858.731	14629
858.864	14629
858.997	14651
859.13	14746
859.263	14674
859.396	14819
859.529	14606
859.662	14625
859.795	14682
859.928	14701
860.061	14792
860.194	14853
860.327	14743
860.46	14765
860.592	14785
860.725	14777
860.858	14785
860.99	14579
861.123	14651
861.256	14651
861.388	14651
861.521	15469
861.653	14644
861.786	14461
861.918	14518
862.05	14636
862.183	14629
862.315	14663
862.447	14708
862.58	14587
862.712	14507
862.844	14328
862.976	14518
863.108	14499
863.24	14883
863.372	14465
863.504	14492
863.636	14438
863.768	14560
863.9	14396
864.032	14358
864.164	14328
864.296	14492
864.428	14674
864.559	14530
864.691	14556
864.823	14564
864.954	14488
865.086	14473
865.217	14480
865.349	14415
865.48	14488
865.612	14412
865.743	14533
865.875	14438
866.006	14385
866.137	14374
866.269	14434
866.4	14431
866.531	14404
866.662	14377
866.793	14358
866.924	14457
867.055	14438
867.186	14457
867.317	14423
867.448	14282
867.579	14343
867.71	14408
867.841	14377
867.972	14480
868.103	14454
868.233	14514
868.364	14408
868.495	14560
868.625	14606
868.756	14735
868.886	14564
869.017	14606
869.147	14682
869.278	14834
869.408	14735
869.539	14613
869.669	14754
869.799	14758
869.929	14754
870.06	14788
870.19	15013
870.32	14979
870.45	15009
870.58	15089
870.71	15214
870.84	15169
870.97	15074
871.1	15062
871.23	15344
871.36	15195
871.489	15081
871.619	15256
871.749	15230
871.879	15382
872.008	15302
872.138	15256
872.267	15283
872.397	15207
872.526	15135
872.656	15089
872.785	15024
872.915	15264
873.044	15302
873.173	15252
873.303	15344
873.432	15332
873.561	15408
873.69	15302
873.819	15294
873.948	15329
874.077	15351
874.206	15230
874.335	15268
874.464	15443
874.593	15610
874.722	15504
874.851	15705
874.979	15724
875.108	15701
875.237	15625
875.365	15523
875.494	15591
875.623	15724
875.751	15637
875.88	15637
876.008	15812
876.136	15823
876.265	16055
876.393	16291
876.521	16131
876.65	16032
876.778	16055
876.906	15964
877.034	16036
877.162	16025
877.29	16044
877.418	16067
877.546	16097
877.674	16162
877.802	16006
877.93	16135
878.058	16013
878.185	16063
878.313	16128
878.441	16112
878.568	15838
878.696	15994
878.824	16093
878.951	16219
879.079	16348
879.206	16455
879.333	16337
879.461	16101
879.588	16234
879.715	16295
879.842	16398
879.97	16207
880.097	15975
880.224	15888
880.351	15972
880.478	15926
880.605	15926
880.732	15945
880.859	16226
880.986	15953
881.112	15979
881.239	15880
881.366	15679
881.493	15637
881.619	15584
881.746	15641
881.872	15561
881.999	15557
882.125	15538
882.252	15675
882.378	15606
882.505	15724
882.631	15534
882.757	15458
882.883	15469
883.01	15389
883.136	15298
883.262	15287
883.388	15252
883.514	15431
883.64	15397
883.766	15401
883.892	15321
884.018	15184
884.143	15469
884.269	15477
884.395	15150
884.52	15047
884.646	15119
884.772	15039
884.897	14956
885.023	15173
885.148	15176
885.274	15249
885.399	15074
885.524	15085
885.65	15104
885.775	15157
885.9	15024
886.025	15100
886.15	15157
886.275	15062
886.4	14952
886.525	15062
886.65	14986
886.775	15028
886.9	15138
887.025	15317
887.149	15176
887.274	14914
887.399	14925
887.523	14899
887.648	14857
887.773	14815
887.897	14963
888.021	14994
888.146	14921
888.27	14918
888.395	15028
888.519	15047
888.643	14944
888.767	14971
888.891	14678
889.015	14735
889.139	14724
889.263	14735
889.387	14880
889.511	15036
889.635	14849
889.759	14697
889.883	14762
890.006	14887
890.13	14777
890.254	14663
890.377	14830
890.501	14541
890.624	14606
890.748	14602
890.871	14537
890.995	14446
891.118	14286
891.241	14537
891.364	14442
891.488	14579
891.611	14305
891.734	14393
891.857	14522
891.98	14507
892.103	14511
892.226	14476
892.349	14434
892.471	14347
892.594	14476
892.717	14473
892.839	14332
892.962	14438
893.085	14473
893.207	14434
893.33	14351
893.452	14324
893.575	14434
893.697	14377
893.819	14617
893.941	14636
894.064	14526
894.186	14423
894.308	14374
894.43	14621
894.552	14568
894.674	14560
894.796	14412
894.918	14431
895.04	14442
895.161	14537
895.283	14469
895.405	14446
895.526	14461
895.648	14530
895.769	14579
895.891	14583
896.012	14598
896.134	14670
896.255	14594
896.376	14469
896.498	14644
896.619	14682
896.74	14594
896.861	14651
896.982	14880
897.103	15157
897.224	14910
897.345	14895
897.466	14746
897.587	14857
897.708	14948
897.828	14979
897.949	14815
898.07	14701
898.19	14792
898.311	15013
898.431	14823
898.552	14948
898.672	15066
898.792	14937
898.913	14998
899.033	14845
899.153	14807
899.273	14689
899.393	14800
899.513	14785
899.633	14842
899.753	14861
899.873	14697
899.993	14838
900.113	14705
900.232	14735
900.352	14853
900.472	14804
900.591	14484
900.711	14621
900.83	14579
900.95	14750
901.069	14754
901.189	14617
901.308	14362
901.427	14366
901.546	14328
901.665	14400
901.784	14389
901.904	14214
902.023	14180
902.141	13928
902.26	13875
902.379	13868
902.498	13894
902.617	13807
902.735	13818
902.854	13871
902.973	13830
903.091	13639
903.21	13559
903.328	13594
903.446	13476
903.565	13373
903.683	13396
903.801	13373
903.919	13411
904.038	13350
904.156	13270
904.274	13381
904.392	13240
904.51	13221
904.627	13297
904.745	13247
904.863	13362
904.981	13065
905.098	13000
905.216	13046
905.334	12935
905.451	12970
905.569	12951
905.686	12909
905.803	12947
905.921	12840
906.038	12913
906.155	12810
906.272	12642
906.389	12669
906.506	12585
906.623	12544
906.74	12494
906.857	12426
906.974	12422
907.091	12494
907.208	12722
907.324	12509
907.441	12486
907.557	12361
907.674	12330
907.79	12125
907.907	12311
908.023	12296
908.139	12304
908.256	12247
908.372	12182
908.488	12155
908.604	12087
908.72	12045
908.836	12087
908.952	12011
909.068	12083
909.184	12098
909.3	12072
909.415	12125
909.531	12007
909.647	11798
909.762	11920
909.878	11729
909.993	11756
910.108	11824
910.224	11695
910.339	11756
910.454	11783
910.57	11668
910.685	11573
910.8	11969
910.915	11813
911.03	11676
911.145	11482
911.259	11436
911.374	11539
911.489	11360
911.604	11322
911.718	11227
911.833	11322
911.947	11083
912.062	11079
912.176	11204
912.291	11239
912.405	11318
912.519	11391
912.633	11410
912.748	11356
912.862	11299
912.976	11098
913.09	10949
913.204	11064
913.318	11052
913.431	11269
913.545	11246
913.659	11318
913.772	11102
913.886	11098
914	10987
914.113	11010
914.226	11079
914.34	11056
914.453	10930
914.566	11094
914.68	10938
914.793	10911
914.906	10725
915.019	10668
915.132	10710
915.245	10729
915.358	10820
915.47	10736
915.583	10778
915.696	10755
915.809	10873
915.921	10904
916.034	10771
916.146	10672
916.259	10603
916.371	10694
916.483	10721
916.595	10607
916.708	10630
916.82	10691
916.932	10645
917.044	10714
917.156	10706
917.268	10546
917.38	10584
917.491	10516
917.603	10592
917.715	10675
917.826	10706
917.938	10451
918.049	10394
918.161	10508
918.272	10637
918.384	10672
918.495	10592
918.606	10424
918.717	10352
918.828	10459
918.939	10500
919.05	10363
919.161	10413
919.272	10242
919.383	10284
919.494	10413
919.604	10664
919.715	10447
919.826	10428
919.936	10417
920.047	10417
920.157	10459
920.267	10599
920.378	10558
920.488	10421
920.598	10626
920.708	10752
920.818	10607
920.928	10626
921.038	10809
921.148	10786
921.258	10481
921.368	10382
921.477	10284
921.587	10348
921.697	10181
921.806	10356
921.916	10158
922.025	10059
922.134	9983
922.244	9934
922.353	10078
922.462	9953
922.571	9808
922.68	9713
922.789	9675
922.898	9667
923.007	9641
923.116	9717
923.224	9701
923.333	9698
923.442	9629
923.55	9530
923.659	9625
923.767	9656
923.876	9580
923.984	9656
924.092	9538
924.201	9496
924.309	9580
924.417	9515
924.525	9561
924.633	9606
924.741	10310
924.849	9454
924.956	9519
925.064	9435
925.172	9294
925.279	9325
925.387	9420
925.494	9370
925.602	9519
925.709	9439
925.816	9294
925.924	9348
926.031	9462
926.138	9355
926.245	9405
926.352	9275
926.459	9511
926.566	9424
926.673	9260
926.779	9180
926.886	9165
926.993	9077
927.099	9154
927.206	9020
927.312	8986
927.419	9093
927.525	9028
927.631	9169
927.737	8918
927.843	8971
927.95	8796
928.056	8941
928.162	9020
928.267	9001
928.373	9633
928.479	9142
928.585	8853
928.69	8937
928.796	8967
928.901	8834
929.007	8731
929.112	8880
929.218	8853
929.323	8743
929.428	8807
929.533	8861
929.638	8788
929.743	8720
929.848	8792
929.953	8781
930.058	8701
930.163	8484
930.267	8568
930.372	8632
930.477	8587
930.581	8769
930.685	8571
930.79	8518
930.894	8480
930.998	8492
931.103	8610
931.207	8320
931.311	8214
931.415	8138
931.519	7974
931.623	7982
