Data from test_V78500241_3063.txt Node
Date: Fri Mar 25 14:55:02 CST 2022
User: usil
Spectrometer: V785-0024
Trigger mode: 0
Integration Time (sec): 4.000000E-1
Scans to average: 1
Nonlinearity correction enabled: false
Boxcar width: 0
Storing dark spectrum: false
XAxis mode: Wavelengths
Number of Pixels in Spectrum: 1024
>>>>>Begin Spectral Data<<<<<
801.071	21998
801.214	21880
801.356	21751
801.499	21603
801.641	21477
801.783	21443
801.926	21428
802.068	21291
802.211	21233
802.353	21241
802.496	21032
802.638	20986
802.78	20864
802.923	20712
803.065	20678
803.208	20670
803.35	20682
803.492	20796
803.635	20899
803.777	20705
803.919	20788
804.061	20971
804.204	20743
804.346	20724
804.488	20651
804.63	20838
804.773	20590
804.915	20659
805.057	20773
805.199	20716
805.341	20773
805.483	20754
805.626	20682
805.768	20522
805.91	20705
806.052	20682
806.194	20636
806.336	20800
806.478	20739
806.62	20636
806.762	20796
806.904	20857
807.046	21020
807.188	21047
807.33	21024
807.472	21108
807.614	20994
807.756	20823
807.898	20731
808.04	20720
808.182	20705
808.324	20724
808.465	20826
808.607	20887
808.749	21093
808.891	21180
809.033	21222
809.174	21184
809.316	20956
809.458	21039
809.6	20990
809.741	21142
809.883	21138
810.025	21085
810.166	21207
810.308	21146
810.45	21157
810.591	21058
810.733	21009
810.875	20883
811.016	20682
811.158	20727
811.299	20971
811.441	20880
811.582	20982
811.724	20842
811.865	20781
812.007	20769
812.148	20819
812.29	21032
812.431	21013
812.573	21142
812.714	21180
812.855	21329
812.997	21477
813.138	21557
813.279	21485
813.421	21416
813.562	21264
813.703	21036
813.845	20986
813.986	20644
814.127	20427
814.268	20461
814.41	20533
814.551	20309
814.692	20469
814.833	20339
814.974	20339
815.115	20381
815.256	20240
815.397	20278
815.539	20233
815.68	20149
815.821	20035
815.962	20142
816.103	20046
816.244	19883
816.385	19902
816.526	19803
816.666	19753
816.807	19521
816.948	19518
817.089	19674
817.23	19590
817.371	19510
817.512	19483
817.653	19510
817.793	19411
817.934	19556
818.075	19635
818.216	19468
818.356	19487
818.497	19358
818.638	19099
818.778	19168
818.919	19194
819.06	19301
819.2	19221
819.341	19335
819.481	19358
819.622	19483
819.762	19647
819.903	19578
820.043	19419
820.184	19533
820.324	19468
820.465	19544
820.605	19373
820.746	19487
820.886	19335
821.026	19472
821.167	19362
821.307	19400
821.447	19289
821.588	19350
821.728	19122
821.868	19061
822.008	18844
822.149	18882
822.289	18901
822.429	18665
822.569	18547
822.709	18578
822.849	18388
822.99	18319
823.13	18247
823.27	18342
823.41	18201
823.55	18057
823.69	18220
823.83	18201
823.97	18098
824.11	17927
824.25	17897
824.389	18015
824.529	18106
824.669	17901
824.809	17935
824.949	18102
825.089	17950
825.228	17973
825.368	17722
825.508	17665
825.648	17798
825.787	17703
825.927	17767
826.067	17543
826.206	17634
826.346	17726
826.485	17729
826.625	17615
826.765	17790
826.904	17824
827.044	17414
827.183	17440
827.323	17398
827.462	17509
827.601	17337
827.741	17250
827.88	17478
828.02	17261
828.159	17334
828.298	17467
828.437	17501
828.577	17235
828.716	17497
828.855	17410
828.994	17178
829.134	17162
829.273	17197
829.412	16999
829.551	16991
829.69	17071
829.829	17132
829.968	17223
830.107	17220
830.246	17136
830.385	17124
830.524	16976
830.663	16908
830.802	16896
830.941	16786
831.08	16698
831.219	16801
831.357	16858
831.496	16892
831.635	16702
831.774	16653
831.913	16649
832.051	16569
832.19	16485
832.329	16569
832.467	16424
832.606	16481
832.744	16398
832.883	16504
833.022	16512
833.16	16531
833.299	16485
833.437	16474
833.576	16550
833.714	16459
833.852	16546
833.991	16497
834.129	16508
834.267	16645
834.406	16596
834.544	16508
834.682	16531
834.821	16455
834.959	16797
835.097	16527
835.235	16660
835.373	16550
835.511	16531
835.65	16500
835.788	16421
835.926	16192
836.064	16337
836.202	16299
836.34	16542
836.478	16402
836.615	16413
836.753	16428
836.891	16538
837.029	16554
837.167	16367
837.305	16329
837.443	16443
837.58	16333
837.718	16344
837.856	16478
837.993	16192
838.131	16352
838.269	16173
838.406	16192
838.544	16192
838.681	16002
838.819	15964
838.956	15819
839.094	15850
839.231	15899
839.369	15983
839.506	16181
839.643	16067
839.781	15679
839.918	15720
840.055	15934
840.193	15842
840.33	15819
840.467	15835
840.604	15892
840.742	16249
840.879	15709
841.016	15827
841.153	15736
841.29	15899
841.427	15907
841.564	15835
841.701	15937
841.838	15793
841.975	15671
842.112	15724
842.249	15561
842.385	15561
842.522	15808
842.659	15637
842.796	15587
842.933	15595
843.069	15561
843.206	15717
843.343	15599
843.479	15637
843.616	15656
843.752	15462
843.889	15401
844.025	15538
844.162	15310
844.298	15580
844.435	15351
844.571	15336
844.708	15424
844.844	15557
844.98	15515
845.117	15496
845.253	15367
845.389	15245
845.525	15287
845.661	15279
845.798	15233
845.934	15188
846.07	15097
846.206	15306
846.342	15279
846.478	15298
846.614	15001
846.75	14910
846.886	14963
847.022	15009
847.158	14956
847.294	15001
847.429	15119
847.565	14986
847.701	15207
847.837	14727
847.972	14648
848.108	14769
848.244	14815
848.379	14583
848.515	14499
848.65	14590
848.786	14583
848.921	14606
849.057	14629
849.192	14720
849.328	14678
849.463	14590
849.598	14598
849.734	14594
849.869	14450
850.004	14408
850.14	14339
850.275	14347
850.41	14290
850.545	14278
850.68	14278
850.815	14347
850.95	14355
851.085	14450
851.22	14328
851.355	14396
851.49	14214
851.625	14298
851.76	14191
851.895	14282
852.03	14202
852.165	14290
852.299	14396
852.434	14317
852.569	14393
852.703	14320
852.838	14370
852.973	14396
853.107	14427
853.242	14218
853.376	14210
853.511	14115
853.645	14092
853.78	14267
853.914	14290
854.048	14218
854.183	14123
854.317	14240
854.451	14336
854.585	14195
854.72	14180
854.854	14271
854.988	14084
855.122	14096
855.256	14046
855.39	14153
855.524	14343
855.658	14214
855.792	14240
855.926	14347
856.06	14263
856.194	14305
856.327	14183
856.461	14164
856.595	14168
856.729	14126
856.862	14309
856.996	14210
857.13	14309
857.263	14290
857.397	14256
857.53	14233
857.664	14256
857.797	14240
857.931	14298
858.064	14221
858.197	14332
858.331	14134
858.464	14149
858.597	14077
858.731	14199
858.864	14290
858.997	14172
859.13	14259
859.263	14195
859.396	14252
859.529	14077
859.662	14145
859.795	14092
859.928	14225
860.061	14324
860.194	14381
860.327	14282
860.46	14233
860.592	14229
860.725	14324
860.858	14282
860.99	14214
861.123	14096
861.256	14039
861.388	14240
861.521	14834
861.653	14119
861.786	13982
861.918	14012
862.05	14115
862.183	14126
862.315	14084
862.447	14183
862.58	14153
862.712	14138
862.844	13947
862.976	14069
863.108	13978
863.24	14351
863.372	13871
863.504	14084
863.636	14039
863.768	13963
863.9	13932
864.032	13928
864.164	13837
864.296	13982
864.428	14073
864.559	14168
864.691	14001
864.823	13940
864.954	14027
865.086	14062
865.217	14008
865.349	13959
865.48	13932
865.612	13894
865.743	14123
865.875	13970
866.006	13921
866.137	13989
866.269	13944
866.4	13978
866.531	13883
866.662	13997
866.793	13871
866.924	13795
867.055	13997
867.186	13879
867.317	13868
867.448	13898
867.579	13909
867.71	13875
867.841	13890
867.972	13974
868.103	13894
868.233	13959
868.364	13928
868.495	14065
868.625	14092
868.756	14282
868.886	14115
869.017	14176
869.147	14358
869.278	14351
869.408	14237
869.539	14301
869.669	14256
869.799	14229
869.929	14393
870.06	14313
870.19	14503
870.32	14492
870.45	14579
870.58	14613
870.71	14598
870.84	14670
870.97	14598
871.1	14541
871.23	14788
871.36	14838
871.489	14697
871.619	14667
871.749	14781
871.879	14785
872.008	14868
872.138	14804
872.267	14788
872.397	14632
872.526	14621
872.656	14590
872.785	14613
872.915	14857
873.044	14830
873.173	14902
873.303	14853
873.432	14872
873.561	14914
873.69	14842
873.819	14823
873.948	14952
874.077	14914
874.206	14804
874.335	14842
874.464	15062
874.593	15165
874.722	15024
874.851	15180
874.979	15192
875.108	15176
875.237	15100
875.365	15150
875.494	15055
875.623	15298
875.751	15184
875.88	15184
876.008	15264
876.136	15511
876.265	15603
876.393	15705
876.521	15629
876.65	15736
876.778	15641
876.906	15549
877.034	15515
877.162	15549
877.29	15519
877.418	15523
877.546	15576
877.674	15599
877.802	15542
877.93	15614
878.058	15584
878.185	15568
878.313	15641
878.441	15599
878.568	15435
878.696	15572
878.824	15652
878.951	15595
879.079	15781
879.206	15934
879.333	15709
879.461	15762
879.588	15766
879.715	15781
879.842	15827
879.97	15637
880.097	15420
880.224	15378
880.351	15412
880.478	15397
880.605	15382
880.732	15393
880.859	15667
880.986	15477
881.112	15511
881.239	15272
881.366	15142
881.493	15165
881.619	15074
881.746	15062
881.872	15066
881.999	15032
882.125	15165
882.252	15188
882.378	15173
882.505	15256
882.631	14994
882.757	14986
882.883	14944
883.01	14960
883.136	14815
883.262	14765
883.388	14785
883.514	14910
883.64	14998
883.766	14804
883.892	14727
884.018	14754
884.143	14929
884.269	15001
884.395	14682
884.52	14659
884.646	14583
884.772	14568
884.897	14514
885.023	14621
885.148	14724
885.274	14887
885.399	14777
885.524	14727
885.65	14579
885.775	14667
885.9	14610
886.025	14708
886.15	14705
886.275	14613
886.4	14526
886.525	14644
886.65	14602
886.775	14560
886.9	14769
887.025	14849
887.149	14541
887.274	14526
887.399	14336
887.523	14473
887.648	14366
887.773	14328
887.897	14526
888.021	14476
888.146	14324
888.27	14590
888.395	14503
888.519	14526
888.643	14457
888.767	14545
888.891	14442
889.015	14442
889.139	14282
889.263	14298
889.387	14454
889.511	14473
889.635	14446
889.759	14252
889.883	14275
890.006	14393
890.13	14431
890.254	14275
890.377	14263
890.501	14119
890.624	14058
890.748	14180
890.871	14062
890.995	13982
891.118	13887
891.241	13887
891.364	14020
891.488	14069
891.611	13917
891.734	14058
891.857	14092
891.98	14054
892.103	14111
892.226	14126
892.349	14088
892.471	13936
892.594	13982
892.717	14039
892.839	13967
892.962	14005
893.085	14046
893.207	14016
893.33	13989
893.452	13898
893.575	14050
893.697	14046
893.819	14244
893.941	14138
894.064	14183
894.186	14058
894.308	13917
894.43	14210
894.552	14107
894.674	14103
894.796	14001
894.918	14058
895.04	14119
895.161	14138
895.283	14157
895.405	14027
895.526	14065
895.648	14073
895.769	14138
895.891	14103
896.012	14229
896.134	14149
896.255	14176
896.376	14096
896.498	14164
896.619	14259
896.74	14153
896.861	14267
896.982	14461
897.103	14598
897.224	14480
897.345	14488
897.466	14412
897.587	14396
897.708	14632
897.828	14514
897.949	14351
898.07	14442
898.19	14408
898.311	14499
898.431	14499
898.552	14552
898.672	14701
898.792	14571
898.913	14564
899.033	14530
899.153	14370
899.273	14324
899.393	14320
899.513	14389
899.633	14408
899.753	14461
899.873	14427
899.993	14541
900.113	14423
900.232	14374
900.352	14438
900.472	14328
900.591	14233
900.711	14199
900.83	14259
900.95	14374
901.069	14381
901.189	14229
901.308	14005
901.427	13890
901.546	13909
901.665	13909
901.784	13993
901.904	13837
902.023	13666
902.141	13533
902.26	13563
902.379	13533
902.498	13506
902.617	13476
902.735	13472
902.854	13518
902.973	13407
903.091	13316
903.21	13282
903.328	13206
903.446	13190
903.565	13023
903.683	13072
903.801	12894
903.919	13099
904.038	13126
904.156	12897
904.274	13031
904.392	12909
904.51	12947
904.627	12935
904.745	12935
904.863	12947
904.981	12722
905.098	12620
905.216	12662
905.334	12684
905.451	12555
905.569	12498
905.686	12555
905.803	12532
905.921	12422
906.038	12502
906.155	12506
906.272	12304
906.389	12247
906.506	12152
906.623	12167
906.74	12201
906.857	12049
906.974	12068
907.091	12194
907.208	12330
907.324	12186
907.441	12083
907.557	11965
907.674	12015
907.79	11855
907.907	11942
908.023	11901
908.139	11973
908.256	11866
908.372	11904
908.488	11866
908.604	11684
908.72	11665
908.836	11661
908.952	11611
909.068	11608
909.184	11748
909.3	11764
909.415	11684
909.531	11718
909.647	11497
909.762	11547
909.878	11410
909.993	11554
910.108	11539
910.224	11455
910.339	11509
910.454	11356
910.57	11296
910.685	11227
910.8	11547
910.915	11474
911.03	11341
911.145	11193
911.259	11098
911.374	11128
911.489	11102
911.604	11117
911.718	10892
911.833	10968
911.947	10793
912.062	10710
912.176	10911
912.291	10900
912.405	10816
912.519	11056
912.633	11121
912.748	10965
912.862	10915
912.976	10862
913.09	10767
913.204	10748
913.318	10786
913.431	10889
913.545	10824
913.659	10908
913.772	10759
913.886	10634
914	10748
914.113	10736
914.226	10801
914.34	10790
914.453	10668
914.566	10755
914.68	10714
914.793	10630
914.906	10462
915.019	10322
915.132	10310
915.245	10398
915.358	10455
915.47	10474
915.583	10367
915.696	10535
915.809	10580
915.921	10558
916.034	10390
916.146	10386
916.259	10363
916.371	10535
916.483	10466
916.595	10356
916.708	10337
916.82	10394
916.932	10318
917.044	10360
917.156	10367
917.268	10276
917.38	10257
917.491	10181
917.603	10181
917.715	10363
917.826	10409
917.938	10192
918.049	10135
918.161	10291
918.272	10386
918.384	10371
918.495	10329
918.606	10128
918.717	10055
918.828	10158
918.939	10215
919.05	10097
919.161	10044
919.272	9903
919.383	10044
919.494	10177
919.604	10318
919.715	10154
919.826	10131
919.936	10086
920.047	10276
920.157	10181
920.267	10379
920.378	10223
920.488	10249
920.598	10322
920.708	10409
920.818	10348
920.928	10325
921.038	10485
921.148	10485
921.258	10230
921.368	10158
921.477	10013
921.587	10021
921.697	9915
921.806	9994
921.916	9903
922.025	9751
922.134	9781
922.244	9720
922.353	9717
922.462	9614
922.571	9572
922.68	9439
922.789	9488
922.898	9431
923.007	9397
923.116	9416
923.224	9397
923.333	9317
923.442	9298
923.55	9256
923.659	9230
923.767	9340
923.876	9313
923.984	9313
924.092	9161
924.201	9249
924.309	9344
924.417	9260
924.525	9199
924.633	9272
924.741	10169
924.849	9032
924.956	9233
925.064	9150
925.172	9039
925.279	9116
925.387	9169
925.494	8986
925.602	9150
925.709	9127
925.816	9020
925.924	9047
926.031	9199
926.138	9062
926.245	9138
926.352	8933
926.459	9108
926.566	9116
926.673	8960
926.779	8921
926.886	8887
926.993	8785
927.099	8762
927.206	8743
927.312	8693
927.419	8857
927.525	8754
927.631	8804
927.737	8701
927.843	8678
927.95	8598
928.056	8644
928.162	8579
928.267	8788
928.373	9264
928.479	8807
928.585	8606
928.69	8667
928.796	8758
928.901	8648
929.007	8488
929.112	8644
929.218	8545
929.323	8518
929.428	8480
929.533	8610
929.638	8469
929.743	8545
929.848	8522
929.953	8461
930.058	8412
930.163	8240
930.267	8324
930.372	8423
930.477	8252
930.581	8526
930.685	8362
930.79	8142
930.894	8229
930.998	8172
931.103	8301
931.207	8031
931.311	8005
931.415	7890
931.519	7746
931.623	7712
