Data from test_V78500241_2801.txt Node
Date: Fri Mar 25 14:53:13 CST 2022
User: usil
Spectrometer: V785-0024
Trigger mode: 0
Integration Time (sec): 4.000000E-1
Scans to average: 1
Nonlinearity correction enabled: false
Boxcar width: 0
Storing dark spectrum: false
XAxis mode: Wavelengths
Number of Pixels in Spectrum: 1024
>>>>>Begin Spectral Data<<<<<
801.071	21975
801.214	21987
801.356	21618
801.499	21591
801.641	21515
801.783	21332
801.926	21420
802.068	21264
802.211	21291
802.353	21207
802.496	20902
802.638	20762
802.78	20804
802.923	20735
803.065	20697
803.208	20693
803.35	20743
803.492	20792
803.635	20815
803.777	20682
803.919	20750
804.061	21051
804.204	20739
804.346	20655
804.488	20678
804.63	20663
804.773	20431
804.915	20731
805.057	20785
805.199	20564
805.341	20621
805.483	20693
805.626	20773
805.768	20609
805.91	20625
806.052	20735
806.194	20526
806.336	20857
806.478	20583
806.62	20533
806.762	20651
806.904	20826
807.046	21116
807.188	20982
807.33	20861
807.472	21009
807.614	21024
807.756	20933
807.898	20735
808.04	20575
808.182	20876
808.324	20678
808.465	20785
808.607	20883
808.749	20967
808.891	21188
809.033	21142
809.174	21013
809.316	20994
809.458	21138
809.6	21112
809.741	20994
809.883	21081
810.025	21230
810.166	21211
810.308	21214
810.45	21138
810.591	21024
810.733	20883
810.875	20845
811.016	20636
811.158	20727
811.299	20906
811.441	20754
811.582	20971
811.724	20655
811.865	20727
812.007	20765
812.148	20644
812.29	20762
812.431	20929
812.573	21077
812.714	21116
812.855	21298
812.997	21279
813.138	21428
813.279	21405
813.421	21226
813.562	21157
813.703	21077
813.845	20937
813.986	20762
814.127	20374
814.268	20290
814.41	20370
814.551	20419
814.692	20404
814.833	20294
814.974	20278
815.115	20332
815.256	20138
815.397	20168
815.539	20187
815.68	20073
815.821	19932
815.962	20157
816.103	19925
816.244	19849
816.385	19887
816.526	19791
816.666	19605
816.807	19476
816.948	19540
817.089	19533
817.23	19556
817.371	19441
817.512	19384
817.653	19396
817.793	19324
817.934	19384
818.075	19472
818.216	19480
818.356	19362
818.497	19141
818.638	19080
818.778	19145
818.919	19152
819.06	19103
819.2	19217
819.341	19301
819.481	19282
819.622	19438
819.762	19662
819.903	19544
820.043	19472
820.184	19483
820.324	19506
820.465	19415
820.605	19438
820.746	19312
820.886	19304
821.026	19369
821.167	19464
821.307	19563
821.447	19236
821.588	19156
821.728	19034
821.868	19004
822.008	18840
822.149	18776
822.289	18920
822.429	18623
822.569	18410
822.709	18642
822.849	18216
822.99	18380
823.13	18262
823.27	18300
823.41	18121
823.55	18171
823.69	18121
823.83	18155
823.97	18022
824.11	17958
824.25	17771
824.389	17813
824.529	17992
824.669	17927
824.809	18003
824.949	17931
825.089	17969
825.228	17802
825.368	17707
825.508	17714
825.648	17748
825.787	17653
825.927	17672
826.067	17589
826.206	17630
826.346	17790
826.485	17771
826.625	17615
826.765	17817
826.904	17718
827.044	17436
827.183	17402
827.323	17318
827.462	17478
827.601	17372
827.741	17372
827.88	17288
828.02	17296
828.159	17239
828.298	17474
828.437	17402
828.577	17345
828.716	17406
828.855	17341
828.994	17086
829.134	17113
829.273	17227
829.412	17060
829.551	17083
829.69	17022
829.829	17193
829.968	17242
830.107	17261
830.246	17083
830.385	17014
830.524	16942
830.663	16892
830.802	16854
830.941	16687
831.08	16694
831.219	16786
831.357	16767
831.496	16900
831.635	16645
831.774	16622
831.913	16550
832.051	16577
832.19	16523
832.329	16607
832.467	16337
832.606	16470
832.744	16447
832.883	16394
833.022	16424
833.16	16402
833.299	16500
833.437	16390
833.576	16561
833.714	16455
833.852	16470
833.991	16542
834.129	16740
834.267	16554
834.406	16341
834.544	16538
834.682	16542
834.821	16451
834.959	16687
835.097	16474
835.235	16417
835.373	16519
835.511	16538
835.65	16379
835.788	16360
835.926	16192
836.064	16185
836.202	16230
836.34	16459
836.478	16421
836.615	16413
836.753	16382
836.891	16489
837.029	16341
837.167	16447
837.305	16394
837.443	16394
837.58	16261
837.718	16375
837.856	16325
837.993	16242
838.131	16162
838.269	16177
838.406	16154
838.544	16177
838.681	16067
838.819	16017
838.956	15789
839.094	15869
839.231	15884
839.369	15994
839.506	16196
839.643	16105
839.781	15835
839.918	15831
840.055	15793
840.193	15785
840.33	15759
840.467	15778
840.604	15812
840.742	16017
840.879	15648
841.016	15766
841.153	15751
841.29	15960
841.427	15903
841.564	15915
841.701	15766
841.838	15789
841.975	15717
842.112	15625
842.249	15732
842.385	15644
842.522	15728
842.659	15652
842.796	15580
842.933	15625
843.069	15469
843.206	15587
843.343	15675
843.479	15618
843.616	15606
843.752	15424
843.889	15393
844.025	15466
844.162	15412
844.298	15450
844.435	15230
844.571	15431
844.708	15431
844.844	15591
844.98	15610
845.117	15507
845.253	15348
845.389	15195
845.525	15222
845.661	15298
845.798	15230
845.934	15279
846.07	15154
846.206	15264
846.342	15222
846.478	15154
846.614	15043
846.75	14914
846.886	14845
847.022	15009
847.158	14944
847.294	14979
847.429	14994
847.565	14937
847.701	15169
847.837	14731
847.972	14765
848.108	14800
848.244	14735
848.379	14590
848.515	14602
848.65	14507
848.786	14602
848.921	14606
849.057	14701
849.192	14735
849.328	14602
849.463	14514
849.598	14587
849.734	14492
849.869	14598
850.004	14282
850.14	14362
850.275	14419
850.41	14282
850.545	14324
850.68	14256
850.815	14355
850.95	14294
851.085	14499
851.22	14461
851.355	14339
851.49	14336
851.625	14275
851.76	14282
851.895	14164
852.03	14267
852.165	14221
852.299	14347
852.434	14389
852.569	14389
852.703	14317
852.838	14434
852.973	14499
853.107	14541
853.242	14343
853.376	14157
853.511	14088
853.645	14206
853.78	14282
853.914	14237
854.048	14168
854.183	14111
854.317	14176
854.451	14362
854.585	14290
854.72	14126
854.854	14275
854.988	14081
855.122	14229
855.256	14001
855.39	14157
855.524	14298
855.658	14286
855.792	14244
855.926	14256
856.06	14256
856.194	14290
856.327	14199
856.461	14145
856.595	14111
856.729	14142
856.862	14252
856.996	14240
857.13	14301
857.263	14381
857.397	14294
857.53	14142
857.664	14298
857.797	14309
857.931	14320
858.064	14142
858.197	14400
858.331	14221
858.464	14126
858.597	14077
858.731	14138
858.864	14214
858.997	14195
859.13	14172
859.263	14282
859.396	14248
859.529	14168
859.662	14153
859.795	14100
859.928	14191
860.061	14320
860.194	14347
860.327	14290
860.46	14286
860.592	14305
860.725	14355
860.858	14351
860.99	14233
861.123	14062
861.256	14084
861.388	14172
861.521	14910
861.653	14111
861.786	14081
861.918	14043
862.05	14130
862.183	14096
862.315	14176
862.447	14214
862.58	14142
862.712	14031
862.844	13890
862.976	14130
863.108	13986
863.24	14404
863.372	13993
863.504	13940
863.636	13925
863.768	14119
863.9	13951
864.032	13902
864.164	13898
864.296	14046
864.428	14142
864.559	14077
864.691	14130
864.823	14012
864.954	13974
865.086	14107
865.217	13997
865.349	13932
865.48	13944
865.612	13978
865.743	14138
865.875	14020
866.006	13936
866.137	13970
866.269	13989
866.4	13917
866.531	13902
866.662	13898
866.793	13940
866.924	13928
867.055	13951
867.186	13986
867.317	13890
867.448	13906
867.579	13963
867.71	13917
867.841	13898
867.972	13997
868.103	13989
868.233	13928
868.364	13921
868.495	14081
868.625	14229
868.756	14328
868.886	14100
869.017	14115
869.147	14343
869.278	14263
869.408	14240
869.539	14183
869.669	14339
869.799	14202
869.929	14438
870.06	14332
870.19	14541
870.32	14514
870.45	14526
870.58	14583
870.71	14743
870.84	14667
870.97	14610
871.1	14606
871.23	14853
871.36	14823
871.489	14712
871.619	14724
871.749	14811
871.879	14845
872.008	15013
872.138	14861
872.267	14853
872.397	14667
872.526	14727
872.656	14640
872.785	14686
872.915	14842
873.044	14933
873.173	14807
873.303	14754
873.432	14918
873.561	14956
873.69	14819
873.819	14872
873.948	14925
874.077	14845
874.206	14777
874.335	14883
874.464	14918
874.593	15161
874.722	15112
874.851	15184
874.979	15142
875.108	15218
875.237	15173
875.365	15146
875.494	15047
875.623	15302
875.751	15135
875.88	15119
876.008	15321
876.136	15408
876.265	15603
876.393	15755
876.521	15644
876.65	15770
876.778	15656
876.906	15504
877.034	15572
877.162	15450
877.29	15473
877.418	15618
877.546	15610
877.674	15564
877.802	15606
877.93	15542
878.058	15477
878.185	15454
878.313	15580
878.441	15534
878.568	15401
878.696	15545
878.824	15618
878.951	15671
879.079	15785
879.206	15972
879.333	15736
879.461	15542
879.588	15660
879.715	15823
879.842	15964
879.97	15637
880.097	15443
880.224	15416
880.351	15553
880.478	15481
880.605	15424
880.732	15504
880.859	15614
880.986	15393
881.112	15469
881.239	15291
881.366	15165
881.493	15192
881.619	15112
881.746	15062
881.872	15108
881.999	15077
882.125	15100
882.252	15203
882.378	15226
882.505	15275
882.631	15077
882.757	14883
882.883	15005
883.01	15017
883.136	14937
883.262	14864
883.388	14769
883.514	15009
883.64	15020
883.766	14781
883.892	14815
884.018	14815
884.143	14990
884.269	14990
884.395	14693
884.52	14583
884.646	14670
884.772	14598
884.897	14552
885.023	14583
885.148	14731
885.274	14727
885.399	14670
885.524	14640
885.65	14625
885.775	14720
885.9	14590
886.025	14701
886.15	14670
886.275	14682
886.4	14552
886.525	14644
886.65	14499
886.775	14537
886.9	14720
887.025	14788
887.149	14564
887.274	14537
887.399	14480
887.523	14404
887.648	14431
887.773	14320
887.897	14560
888.021	14549
888.146	14450
888.27	14526
888.395	14708
888.519	14549
888.643	14507
888.767	14648
888.891	14347
889.015	14347
889.139	14298
889.263	14404
889.387	14404
889.511	14629
889.635	14434
889.759	14298
889.883	14286
890.006	14396
890.13	14457
890.254	14199
890.377	14271
890.501	14176
890.624	14092
890.748	14240
890.871	14123
890.995	13993
891.118	13970
891.241	13989
891.364	14005
891.488	14199
891.611	14027
891.734	13993
891.857	14103
891.98	14008
892.103	14126
892.226	14172
892.349	13909
892.471	13906
892.594	13947
892.717	13993
892.839	14005
892.962	13974
893.085	14115
893.207	14058
893.33	13974
893.452	13997
893.575	14069
893.697	14062
893.819	14256
893.941	14229
894.064	14130
894.186	14008
894.308	13921
894.43	14256
894.552	14271
894.674	14282
894.796	13993
894.918	14035
895.04	14027
895.161	14233
895.283	14096
895.405	14069
895.526	14050
895.648	14176
895.769	14199
895.891	14229
896.012	14237
896.134	14294
896.255	14233
896.376	14206
896.498	14183
896.619	14168
896.74	14237
896.861	14275
896.982	14533
897.103	14815
897.224	14621
897.345	14556
897.466	14507
897.587	14446
897.708	14480
897.828	14507
897.949	14362
898.07	14358
898.19	14480
898.311	14533
898.431	14419
898.552	14549
898.672	14571
898.792	14716
898.913	14606
899.033	14575
899.153	14343
899.273	14305
899.393	14419
899.513	14336
899.633	14419
899.753	14431
899.873	14328
899.993	14469
900.113	14381
900.232	14415
900.352	14374
900.472	14294
900.591	14278
900.711	14374
900.83	14233
900.95	14393
901.069	14381
901.189	14180
901.308	14005
901.427	13894
901.546	13993
901.665	13970
901.784	13986
901.904	13837
902.023	13753
902.141	13468
902.26	13609
902.379	13639
902.498	13563
902.617	13480
902.735	13518
902.854	13407
902.973	13487
903.091	13232
903.21	13270
903.328	13282
903.446	13122
903.565	13194
903.683	13141
903.801	13065
903.919	13145
904.038	13110
904.156	12791
904.274	13012
904.392	12833
904.51	12882
904.627	12878
904.745	12951
904.863	13008
904.981	12696
905.098	12601
905.216	12582
905.334	12578
905.451	12631
905.569	12616
905.686	12658
905.803	12536
905.921	12380
906.038	12635
906.155	12479
906.272	12395
906.389	12422
906.506	12171
906.623	12155
906.74	12117
906.857	12148
906.974	12224
907.091	12243
907.208	12289
907.324	12273
907.441	12087
907.557	11908
907.674	11920
907.79	11828
907.907	11927
908.023	11980
908.139	11939
908.256	11885
908.372	11897
908.488	11859
908.604	11657
908.72	11661
908.836	11745
908.952	11691
909.068	11771
909.184	11836
909.3	11668
909.415	11714
909.531	11684
909.647	11471
909.762	11455
909.878	11490
909.993	11528
910.108	11417
910.224	11421
910.339	11455
910.454	11509
910.57	11326
910.685	11143
910.8	11558
910.915	11532
911.03	11364
911.145	11204
911.259	11208
911.374	11235
911.489	11102
911.604	11155
911.718	10911
911.833	11029
911.947	10797
912.062	10733
912.176	10786
912.291	10957
912.405	10881
912.519	11124
912.633	11048
912.748	11025
912.862	10896
912.976	10786
913.09	10828
913.204	10717
913.318	10755
913.431	10927
913.545	10919
913.659	10900
913.772	10786
913.886	10691
914	10744
914.113	10717
914.226	10824
914.34	10809
914.453	10656
914.566	10771
914.68	10679
914.793	10641
914.906	10519
915.019	10398
915.132	10398
915.245	10519
915.358	10481
915.47	10455
915.583	10455
915.696	10428
915.809	10599
915.921	10611
916.034	10542
916.146	10443
916.259	10306
916.371	10428
916.483	10443
916.595	10295
916.708	10371
916.82	10265
916.932	10402
917.044	10310
917.156	10344
917.268	10249
917.38	10219
917.491	10181
917.603	10314
917.715	10348
917.826	10402
917.938	10234
918.049	10147
918.161	10253
918.272	10398
918.384	10394
918.495	10333
918.606	10051
918.717	10040
918.828	10223
918.939	10166
919.05	10147
919.161	10162
919.272	9934
919.383	10017
919.494	10204
919.604	10405
919.715	10200
919.826	10147
919.936	10181
920.047	10200
920.157	10181
920.267	10348
920.378	10196
920.488	10143
920.598	10405
920.708	10474
920.818	10394
920.928	10310
921.038	10512
921.148	10459
921.258	10242
921.368	10063
921.477	9998
921.587	10051
921.697	9804
921.806	9998
921.916	9941
922.025	9808
922.134	9766
922.244	9698
922.353	9770
922.462	9622
922.571	9629
922.68	9481
922.789	9466
922.898	9428
923.007	9412
923.116	9500
923.224	9382
923.333	9431
923.442	9310
923.55	9302
923.659	9222
923.767	9424
923.876	9283
923.984	9378
924.092	9260
924.201	9340
924.309	9370
924.417	9302
924.525	9283
924.633	9245
924.741	10071
924.849	8990
924.956	9226
925.064	9009
925.172	9009
925.279	9104
925.387	9070
925.494	9051
925.602	9226
925.709	9199
925.816	9039
925.924	9100
926.031	9169
926.138	9047
926.245	9112
926.352	9077
926.459	9211
926.566	9161
926.673	9055
926.779	8895
926.886	8982
926.993	8845
927.099	8804
927.206	8762
927.312	8758
927.419	8861
927.525	8811
927.631	8838
927.737	8762
927.843	8716
927.95	8651
928.056	8731
928.162	8735
928.267	8743
928.373	9241
928.479	8781
928.585	8625
928.69	8708
928.796	8735
928.901	8598
929.007	8495
929.112	8568
929.218	8552
929.323	8518
929.428	8473
929.533	8663
929.638	8499
929.743	8507
929.848	8560
929.953	8465
930.058	8396
930.163	8294
930.267	8301
930.372	8412
930.477	8309
930.581	8495
930.685	8351
930.79	8229
930.894	8256
930.998	8191
931.103	8324
931.207	8043
931.311	8050
931.415	7894
931.519	7677
931.623	7788
