Data from test_V78500241_2621.txt Node
Date: Fri Mar 25 14:51:57 CST 2022
User: usil
Spectrometer: V785-0024
Trigger mode: 0
Integration Time (sec): 4.000000E-1
Scans to average: 1
Nonlinearity correction enabled: false
Boxcar width: 0
Storing dark spectrum: false
XAxis mode: Wavelengths
Number of Pixels in Spectrum: 1024
>>>>>Begin Spectral Data<<<<<
801.071	21998
801.214	21911
801.356	21614
801.499	21637
801.641	21401
801.783	21389
801.926	21462
802.068	21287
802.211	21329
802.353	21165
802.496	21100
802.638	20906
802.78	20887
802.923	20693
803.065	20720
803.208	20560
803.35	20777
803.492	20754
803.635	20864
803.777	20682
803.919	20815
804.061	21062
804.204	20765
804.346	20613
804.488	20625
804.63	20686
804.773	20644
804.915	20606
805.057	20621
805.199	20560
805.341	20644
805.483	20781
805.626	20762
805.768	20636
805.91	20552
806.052	20644
806.194	20552
806.336	20750
806.478	20663
806.62	20431
806.762	20594
806.904	20758
807.046	20967
807.188	20944
807.33	20933
807.472	20933
807.614	20929
807.756	20777
807.898	20575
808.04	20807
808.182	20724
808.324	20663
808.465	20796
808.607	20963
808.749	20921
808.891	21165
809.033	21138
809.174	21138
809.316	20918
809.458	20960
809.6	20937
809.741	21028
809.883	21047
810.025	21127
810.166	21233
810.308	21093
810.45	21074
810.591	21089
810.733	20750
810.875	20834
811.016	20674
811.158	20526
811.299	20838
811.441	20864
811.582	20804
811.724	20705
811.865	20731
812.007	20682
812.148	20689
812.29	20746
812.431	20883
812.573	21017
812.714	21188
812.855	21226
812.997	21310
813.138	21530
813.279	21351
813.421	21199
813.562	21077
813.703	21032
813.845	20845
813.986	20590
814.127	20537
814.268	20404
814.41	20404
814.551	20290
814.692	20385
814.833	20172
814.974	20218
815.115	20271
815.256	20187
815.397	20035
815.539	20111
815.68	19944
815.821	20005
815.962	19932
816.103	19989
816.244	19795
816.385	19795
816.526	19780
816.666	19655
816.807	19434
816.948	19521
817.089	19594
817.23	19525
817.371	19419
817.512	19457
817.653	19445
817.793	19388
817.934	19384
818.075	19377
818.216	19388
818.356	19362
818.497	19266
818.638	19194
818.778	19072
818.919	19095
819.06	19072
819.2	19187
819.341	19251
819.481	19301
819.622	19392
819.762	19578
819.903	19529
820.043	19304
820.184	19464
820.324	19346
820.465	19480
820.605	19343
820.746	19335
820.886	19343
821.026	19289
821.167	19396
821.307	19377
821.447	19228
821.588	19301
821.728	19019
821.868	18901
822.008	18913
822.149	18779
822.289	18757
822.429	18635
822.569	18407
822.709	18471
822.849	18277
822.99	18319
823.13	18243
823.27	18247
823.41	18022
823.55	18087
823.69	18038
823.83	18155
823.97	18068
824.11	17859
824.25	17939
824.389	17855
824.529	17878
824.669	17927
824.809	18015
824.949	17988
825.089	18011
825.228	17901
825.368	17691
825.508	17653
825.648	17703
825.787	17646
825.927	17695
826.067	17691
826.206	17630
826.346	17707
826.485	17646
826.625	17691
826.765	17794
826.904	17676
827.044	17471
827.183	17376
827.323	17239
827.462	17383
827.601	17429
827.741	17376
827.88	17322
828.02	17181
828.159	17258
828.298	17417
828.437	17433
828.577	17315
828.716	17429
828.855	17204
828.994	17162
829.134	17235
829.273	17197
829.412	17067
829.551	17060
829.69	17185
829.829	16949
829.968	17147
830.107	17105
830.246	17189
830.385	17052
830.524	17006
830.663	16995
830.802	16824
830.941	16790
831.08	16687
831.219	16805
831.357	16744
831.496	16980
831.635	16767
831.774	16691
831.913	16588
832.051	16451
832.19	16432
832.329	16603
832.467	16398
832.606	16424
832.744	16402
832.883	16478
833.022	16413
833.16	16489
833.299	16512
833.437	16470
833.576	16489
833.714	16508
833.852	16478
833.991	16588
834.129	16592
834.267	16592
834.406	16462
834.544	16535
834.682	16485
834.821	16577
834.959	16664
835.097	16360
835.235	16702
835.373	16493
835.511	16634
835.65	16417
835.788	16478
835.926	16261
836.064	16143
836.202	16204
836.34	16440
836.478	16455
836.615	16341
836.753	16386
836.891	16497
837.029	16436
837.167	16318
837.305	16363
837.443	16424
837.58	16139
837.718	16478
837.856	16162
837.993	16287
838.131	16268
838.269	16219
838.406	16257
838.544	16253
838.681	15956
838.819	16002
838.956	15812
839.094	15827
839.231	15865
839.369	15907
839.506	16215
839.643	16147
839.781	15819
839.918	15842
840.055	15755
840.193	15812
840.33	15797
840.467	15838
840.604	15816
840.742	16074
840.879	15694
841.016	15781
841.153	15827
841.29	15937
841.427	15846
841.564	15812
841.701	15797
841.838	15698
841.975	15705
842.112	15682
842.249	15614
842.385	15591
842.522	15770
842.659	15603
842.796	15629
842.933	15663
843.069	15549
843.206	15523
843.343	15595
843.479	15633
843.616	15648
843.752	15469
843.889	15424
844.025	15545
844.162	15321
844.298	15485
844.435	15443
844.571	15405
844.708	15462
844.844	15595
844.98	15549
845.117	15557
845.253	15374
845.389	15252
845.525	15359
845.661	15291
845.798	15195
845.934	15233
846.07	15085
846.206	15245
846.342	15355
846.478	15249
846.614	15013
846.75	14883
846.886	14998
847.022	15051
847.158	14918
847.294	14975
847.429	15036
847.565	14986
847.701	15146
847.837	14674
847.972	14743
848.108	14765
848.244	14765
848.379	14663
848.515	14541
848.65	14571
848.786	14533
848.921	14610
849.057	14651
849.192	14701
849.328	14568
849.463	14552
849.598	14575
849.734	14480
849.869	14476
850.004	14415
850.14	14442
850.275	14351
850.41	14263
850.545	14214
850.68	14351
850.815	14332
850.95	14317
851.085	14545
851.22	14564
851.355	14320
851.49	14176
851.625	14347
851.76	14298
851.895	14187
852.03	14229
852.165	14298
852.299	14339
852.434	14431
852.569	14305
852.703	14454
852.838	14415
852.973	14522
853.107	14389
853.242	14328
853.376	14172
853.511	13947
853.645	14180
853.78	14263
853.914	14218
854.048	14123
854.183	14153
854.317	14282
854.451	14301
854.585	14210
854.72	14111
854.854	14298
854.988	14157
855.122	14176
855.256	14054
855.39	14195
855.524	14256
855.658	14149
855.792	14271
855.926	14259
856.06	14286
856.194	14347
856.327	14229
856.461	14100
856.595	14252
856.729	14161
856.862	14362
856.996	14191
857.13	14332
857.263	14282
857.397	14328
857.53	14134
857.664	14301
857.797	14385
857.931	14313
858.064	14244
858.197	14324
858.331	14248
858.464	14138
858.597	14073
858.731	14115
858.864	14153
858.997	14256
859.13	14240
859.263	14298
859.396	14358
859.529	14119
859.662	14206
859.795	14115
859.928	14191
860.061	14358
860.194	14362
860.327	14252
860.46	14225
860.592	14385
860.725	14263
860.858	14339
860.99	14191
861.123	14172
861.256	14054
861.388	14225
861.521	14861
861.653	14191
861.786	14005
861.918	14115
862.05	14065
862.183	14168
862.315	14195
862.447	14180
862.58	14153
862.712	13940
862.844	13894
862.976	14016
863.108	14065
863.24	14564
863.372	13932
863.504	14001
863.636	14062
863.768	14084
863.9	13925
864.032	13841
864.164	13883
864.296	14035
864.428	14153
864.559	14062
864.691	14149
864.823	14149
864.954	14001
865.086	14012
865.217	13978
865.349	13947
865.48	14081
865.612	13951
865.743	14149
865.875	14058
866.006	14001
866.137	14016
866.269	14005
866.4	13959
866.531	13841
866.662	13940
866.793	13932
866.924	13849
867.055	13970
867.186	14012
867.317	13932
867.448	13784
867.579	13906
867.71	13898
867.841	13890
867.972	13989
868.103	13978
868.233	14069
868.364	13967
868.495	14031
868.625	14286
868.756	14286
868.886	14134
869.017	14130
869.147	14313
869.278	14366
869.408	14237
869.539	14221
869.669	14347
869.799	14259
869.929	14427
870.06	14351
870.19	14625
870.32	14541
870.45	14552
870.58	14587
870.71	14785
870.84	14720
870.97	14579
871.1	14514
871.23	14834
871.36	14800
871.489	14727
871.619	14773
871.749	14819
871.879	14872
872.008	14914
872.138	14830
872.267	14807
872.397	14648
872.526	14522
872.656	14712
872.785	14689
872.915	14910
873.044	14952
873.173	14891
873.303	14994
873.432	14842
873.561	14944
873.69	14990
873.819	14914
873.948	15055
874.077	14933
874.206	14861
874.335	14910
874.464	15017
874.593	15169
874.722	15093
874.851	15173
874.979	15207
875.108	15325
875.237	15211
875.365	15108
875.494	15104
875.623	15294
875.751	15260
875.88	15222
876.008	15382
876.136	15454
876.265	15526
876.393	15789
876.521	15694
876.65	15724
876.778	15622
876.906	15507
877.034	15557
877.162	15603
877.29	15553
877.418	15656
877.546	15682
877.674	15511
877.802	15553
877.93	15622
878.058	15515
878.185	15492
878.313	15500
878.441	15660
878.568	15500
878.696	15572
878.824	15667
878.951	15679
879.079	15850
879.206	15994
879.333	15835
879.461	15587
879.588	15671
879.715	15907
879.842	15827
879.97	15789
880.097	15473
880.224	15488
880.351	15568
880.478	15553
880.605	15420
880.732	15389
880.859	15618
880.986	15485
881.112	15420
881.239	15500
881.366	15211
881.493	15131
881.619	15013
881.746	15108
881.872	15154
881.999	15093
882.125	15058
882.252	15135
882.378	15142
882.505	15306
882.631	15062
882.757	14929
882.883	15036
883.01	14960
883.136	14868
883.262	14754
883.388	14754
883.514	14887
883.64	14956
883.766	14891
883.892	14697
884.018	14796
884.143	14944
884.269	14967
884.395	14640
884.52	14655
884.646	14613
884.772	14560
884.897	14537
885.023	14632
885.148	14712
885.274	14834
885.399	14811
885.524	14655
885.65	14701
885.775	14678
885.9	14556
886.025	14682
886.15	14651
886.275	14579
886.4	14499
886.525	14583
886.65	14587
886.775	14571
886.9	14788
887.025	14921
887.149	14549
887.274	14613
887.399	14366
887.523	14450
887.648	14396
887.773	14332
887.897	14514
888.021	14533
888.146	14393
888.27	14564
888.395	14613
888.519	14587
888.643	14533
888.767	14541
888.891	14358
889.015	14347
889.139	14377
889.263	14324
889.387	14408
889.511	14583
889.635	14556
889.759	14282
889.883	14343
890.006	14457
890.13	14298
890.254	14286
890.377	14271
890.501	14054
890.624	14183
890.748	14256
890.871	14096
890.995	13932
891.118	14001
891.241	14031
891.364	14031
891.488	14126
891.611	14088
891.734	14069
891.857	14119
891.98	14027
892.103	14180
892.226	14134
892.349	14058
892.471	13875
892.594	14081
892.717	14073
892.839	13997
892.962	14069
893.085	14149
893.207	14016
893.33	13864
893.452	13898
893.575	14027
893.697	14012
893.819	14271
893.941	14195
894.064	14142
894.186	14107
894.308	14062
894.43	14168
894.552	14267
894.674	14191
894.796	14008
894.918	14134
895.04	14035
895.161	14138
895.283	14278
895.405	14126
895.526	14115
895.648	14077
895.769	14244
895.891	14221
896.012	14259
896.134	14286
896.255	14195
896.376	14244
896.498	14244
896.619	14351
896.74	14271
896.861	14210
896.982	14564
897.103	14682
897.224	14617
897.345	14541
897.466	14499
897.587	14465
897.708	14674
897.828	14545
897.949	14537
898.07	14400
898.19	14461
898.311	14556
898.431	14492
898.552	14571
898.672	14629
898.792	14682
898.913	14587
899.033	14533
899.153	14415
899.273	14313
899.393	14355
899.513	14362
899.633	14400
899.753	14343
899.873	14294
899.993	14419
900.113	14389
900.232	14389
900.352	14343
900.472	14256
900.591	14320
900.711	14328
900.83	14195
900.95	14419
901.069	14355
901.189	14240
901.308	14069
901.427	14001
901.546	13898
901.665	14024
901.784	14035
901.904	13947
902.023	13685
902.141	13575
902.26	13480
902.379	13632
902.498	13468
902.617	13506
902.735	13449
902.854	13529
902.973	13495
903.091	13247
903.21	13331
903.328	13202
903.446	13156
903.565	13168
903.683	13137
903.801	13019
903.919	13103
904.038	13027
904.156	12844
904.274	13012
904.392	12886
904.51	12890
904.627	12890
904.745	12916
904.863	13034
904.981	12814
905.098	12616
905.216	12646
905.334	12544
905.451	12654
905.569	12490
905.686	12601
905.803	12650
905.921	12464
906.038	12498
906.155	12426
906.272	12384
906.389	12323
906.506	12247
906.623	12121
906.74	12228
906.857	12136
906.974	12140
907.091	12304
907.208	12410
907.324	12262
907.441	12117
907.557	11950
907.674	11980
907.79	11866
907.907	11870
908.023	12011
908.139	11901
908.256	11908
908.372	11847
908.488	11824
908.604	11710
908.72	11630
908.836	11691
908.952	11691
909.068	11722
909.184	11897
909.3	11714
909.415	11779
909.531	11657
909.647	11524
909.762	11532
909.878	11497
909.993	11490
910.108	11520
910.224	11395
910.339	11463
910.454	11337
910.57	11326
910.685	11284
910.8	11577
910.915	11463
911.03	11341
911.145	11216
911.259	11170
911.374	11197
911.489	11109
911.604	11128
911.718	10942
911.833	10965
911.947	10866
912.062	10793
912.176	10896
912.291	10904
912.405	10915
912.519	11117
912.633	11189
912.748	11048
912.862	10980
912.976	10862
913.09	10691
913.204	10767
913.318	10816
913.431	10957
913.545	10919
913.659	10987
913.772	10820
913.886	10797
914	10767
914.113	10816
914.226	10831
914.34	10748
914.453	10573
914.566	10767
914.68	10698
914.793	10592
914.906	10474
915.019	10440
915.132	10318
915.245	10367
915.358	10428
915.47	10470
915.583	10485
915.696	10535
915.809	10649
915.921	10637
916.034	10447
916.146	10424
916.259	10394
916.371	10504
916.483	10436
916.595	10341
916.708	10436
916.82	10394
916.932	10375
917.044	10306
917.156	10325
917.268	10306
917.38	10337
917.491	10162
917.603	10306
917.715	10398
917.826	10451
917.938	10325
918.049	10192
918.161	10257
918.272	10413
918.384	10436
918.495	10363
918.606	10120
918.717	10040
918.828	10188
918.939	10181
919.05	10105
919.161	10051
919.272	9953
919.383	10071
919.494	10215
919.604	10337
919.715	10150
919.826	10048
919.936	10097
920.047	10284
920.157	10211
920.267	10341
920.378	10265
920.488	10139
920.598	10329
920.708	10478
920.818	10352
920.928	10424
921.038	10542
921.148	10371
921.258	10223
921.368	10059
921.477	10128
921.587	10071
921.697	9964
921.806	10032
921.916	9983
922.025	9808
922.134	9701
922.244	9675
922.353	9743
922.462	9713
922.571	9587
922.68	9450
922.789	9389
922.898	9500
923.007	9389
923.116	9469
923.224	9393
923.333	9416
923.442	9370
923.55	9264
923.659	9348
923.767	9401
923.876	9268
923.984	9401
924.092	9241
924.201	9294
924.309	9283
924.417	9313
924.525	9138
924.633	9283
924.741	10002
924.849	9077
924.956	9218
925.064	9142
925.172	9020
925.279	9062
925.387	9108
925.494	9081
925.602	9249
925.709	9176
925.816	9043
925.924	9047
926.031	9150
926.138	9089
926.245	9135
926.352	9005
926.459	9165
926.566	9233
926.673	9013
926.779	8960
926.886	8967
926.993	8811
927.099	8914
927.206	8804
927.312	8773
927.419	8872
927.525	8804
927.631	8872
927.737	8762
927.843	8705
927.95	8644
928.056	8682
928.162	8724
928.267	8693
928.373	9393
928.479	8750
928.585	8556
928.69	8735
928.796	8724
928.901	8651
929.007	8465
929.112	8594
929.218	8636
929.323	8533
929.428	8511
929.533	8644
929.638	8415
929.743	8454
929.848	8522
929.953	8495
930.058	8415
930.163	8256
930.267	8267
930.372	8450
930.477	8202
930.581	8480
930.685	8336
930.79	8157
930.894	8320
930.998	8240
931.103	8381
931.207	7997
931.311	7982
931.415	7894
931.519	7761
931.623	7738
