Data from test_V78500241_561.txt Node
Date: Fri Mar 25 14:37:37 CST 2022
User: usil
Spectrometer: V785-0024
Trigger mode: 0
Integration Time (sec): 4.000000E-1
Scans to average: 1
Nonlinearity correction enabled: false
Boxcar width: 0
Storing dark spectrum: false
XAxis mode: Wavelengths
Number of Pixels in Spectrum: 1024
>>>>>Begin Spectral Data<<<<<
801.071	27633
801.214	27561
801.356	27427
801.499	27351
801.641	27199
801.783	27028
801.926	27192
802.068	27199
802.211	26971
802.353	26762
802.496	26773
802.638	26807
802.78	26648
802.923	26564
803.065	26438
803.208	26667
803.35	26606
803.492	26636
803.635	26785
803.777	26640
803.919	26792
804.061	26937
804.204	26659
804.346	26629
804.488	26682
804.63	26830
804.773	26701
804.915	26754
805.057	26861
805.199	26811
805.341	26868
805.483	26982
805.626	26967
805.768	26910
805.91	27051
806.052	27127
806.194	27089
806.336	27363
806.478	27405
806.62	27275
806.762	27625
806.904	27835
807.046	28352
807.188	28440
807.33	28702
807.472	28854
807.614	29178
807.756	29577
807.898	30216
808.04	30882
808.182	31932
808.324	33359
808.465	34660
808.607	36414
808.749	38001
808.891	38750
809.033	38819
809.174	37841
809.316	36353
809.458	34675
809.6	33039
809.741	31677
809.883	30673
810.025	29969
810.166	29524
810.308	29037
810.45	28854
810.591	28451
810.733	28226
810.875	27937
811.016	27644
811.158	27606
811.299	27747
811.441	27629
811.582	27622
811.724	27283
811.865	27386
812.007	27450
812.148	27237
812.29	27222
812.431	27332
812.573	27367
812.714	27519
812.855	27679
812.997	27542
813.138	27743
813.279	27648
813.421	27534
813.562	27344
813.703	27310
813.845	27199
813.986	26796
814.127	26689
814.268	26530
814.41	26377
814.551	26488
814.692	26533
814.833	26431
814.974	26278
815.115	26476
815.256	26088
815.397	26073
815.539	26134
815.68	26126
815.821	26054
815.962	26096
816.103	26084
816.244	25906
816.385	25788
816.526	25658
816.666	25441
816.807	25381
816.948	25441
817.089	25419
817.23	25441
817.371	25343
817.512	25396
817.653	25308
817.793	25392
817.934	25335
818.075	25343
818.216	25304
818.356	25320
818.497	25118
818.638	24992
818.778	24977
818.919	25023
819.06	25194
819.2	25122
819.341	25312
819.481	25320
819.622	25525
819.762	25639
819.903	25544
820.043	25460
820.184	25365
820.324	25346
820.465	25434
820.605	25312
820.746	25190
820.886	25274
821.026	25114
821.167	25259
821.307	25301
821.447	25148
821.588	24951
821.728	24901
821.868	24772
822.008	24517
822.149	24544
822.289	24418
822.429	24277
822.569	24045
822.709	24167
822.849	24106
822.99	24072
823.13	24003
823.27	23885
823.41	23695
823.55	23661
823.69	23672
823.83	23714
823.97	23486
824.11	23600
824.25	23524
824.389	23520
824.529	23653
824.669	23471
824.809	23524
824.949	23646
825.089	23665
825.228	23634
825.368	23452
825.508	23261
825.648	23391
825.787	23261
825.927	23448
826.067	23197
826.206	23189
826.346	23318
826.485	23261
826.625	23250
826.765	23307
826.904	23307
827.044	23124
827.183	23003
827.323	22919
827.462	23052
827.601	23033
827.741	22908
827.88	22987
828.02	22908
828.159	22885
828.298	22790
828.437	22968
828.577	22927
828.716	22965
828.855	22869
828.994	22622
829.134	22618
829.273	22683
829.412	22634
829.551	22584
829.69	22519
829.829	22641
829.968	22717
830.107	22774
830.246	22729
830.385	22557
830.524	22527
830.663	22451
830.802	22428
830.941	22234
831.08	22310
831.219	22185
831.357	22318
831.496	22398
831.635	22249
831.774	22120
831.913	22135
832.051	22017
832.19	22048
832.329	22010
832.467	22067
832.606	21857
832.744	21918
832.883	21994
833.022	22021
833.16	22158
833.299	22200
833.437	22223
833.576	22280
833.714	22272
833.852	22489
833.991	22493
834.129	22611
834.267	22664
834.406	22466
834.544	22474
834.682	22424
834.821	22371
834.959	22390
835.097	22200
835.235	22242
835.373	22097
835.511	22074
835.65	21823
835.788	21907
835.926	21732
836.064	21526
836.202	21587
836.34	21709
836.478	21759
836.615	21686
836.753	21717
836.891	21812
837.029	21701
837.167	21648
837.305	21675
837.443	21542
837.58	21477
837.718	21717
837.856	21709
837.993	21553
838.131	21686
838.269	21386
838.406	21462
838.544	21294
838.681	21222
838.819	21157
838.956	21032
839.094	20952
839.231	20941
839.369	21180
839.506	21386
839.643	21222
839.781	20891
839.918	20925
840.055	20956
840.193	20697
840.33	20830
840.467	20891
840.604	20876
840.742	21176
840.879	20697
841.016	20773
841.153	20724
841.29	20998
841.427	20838
841.564	20895
841.701	20921
841.838	20765
841.975	20773
842.112	20743
842.249	20674
842.385	20602
842.522	20769
842.659	20674
842.796	20583
842.933	20583
843.069	20606
843.206	20632
843.343	20705
843.479	20678
843.616	20659
843.752	20488
843.889	20583
844.025	20785
844.162	20617
844.298	20705
844.435	20819
844.571	20735
844.708	20876
844.844	21241
844.98	21435
845.117	21720
845.253	22029
845.389	22835
845.525	24517
845.661	27306
845.798	30570
845.934	33443
846.07	34462
846.206	34109
846.342	31746
846.478	28367
846.614	25225
846.75	23185
846.886	22128
847.022	21416
847.158	20918
847.294	20655
847.429	20374
847.565	20366
847.701	20385
847.837	19890
847.972	19616
848.108	19807
848.244	19811
848.379	19597
848.515	19556
848.65	19438
848.786	19552
848.921	19499
849.057	19601
849.192	19571
849.328	19491
849.463	19533
849.598	19415
849.734	19358
849.869	19335
850.004	19187
850.14	19137
850.275	19183
850.41	19000
850.545	19133
850.68	19190
850.815	19297
850.95	19187
851.085	19362
851.22	19209
851.355	19171
851.49	19000
851.625	19118
851.76	19164
851.895	18973
852.03	19122
852.165	19072
852.299	19194
852.434	19301
852.569	19244
852.703	19152
852.838	19247
852.973	19160
853.107	19183
853.242	19217
853.376	19080
853.511	18985
853.645	19008
853.78	19350
853.914	19122
854.048	19110
854.183	19148
854.317	19114
854.451	19358
854.585	19194
854.72	19141
854.854	19206
854.988	19129
855.122	19202
855.256	19012
855.39	19015
855.524	19148
855.658	19148
855.792	19065
855.926	19000
856.06	19042
856.194	19084
856.327	18981
856.461	18897
856.595	18894
856.729	18970
856.862	19065
856.996	18939
857.13	19008
857.263	18973
857.397	18943
857.53	18958
857.664	19004
857.797	19031
857.931	19027
858.064	19000
858.197	18897
858.331	18954
858.464	18817
858.597	18810
858.731	18973
858.864	18840
858.997	18882
859.13	18776
859.263	18901
859.396	19053
859.529	18882
859.662	18795
859.795	18848
859.928	18882
860.061	18954
860.194	18844
860.327	18856
860.46	18821
860.592	18821
860.725	18954
860.858	18856
860.99	18913
861.123	18749
861.256	18730
861.388	18764
861.521	19445
861.653	18658
861.786	18692
861.918	18669
862.05	18798
862.183	18909
862.315	18787
862.447	18882
862.58	18779
862.712	18650
862.844	18570
862.976	18635
863.108	18601
863.24	18962
863.372	18422
863.504	18486
863.636	18407
863.768	18506
863.9	18494
864.032	18517
864.164	18555
864.296	18517
864.428	18620
864.559	18677
864.691	18601
864.823	18585
864.954	18582
865.086	18494
865.217	18498
865.349	18563
865.48	18388
865.612	18376
865.743	18547
865.875	18513
866.006	18395
866.137	18471
866.269	18513
866.4	18483
866.531	18403
866.662	18407
866.793	18327
866.924	18289
867.055	18395
867.186	18399
867.317	18429
867.448	18429
867.579	18384
867.71	18304
867.841	18308
867.972	18479
868.103	18452
868.233	18494
868.364	18574
868.495	18506
868.625	18574
868.756	18677
868.886	18547
869.017	18525
869.147	18730
869.278	18738
869.408	18700
869.539	18612
869.669	18730
869.799	18779
869.929	18738
870.06	18764
870.19	19057
870.32	18901
870.45	18977
870.58	19156
870.71	19206
870.84	19129
870.97	19148
871.1	19164
871.23	19327
871.36	19308
871.489	19232
871.619	19320
871.749	19156
871.879	19373
872.008	19350
872.138	19419
872.267	19449
872.397	19194
872.526	19114
872.656	19179
872.785	19247
872.915	19377
873.044	19392
873.173	19419
873.303	19506
873.432	19495
873.561	19548
873.69	19381
873.819	19514
873.948	19601
874.077	19578
874.206	19483
874.335	19601
874.464	19696
874.593	19784
874.722	19746
874.851	19944
874.979	19936
875.108	20012
875.237	19769
875.365	19761
875.494	19894
875.623	20073
875.751	19955
875.88	20039
876.008	20130
876.136	20240
876.265	20389
876.393	20625
876.521	20526
876.65	20686
876.778	20533
876.906	20564
877.034	20465
877.162	20583
877.29	20621
877.418	20754
877.546	20800
877.674	20769
877.802	20887
877.93	20925
878.058	20857
878.185	20986
878.313	21089
878.441	21450
878.568	21405
878.696	21804
878.824	22211
878.951	22706
879.079	23764
879.206	24707
879.333	25689
879.461	26393
879.588	27116
879.715	27192
879.842	26887
879.97	25639
880.097	24505
880.224	23733
880.351	23113
880.478	22782
880.605	22462
880.732	22173
880.859	22322
880.986	21899
881.112	21937
881.239	21785
881.366	21800
881.493	21587
881.619	21561
881.746	21572
881.872	21644
881.999	21618
882.125	21500
882.252	21545
882.378	21595
882.505	21724
882.631	21603
882.757	21485
882.883	21637
883.01	21458
883.136	21378
883.262	21203
883.388	21321
883.514	21542
883.64	21462
883.766	21401
883.892	21264
884.018	21188
884.143	21302
884.269	21496
884.395	21157
884.52	21013
884.646	21081
884.772	20914
884.897	21085
885.023	20994
885.148	21203
885.274	21275
885.399	21127
885.524	21017
885.65	20956
885.775	20876
885.9	20644
886.025	20731
886.15	20655
886.275	20621
886.4	20454
886.525	20488
886.65	20332
886.775	20317
886.9	20301
887.025	20442
887.149	20233
887.274	19925
887.399	19856
887.523	19845
887.648	19772
887.773	19685
887.897	19704
888.021	19723
888.146	19616
888.27	19681
888.395	19784
888.519	19647
888.643	19575
888.767	19616
888.891	19384
889.015	19251
889.139	19426
889.263	19190
889.387	19434
889.511	19449
889.635	19289
889.759	19228
889.883	19152
890.006	19164
890.13	19240
890.254	19034
890.377	19148
890.501	18901
890.624	18886
890.748	18878
890.871	18722
890.995	18566
891.118	18631
891.241	18681
891.364	18631
891.488	18757
891.611	18578
891.734	18589
891.857	18589
891.98	18601
892.103	18612
892.226	18521
892.349	18601
892.471	18395
892.594	18426
892.717	18395
892.839	18338
892.962	18407
893.085	18395
893.207	18330
893.33	18095
893.452	18338
893.575	18285
893.697	18296
893.819	18388
893.941	18410
894.064	18448
894.186	18323
894.308	18216
894.43	18384
894.552	18365
894.674	18342
894.796	18251
894.918	18254
895.04	18133
895.161	18376
895.283	18194
895.405	18076
895.526	18289
895.648	18235
895.769	18285
895.891	18281
896.012	18224
896.134	18270
896.255	18270
896.376	18254
896.498	18194
896.619	18285
896.74	18159
896.861	18174
896.982	18433
897.103	18707
897.224	18388
897.345	18334
897.466	18273
897.587	18506
897.708	18452
897.828	18448
897.949	18334
898.07	18266
898.19	18311
898.311	18661
898.431	18380
898.552	18388
898.672	18479
898.792	18467
898.913	18426
899.033	18353
899.153	18213
899.273	18072
899.393	18167
899.513	18247
899.633	18296
899.753	18224
899.873	18182
899.993	18167
900.113	18117
900.232	18209
900.352	18167
900.472	18076
900.591	17942
900.711	18072
900.83	17923
900.95	18068
901.069	18072
901.189	17870
901.308	17718
901.427	17512
901.546	17718
901.665	17676
901.784	17581
901.904	17372
902.023	17330
902.141	17143
902.26	17067
902.379	17132
902.498	17025
902.617	16923
902.735	17079
902.854	17048
902.973	16881
903.091	16729
903.21	16717
903.328	16763
903.446	16664
903.565	16485
903.683	16588
903.801	16436
903.919	16493
904.038	16424
904.156	16284
904.274	16356
904.392	16253
904.51	16284
904.627	16337
904.745	16314
904.863	16314
904.981	16059
905.098	15972
905.216	15960
905.334	15888
905.451	15991
905.569	15911
905.686	15937
905.803	15991
905.921	15656
906.038	15869
906.155	15720
906.272	15686
906.389	15656
906.506	15412
906.623	15488
906.74	15450
906.857	15291
906.974	15359
907.091	15576
907.208	15622
907.324	15488
907.441	15363
907.557	15032
907.674	15150
907.79	15024
907.907	15116
908.023	15150
908.139	15157
908.256	14971
908.372	14963
908.488	14963
908.604	14899
908.72	14785
908.836	14845
908.952	14674
909.068	14952
909.184	14864
909.3	14811
909.415	14872
909.531	14800
909.647	14571
909.762	14594
909.878	14533
909.993	14617
910.108	14530
910.224	14552
910.339	14606
910.454	14461
910.57	14370
910.685	14328
910.8	14571
910.915	14556
911.03	14336
911.145	14172
911.259	14233
911.374	14176
911.489	14153
911.604	14161
911.718	14005
911.833	14012
911.947	13799
912.062	13700
912.176	13940
912.291	13864
912.405	13925
912.519	14107
912.633	14164
912.748	13947
912.862	13860
912.976	13776
913.09	13620
913.204	13651
913.318	13772
913.431	13947
913.545	13890
913.659	13830
913.772	13776
913.886	13567
914	13628
914.113	13746
914.226	13776
914.34	13639
914.453	13537
914.566	13719
914.68	13556
914.793	13457
914.906	13289
915.019	13312
915.132	13251
915.245	13282
915.358	13346
915.47	13308
915.583	13377
915.696	13350
915.809	13453
915.921	13441
916.034	13133
916.146	13194
916.259	13331
916.371	13221
916.483	13244
916.595	13206
916.708	13244
916.82	13247
916.932	13164
917.044	13217
917.156	13088
917.268	13042
917.38	13061
917.491	12939
917.603	13065
917.715	13057
917.826	13038
917.938	12966
918.049	12840
918.161	12996
918.272	13050
918.384	13080
918.495	12939
918.606	12897
918.717	12681
918.828	12787
918.939	12768
919.05	12578
919.161	12738
919.272	12536
919.383	12639
919.494	12859
919.604	12943
919.715	12681
919.826	12673
919.936	12696
920.047	12833
920.157	12741
920.267	12875
920.378	12760
920.488	12787
920.598	12878
920.708	13050
920.818	12837
920.928	12863
921.038	13118
921.148	12939
921.258	12707
921.368	12608
921.477	12528
921.587	12426
921.697	12414
921.806	12513
921.916	12403
922.025	12251
922.134	12232
922.244	12095
922.353	12220
922.462	12072
922.571	11935
922.68	11828
922.789	11794
922.898	11847
923.007	11741
923.116	11958
923.224	11767
923.333	11771
923.442	11741
923.55	11653
923.659	11653
923.767	11783
923.876	11589
923.984	11752
924.092	11585
924.201	11642
924.309	11524
924.417	11623
924.525	11596
924.633	11573
924.741	12350
924.849	11284
924.956	11493
925.064	11330
925.172	11189
925.279	11379
925.387	11265
925.494	11379
925.602	11444
925.709	11455
925.816	11197
925.924	11318
926.031	11395
926.138	11277
926.245	11353
926.352	11220
926.459	11322
926.566	11379
926.673	11181
926.779	11162
926.886	11060
926.993	10980
927.099	10946
927.206	10873
927.312	10934
927.419	11033
927.525	10961
927.631	11006
927.737	10892
927.843	10850
927.95	10675
928.056	10816
928.162	10809
928.267	10904
928.373	11391
928.479	10915
928.585	10656
928.69	10786
928.796	10831
928.901	10714
929.007	10538
929.112	10679
929.218	10645
929.323	10637
929.428	10527
929.533	10687
929.638	10504
929.743	10500
929.848	10527
929.953	10481
930.058	10478
930.163	10276
930.267	10268
930.372	10455
930.477	10276
930.581	10500
930.685	10333
930.79	10181
930.894	10211
930.998	10109
931.103	10276
931.207	9888
931.311	9884
931.415	9804
931.519	9610
931.623	9606
