Data from test_V78500241_3388.txt Node
Date: Fri Mar 25 14:57:18 CST 2022
User: usil
Spectrometer: V785-0024
Trigger mode: 0
Integration Time (sec): 4.000000E-1
Scans to average: 1
Nonlinearity correction enabled: false
Boxcar width: 0
Storing dark spectrum: false
XAxis mode: Wavelengths
Number of Pixels in Spectrum: 1024
>>>>>Begin Spectral Data<<<<<
801.071	21930
801.214	21835
801.356	21572
801.499	21519
801.641	21283
801.783	21348
801.926	21306
802.068	21401
802.211	21173
802.353	21116
802.496	20990
802.638	20807
802.78	20765
802.923	20773
803.065	20678
803.208	20583
803.35	20697
803.492	20830
803.635	20857
803.777	20674
803.919	20693
804.061	21066
804.204	20663
804.346	20617
804.488	20587
804.63	20640
804.773	20438
804.915	20667
805.057	20575
805.199	20484
805.341	20621
805.483	20530
805.626	20632
805.768	20377
805.91	20644
806.052	20530
806.194	20427
806.336	20754
806.478	20602
806.62	20480
806.762	20670
806.904	20720
807.046	20891
807.188	20906
807.33	20826
807.472	20948
807.614	20739
807.756	20655
807.898	20632
808.04	20522
808.182	20579
808.324	20587
808.465	20689
808.607	20849
808.749	20937
808.891	20994
809.033	21024
809.174	20948
809.316	20918
809.458	20914
809.6	20872
809.741	20956
809.883	20925
810.025	20910
810.166	21070
810.308	21036
810.45	20906
810.591	20906
810.733	20781
810.875	20640
811.016	20667
811.158	20480
811.299	20754
811.441	20689
811.582	20914
811.724	20667
811.865	20541
812.007	20644
812.148	20648
812.29	20621
812.431	20826
812.573	20979
812.714	20982
812.855	21085
812.997	21249
813.138	21317
813.279	21268
813.421	21062
813.562	21055
813.703	20834
813.845	20769
813.986	20522
814.127	20374
814.268	20328
814.41	20328
814.551	20210
814.692	20191
814.833	20084
814.974	20119
815.115	20244
815.256	20058
815.397	20077
815.539	20134
815.68	19936
815.821	19864
815.962	19909
816.103	19826
816.244	19814
816.385	19605
816.526	19666
816.666	19510
816.807	19426
816.948	19411
817.089	19502
817.23	19403
817.371	19312
817.512	19327
817.653	19354
817.793	19247
817.934	19190
818.075	19297
818.216	19247
818.356	19316
818.497	19076
818.638	19095
818.778	19004
818.919	18939
819.06	19034
819.2	19107
819.341	19107
819.481	19148
819.622	19350
819.762	19476
819.903	19529
820.043	19362
820.184	19343
820.324	19282
820.465	19377
820.605	19320
820.746	19213
820.886	19095
821.026	19202
821.167	19324
821.307	19324
821.447	19278
821.588	19129
821.728	18970
821.868	18798
822.008	18753
822.149	18639
822.289	18760
822.429	18494
822.569	18304
822.709	18353
822.849	18270
822.99	18232
823.13	18174
823.27	18178
823.41	18022
823.55	17946
823.69	18053
823.83	17946
823.97	17935
824.11	17783
824.25	17779
824.389	17813
824.529	17859
824.669	17824
824.809	17882
824.949	17904
825.089	17847
825.228	17737
825.368	17672
825.508	17615
825.648	17653
825.787	17581
825.927	17665
826.067	17497
826.206	17493
826.346	17482
826.485	17623
826.625	17592
826.765	17646
826.904	17573
827.044	17311
827.183	17326
827.323	17189
827.462	17345
827.601	17265
827.741	17273
827.88	17299
828.02	17181
828.159	17246
828.298	17334
828.437	17311
828.577	17239
828.716	17360
828.855	17189
828.994	17014
829.134	16961
829.273	17098
829.412	17045
829.551	16949
829.69	16991
829.829	16961
829.968	17200
830.107	17094
830.246	17018
830.385	17037
830.524	16881
830.663	16885
830.802	16759
830.941	16717
831.08	16717
831.219	16862
831.357	16721
831.496	16900
831.635	16664
831.774	16558
831.913	16573
832.051	16451
832.19	16390
832.329	16455
832.467	16398
832.606	16196
832.744	16268
832.883	16413
833.022	16226
833.16	16413
833.299	16417
833.437	16413
833.576	16485
833.714	16386
833.852	16451
833.991	16504
834.129	16474
834.267	16402
834.406	16322
834.544	16523
834.682	16432
834.821	16356
834.959	16599
835.097	16466
835.235	16421
835.373	16402
835.511	16348
835.65	16268
835.788	16333
835.926	16188
836.064	16131
836.202	16181
836.34	16337
836.478	16398
836.615	16325
836.753	16314
836.891	16398
837.029	16348
837.167	16344
837.305	16200
837.443	16246
837.58	16162
837.718	16287
837.856	16215
837.993	16112
838.131	16261
838.269	16059
838.406	16128
838.544	16017
838.681	15922
838.819	15857
838.956	15793
839.094	15781
839.231	15831
839.369	15930
839.506	16109
839.643	15998
839.781	15774
839.918	15823
840.055	15800
840.193	15831
840.33	15698
840.467	15705
840.604	15766
840.742	15918
840.879	15637
841.016	15842
841.153	15576
841.29	15842
841.427	15751
841.564	15789
841.701	15778
841.838	15724
841.975	15656
842.112	15656
842.249	15587
842.385	15481
842.522	15804
842.659	15553
842.796	15519
842.933	15561
843.069	15568
843.206	15511
843.343	15614
843.479	15530
843.616	15561
843.752	15386
843.889	15211
844.025	15378
844.162	15306
844.298	15462
844.435	15252
844.571	15237
844.708	15393
844.844	15439
844.98	15401
845.117	15454
845.253	15325
845.389	15226
845.525	15222
845.661	15230
845.798	15154
845.934	15188
846.07	15055
846.206	15233
846.342	15351
846.478	15135
846.614	15058
846.75	14880
846.886	14891
847.022	14982
847.158	15020
847.294	14876
847.429	14971
847.565	14960
847.701	15104
847.837	14739
847.972	14625
848.108	14743
848.244	14686
848.379	14537
848.515	14549
848.65	14438
848.786	14526
848.921	14522
849.057	14560
849.192	14644
849.328	14583
849.463	14583
849.598	14571
849.734	14461
849.869	14473
850.004	14355
850.14	14355
850.275	14313
850.41	14195
850.545	14259
850.68	14286
850.815	14210
850.95	14233
851.085	14431
851.22	14362
851.355	14339
851.49	14351
851.625	14294
851.76	14161
851.895	14123
852.03	14153
852.165	14218
852.299	14294
852.434	14385
852.569	14309
852.703	14313
852.838	14381
852.973	14389
853.107	14457
853.242	14225
853.376	14221
853.511	14077
853.645	14145
853.78	14332
853.914	14172
854.048	14024
854.183	14115
854.317	14183
854.451	14366
854.585	14138
854.72	14134
854.854	14229
854.988	14092
855.122	14153
855.256	13993
855.39	14138
855.524	14210
855.658	14161
855.792	14168
855.926	14278
856.06	14191
856.194	14275
856.327	14142
856.461	14100
856.595	14016
856.729	14046
856.862	14221
856.996	14214
857.13	14191
857.263	14164
857.397	14324
857.53	14123
857.664	14240
857.797	14180
857.931	14233
858.064	14282
858.197	14221
858.331	14130
858.464	14092
858.597	13970
858.731	14096
858.864	14073
858.997	14149
859.13	14214
859.263	14130
859.396	14233
859.529	14100
859.662	14180
859.795	14084
859.928	14161
860.061	14278
860.194	14347
860.327	14161
860.46	14119
860.592	14275
860.725	14313
860.858	14271
860.99	14103
861.123	14092
861.256	14065
861.388	14123
861.521	14842
861.653	14050
861.786	14054
861.918	14008
862.05	14069
862.183	14020
862.315	14142
862.447	14164
862.58	14084
862.712	13967
862.844	13860
862.976	14027
863.108	13951
863.24	14343
863.372	13963
863.504	13913
863.636	13909
863.768	14069
863.9	14031
864.032	13898
864.164	13955
864.296	13986
864.428	13989
864.559	13978
864.691	14031
864.823	14065
864.954	13989
865.086	13860
865.217	13917
865.349	13974
865.48	14001
865.612	13932
865.743	14031
865.875	13879
866.006	13875
866.137	14046
866.269	13974
866.4	13944
866.531	13875
866.662	13898
866.793	13879
866.924	13826
867.055	13875
867.186	13932
867.317	13814
867.448	13818
867.579	13925
867.71	13753
867.841	13814
867.972	13879
868.103	13830
868.233	13967
868.364	13864
868.495	13993
868.625	14161
868.756	14317
868.886	14134
869.017	14142
869.147	14252
869.278	14358
869.408	14191
869.539	14100
869.669	14237
869.799	14176
869.929	14305
870.06	14263
870.19	14469
870.32	14484
870.45	14499
870.58	14571
870.71	14701
870.84	14682
870.97	14556
871.1	14545
871.23	14804
871.36	14883
871.489	14632
871.619	14712
871.749	14758
871.879	14823
872.008	14971
872.138	14788
872.267	14785
872.397	14640
872.526	14575
872.656	14610
872.785	14655
872.915	14705
873.044	14781
873.173	14800
873.303	14872
873.432	14895
873.561	14804
873.69	14777
873.819	14777
873.948	14895
874.077	14864
874.206	14750
874.335	14880
874.464	14963
874.593	15108
874.722	15005
874.851	15116
874.979	15142
875.108	15161
875.237	15142
875.365	15100
875.494	15119
875.623	15272
875.751	15146
875.88	15169
876.008	15310
876.136	15416
876.265	15488
876.393	15789
876.521	15587
876.65	15618
876.778	15511
876.906	15500
877.034	15481
877.162	15473
877.29	15412
877.418	15526
877.546	15789
877.674	15595
877.802	15500
877.93	15515
878.058	15564
878.185	15374
878.313	15485
878.441	15644
878.568	15382
878.696	15367
878.824	15576
878.951	15584
879.079	15781
879.206	15869
879.333	15766
879.461	15568
879.588	15720
879.715	15675
879.842	15770
879.97	15599
880.097	15351
880.224	15443
880.351	15408
880.478	15424
880.605	15329
880.732	15351
880.859	15663
880.986	15393
881.112	15481
881.239	15268
881.366	15245
881.493	15066
881.619	15066
881.746	15066
881.872	14933
881.999	15070
882.125	15089
882.252	15218
882.378	15108
882.505	15313
882.631	14891
882.757	14872
882.883	14952
883.01	14834
883.136	14826
883.262	14781
883.388	14754
883.514	14864
883.64	14838
883.766	14746
883.892	14701
884.018	14758
884.143	14998
884.269	15005
884.395	14632
884.52	14598
884.646	14533
884.772	14610
884.897	14560
885.023	14629
885.148	14667
885.274	14750
885.399	14655
885.524	14587
885.65	14682
885.775	14583
885.9	14564
886.025	14724
886.15	14655
886.275	14514
886.4	14480
886.525	14499
886.65	14651
886.775	14431
886.9	14606
887.025	14811
887.149	14549
887.274	14419
887.399	14343
887.523	14427
887.648	14389
887.773	14263
887.897	14511
888.021	14533
888.146	14473
888.27	14457
888.395	14507
888.519	14434
888.643	14469
888.767	14552
888.891	14294
889.015	14278
889.139	14381
889.263	14187
889.387	14438
889.511	14526
889.635	14507
889.759	14267
889.883	14298
890.006	14263
890.13	14336
890.254	14210
890.377	14263
890.501	14077
890.624	14168
890.748	14100
890.871	14016
890.995	13913
891.118	13860
891.241	14008
891.364	14069
891.488	14043
891.611	13894
891.734	13989
891.857	14088
891.98	14008
892.103	13993
892.226	14073
892.349	14001
892.471	13864
892.594	13883
892.717	14077
892.839	14016
892.962	13986
893.085	14084
893.207	13944
893.33	13879
893.452	13951
893.575	14107
893.697	13993
893.819	14103
893.941	14339
894.064	14065
894.186	14001
894.308	13898
894.43	14180
894.552	14176
894.674	14149
894.796	14050
894.918	14062
895.04	14054
895.161	14088
895.283	14043
895.405	14043
895.526	14100
895.648	14138
895.769	14096
895.891	14123
896.012	14221
896.134	14225
896.255	14218
896.376	14225
896.498	14069
896.619	14225
896.74	14195
896.861	14088
896.982	14408
897.103	14693
897.224	14511
897.345	14415
897.466	14267
897.587	14412
897.708	14587
897.828	14526
897.949	14366
898.07	14301
898.19	14450
898.311	14636
898.431	14469
898.552	14484
898.672	14594
898.792	14606
898.913	14499
899.033	14347
899.153	14309
899.273	14381
899.393	14324
899.513	14423
899.633	14347
899.753	14396
899.873	14336
899.993	14423
900.113	14324
900.232	14343
900.352	14286
900.472	14191
900.591	14130
900.711	14195
900.83	14153
900.95	14351
901.069	14248
901.189	14164
901.308	13887
901.427	13837
901.546	13909
901.665	13879
901.784	13936
901.904	13772
902.023	13670
902.141	13575
902.26	13514
902.379	13601
902.498	13415
902.617	13457
902.735	13529
902.854	13464
902.973	13445
903.091	13217
903.21	13183
903.328	13270
903.446	13149
903.565	13084
903.683	13053
903.801	12935
903.919	13000
904.038	13019
904.156	12924
904.274	12897
904.392	12852
904.51	12779
904.627	12863
904.745	12981
904.863	12894
904.981	12684
905.098	12506
905.216	12601
905.334	12563
905.451	12486
905.569	12528
905.686	12631
905.803	12521
905.921	12426
906.038	12506
906.155	12384
906.272	12254
906.389	12270
906.506	12163
906.623	12175
906.74	12148
906.857	12038
906.974	12087
907.091	12148
907.208	12327
907.324	12125
907.441	12072
907.557	11950
907.674	11824
907.79	11847
907.907	11840
908.023	11920
908.139	11939
908.256	11790
908.372	11851
908.488	11840
908.604	11684
908.72	11608
908.836	11657
908.952	11657
909.068	11600
909.184	11676
909.3	11657
909.415	11691
909.531	11767
909.647	11410
909.762	11497
909.878	11444
909.993	11493
910.108	11402
910.224	11364
910.339	11387
910.454	11360
910.57	11246
910.685	11147
910.8	11543
910.915	11478
911.03	11265
911.145	11151
911.259	11132
911.374	11185
911.489	10984
911.604	11022
911.718	10816
911.833	10927
911.947	10854
912.062	10721
912.176	10915
912.291	10816
912.405	10877
912.519	11121
912.633	11113
912.748	10881
912.862	10850
912.976	10790
913.09	10679
913.204	10706
913.318	10850
913.431	10839
913.545	10812
913.659	10942
913.772	10710
913.886	10714
914	10649
914.113	10721
914.226	10862
914.34	10774
914.453	10611
914.566	10694
914.68	10580
914.793	10679
914.906	10447
915.019	10379
915.132	10325
915.245	10394
915.358	10417
915.47	10382
915.583	10424
915.696	10405
915.809	10527
915.921	10500
916.034	10428
916.146	10371
916.259	10329
916.371	10466
916.483	10276
916.595	10379
916.708	10314
916.82	10318
916.932	10318
917.044	10268
917.156	10318
917.268	10295
917.38	10261
917.491	10272
917.603	10261
917.715	10337
917.826	10386
917.938	10246
918.049	10200
918.161	10185
918.272	10363
918.384	10386
918.495	10306
918.606	10124
918.717	10154
918.828	10147
918.939	10097
919.05	9949
919.161	10029
919.272	9934
919.383	9941
919.494	10196
919.604	10333
919.715	10177
919.826	10036
919.936	10101
920.047	10215
920.157	10147
920.267	10375
920.378	10150
920.488	10143
920.598	10314
920.708	10386
920.818	10341
920.928	10333
921.038	10538
921.148	10394
921.258	10185
921.368	10078
921.477	9987
921.587	9953
921.697	9861
921.806	10109
921.916	9857
922.025	9747
922.134	9682
922.244	9618
922.353	9857
922.462	9622
922.571	9572
922.68	9378
922.789	9393
922.898	9397
923.007	9374
923.116	9397
923.224	9386
923.333	9378
923.442	9344
923.55	9287
923.659	9340
923.767	9294
923.876	9188
923.984	9317
924.092	9275
924.201	9237
924.309	9264
924.417	9237
924.525	9237
924.633	9237
924.741	10204
924.849	9009
924.956	9207
925.064	9089
925.172	8975
925.279	8944
925.387	9097
925.494	9043
925.602	9161
925.709	9150
925.816	9047
925.924	9077
926.031	9108
926.138	9089
926.245	9085
926.352	8952
926.459	9108
926.566	9161
926.673	8963
926.779	8876
926.886	8925
926.993	8838
927.099	8746
927.206	8762
927.312	8689
927.419	8792
927.525	8762
927.631	8868
927.737	8701
927.843	8708
927.95	8499
928.056	8640
928.162	8686
928.267	8705
928.373	9355
928.479	8788
928.585	8610
928.69	8636
928.796	8678
928.901	8533
929.007	8415
929.112	8598
929.218	8541
929.323	8434
929.428	8476
929.533	8655
929.638	8454
929.743	8476
929.848	8461
929.953	8393
930.058	8377
930.163	8240
930.267	8301
930.372	8415
930.477	8191
930.581	8442
930.685	8317
930.79	8206
930.894	8317
930.998	8279
931.103	8286
931.207	8001
931.311	7887
931.415	7826
931.519	7693
931.623	7715
