Data from test_V78500241_3270.txt Node
Date: Fri Mar 25 14:56:29 CST 2022
User: usil
Spectrometer: V785-0024
Trigger mode: 0
Integration Time (sec): 4.000000E-1
Scans to average: 1
Nonlinearity correction enabled: false
Boxcar width: 0
Storing dark spectrum: false
XAxis mode: Wavelengths
Number of Pixels in Spectrum: 1024
>>>>>Begin Spectral Data<<<<<
801.071	22067
801.214	21819
801.356	21709
801.499	21576
801.641	21443
801.783	21359
801.926	21424
802.068	21363
802.211	21283
802.353	21165
802.496	20902
802.638	20807
802.78	20815
802.923	20743
803.065	20556
803.208	20583
803.35	20712
803.492	20781
803.635	20773
803.777	20731
803.919	20712
804.061	20975
804.204	20686
804.346	20682
804.488	20556
804.63	20724
804.773	20511
804.915	20564
805.057	20636
805.199	20564
805.341	20541
805.483	20651
805.626	20705
805.768	20518
805.91	20552
806.052	20659
806.194	20530
806.336	20750
806.478	20530
806.62	20423
806.762	20571
806.904	20731
807.046	20967
807.188	20849
807.33	20914
807.472	20857
807.614	20640
807.756	20823
807.898	20701
808.04	20552
808.182	20598
808.324	20701
808.465	20743
808.607	20765
808.749	20971
808.891	21039
809.033	21070
809.174	21036
809.316	20845
809.458	20967
809.6	20796
809.741	21005
809.883	21047
810.025	21043
810.166	21127
810.308	21055
810.45	21032
810.591	20994
810.733	20659
810.875	20796
811.016	20663
811.158	20488
811.299	20777
811.441	20906
811.582	20948
811.724	20689
811.865	20670
812.007	20674
812.148	20689
812.29	20674
812.431	20781
812.573	20933
812.714	21157
812.855	21211
812.997	21252
813.138	21439
813.279	21310
813.421	21249
813.562	21157
813.703	20944
813.845	20830
813.986	20613
814.127	20400
814.268	20320
814.41	20317
814.551	20256
814.692	20343
814.833	20278
814.974	20221
815.115	20278
815.256	20065
815.397	20012
815.539	20103
815.68	20046
815.821	19898
815.962	19909
816.103	20027
816.244	19852
816.385	19632
816.526	19662
816.666	19540
816.807	19259
816.948	19529
817.089	19441
817.23	19525
817.371	19293
817.512	19411
817.653	19422
817.793	19274
817.934	19350
818.075	19369
818.216	19285
818.356	19377
818.497	19251
818.638	18989
818.778	19023
818.919	19107
819.06	19114
819.2	19179
819.341	19266
819.481	19209
819.622	19343
819.762	19575
819.903	19540
820.043	19460
820.184	19285
820.324	19362
820.465	19373
820.605	19365
820.746	19339
820.886	19152
821.026	19312
821.167	19225
821.307	19365
821.447	19259
821.588	19247
821.728	19027
821.868	18932
822.008	18734
822.149	18764
822.289	18810
822.429	18464
822.569	18395
822.709	18437
822.849	18239
822.99	18304
823.13	18224
823.27	18247
823.41	18201
823.55	17977
823.69	18152
823.83	18121
823.97	17992
824.11	17916
824.25	17752
824.389	17798
824.529	17931
824.669	17775
824.809	17931
824.949	17920
825.089	17878
825.228	17889
825.368	17649
825.508	17596
825.648	17676
825.787	17668
825.927	17657
826.067	17585
826.206	17535
826.346	17611
826.485	17566
826.625	17497
826.765	17699
826.904	17672
827.044	17376
827.183	17406
827.323	17368
827.462	17280
827.601	17273
827.741	17326
827.88	17273
828.02	17189
828.159	17334
828.298	17334
828.437	17414
828.577	17143
828.716	17318
828.855	17372
828.994	16980
829.134	17052
829.273	17071
829.412	17041
829.551	16885
829.69	17033
829.829	17056
829.968	17159
830.107	17079
830.246	17086
830.385	17037
830.524	16987
830.663	16908
830.802	16710
830.941	16645
831.08	16683
831.219	16733
831.357	16805
831.496	16850
831.635	16672
831.774	16508
831.913	16550
832.051	16455
832.19	16447
832.329	16565
832.467	16421
832.606	16291
832.744	16390
832.883	16337
833.022	16398
833.16	16356
833.299	16523
833.437	16303
833.576	16443
833.714	16478
833.852	16478
833.991	16398
834.129	16497
834.267	16493
834.406	16489
834.544	16375
834.682	16462
834.821	16535
834.959	16519
835.097	16466
835.235	16508
835.373	16432
835.511	16352
835.65	16341
835.788	16276
835.926	16204
836.064	16116
836.202	16253
836.34	16318
836.478	16386
836.615	16382
836.753	16379
836.891	16409
837.029	16291
837.167	16287
837.305	16341
837.443	16246
837.58	16169
837.718	16272
837.856	16333
837.993	16135
838.131	16287
838.269	16169
838.406	16196
838.544	16105
838.681	15922
838.819	15926
838.956	15728
839.094	15698
839.231	15842
839.369	15911
839.506	16112
839.643	16006
839.781	15747
839.918	15743
840.055	15724
840.193	15850
840.33	15800
840.467	15816
840.604	15701
840.742	16021
840.879	15675
841.016	15671
841.153	15660
841.29	15873
841.427	15842
841.564	15804
841.701	15736
841.838	15728
841.975	15595
842.112	15656
842.249	15572
842.385	15507
842.522	15751
842.659	15568
842.796	15481
842.933	15595
843.069	15462
843.206	15553
843.343	15675
843.479	15515
843.616	15515
843.752	15332
843.889	15306
844.025	15397
844.162	15332
844.298	15378
844.435	15428
844.571	15203
844.708	15302
844.844	15454
844.98	15504
845.117	15454
845.253	15245
845.389	15222
845.525	15279
845.661	15272
845.798	15222
845.934	15157
846.07	15165
846.206	15112
846.342	15230
846.478	15146
846.614	14971
846.75	14868
846.886	14914
847.022	14990
847.158	14975
847.294	14925
847.429	15055
847.565	14921
847.701	15085
847.837	14594
847.972	14678
848.108	14785
848.244	14739
848.379	14549
848.515	14495
848.65	14499
848.786	14522
848.921	14587
849.057	14579
849.192	14602
849.328	14606
849.463	14537
849.598	14461
849.734	14518
849.869	14374
850.004	14343
850.14	14419
850.275	14381
850.41	14248
850.545	14199
850.68	14259
850.815	14305
850.95	14278
851.085	14488
851.22	14389
851.355	14259
851.49	14282
851.625	14278
851.76	14294
851.895	14210
852.03	14195
852.165	14298
852.299	14263
852.434	14366
852.569	14385
852.703	14317
852.838	14381
852.973	14530
853.107	14442
853.242	14305
853.376	14218
853.511	14069
853.645	14157
853.78	14385
853.914	14111
854.048	14115
854.183	14103
854.317	14157
854.451	14339
854.585	14164
854.72	14157
854.854	14298
854.988	14153
855.122	14134
855.256	14024
855.39	14065
855.524	14214
855.658	14256
855.792	14206
855.926	14210
856.06	14221
856.194	14259
856.327	14187
856.461	14081
856.595	14153
856.729	14145
856.862	14328
856.996	14351
857.13	14237
857.263	14370
857.397	14225
857.53	14187
857.664	14210
857.797	14225
857.931	14256
858.064	14153
858.197	14313
858.331	14164
858.464	14081
858.597	14065
858.731	14161
858.864	14233
858.997	14107
859.13	14218
859.263	14183
859.396	14252
859.529	14237
859.662	14218
859.795	14218
859.928	14206
860.061	14404
860.194	14366
860.327	14100
860.46	14153
860.592	14294
860.725	14381
860.858	14301
860.99	14202
861.123	14111
861.256	14043
861.388	14142
861.521	14921
861.653	14084
861.786	13978
861.918	14069
862.05	14081
862.183	14130
862.315	14244
862.447	14206
862.58	14172
862.712	13940
862.844	13928
862.976	14043
863.108	14016
863.24	14336
863.372	13894
863.504	13898
863.636	13913
863.768	14035
863.9	13928
864.032	13951
864.164	13909
864.296	13951
864.428	13993
864.559	14039
864.691	13947
864.823	14035
864.954	14054
865.086	14005
865.217	13967
865.349	13837
865.48	13909
865.612	14001
865.743	14115
865.875	13913
866.006	13928
866.137	13986
866.269	13928
866.4	13967
866.531	13856
866.662	13849
866.793	13894
866.924	13997
867.055	13951
867.186	13921
867.317	13955
867.448	13822
867.579	13852
867.71	13803
867.841	13868
867.972	13894
868.103	13951
868.233	13959
868.364	13978
868.495	13982
868.625	14107
868.756	14294
868.886	14161
869.017	14103
869.147	14313
869.278	14404
869.408	14214
869.539	14153
869.669	14362
869.799	14248
869.929	14324
870.06	14355
870.19	14575
870.32	14465
870.45	14465
870.58	14686
870.71	14746
870.84	14625
870.97	14636
871.1	14636
871.23	14743
871.36	14815
871.489	14716
871.619	14754
871.749	14811
871.879	14826
872.008	14861
872.138	14864
872.267	14762
872.397	14682
872.526	14682
872.656	14590
872.785	14610
872.915	14773
873.044	14838
873.173	14887
873.303	14842
873.432	14880
873.561	14887
873.69	14834
873.819	14891
873.948	14979
874.077	14872
874.206	14868
874.335	14800
874.464	14956
874.593	15264
874.722	15036
874.851	15268
874.979	15195
875.108	15256
875.237	15062
875.365	15032
875.494	15165
875.623	15203
875.751	15218
875.88	15199
876.008	15397
876.136	15336
876.265	15595
876.393	15774
876.521	15774
876.65	15652
876.778	15686
876.906	15488
877.034	15523
877.162	15587
877.29	15519
877.418	15545
877.546	15523
877.674	15610
877.802	15622
877.93	15523
878.058	15496
878.185	15481
878.313	15500
878.441	15542
878.568	15428
878.696	15485
878.824	15504
878.951	15705
879.079	15800
879.206	15987
879.333	15827
879.461	15682
879.588	15686
879.715	15694
879.842	15903
879.97	15637
880.097	15477
880.224	15367
880.351	15458
880.478	15416
880.605	15477
880.732	15401
880.859	15728
880.986	15500
881.112	15511
881.239	15294
881.366	15157
881.493	15161
881.619	15112
881.746	15089
881.872	15138
881.999	15135
882.125	15013
882.252	15150
882.378	15161
882.505	15169
882.631	14876
882.757	14941
882.883	14876
883.01	14857
883.136	14792
883.262	14849
883.388	14701
883.514	14937
883.64	14918
883.766	14838
883.892	14739
884.018	14785
884.143	14868
884.269	14971
884.395	14648
884.52	14610
884.646	14587
884.772	14446
884.897	14461
885.023	14617
885.148	14785
885.274	14823
885.399	14697
885.524	14503
885.65	14598
885.775	14670
885.9	14648
886.025	14640
886.15	14663
886.275	14549
886.4	14530
886.525	14530
886.65	14606
886.775	14518
886.9	14655
887.025	14880
887.149	14659
887.274	14484
887.399	14381
887.523	14469
887.648	14419
887.773	14431
887.897	14575
888.021	14492
888.146	14332
888.27	14488
888.395	14495
888.519	14476
888.643	14488
888.767	14454
888.891	14389
889.015	14298
889.139	14317
889.263	14275
889.387	14438
889.511	14461
889.635	14377
889.759	14290
889.883	14313
890.006	14366
890.13	14313
890.254	14301
890.377	14161
890.501	13993
890.624	14164
890.748	14278
890.871	14138
890.995	13963
891.118	13845
891.241	13955
891.364	14005
891.488	14134
891.611	14054
891.734	14088
891.857	14077
891.98	14024
892.103	14187
892.226	13978
892.349	13978
892.471	13849
892.594	14027
892.717	14031
892.839	13917
892.962	14046
893.085	14111
893.207	13986
893.33	13932
893.452	13837
893.575	14088
893.697	14008
893.819	14115
893.941	14271
894.064	14301
894.186	14008
894.308	13936
894.43	14115
894.552	14210
894.674	14164
894.796	13944
894.918	14081
895.04	14081
895.161	14130
895.283	14073
895.405	13989
895.526	14229
895.648	14126
895.769	14130
895.891	14145
896.012	14271
896.134	14225
896.255	14206
896.376	14187
896.498	14191
896.619	14206
896.74	14233
896.861	14229
896.982	14499
897.103	14670
897.224	14408
897.345	14381
897.466	14286
897.587	14423
897.708	14488
897.828	14625
897.949	14461
898.07	14237
898.19	14385
898.311	14549
898.431	14438
898.552	14575
898.672	14712
898.792	14598
898.913	14621
899.033	14423
899.153	14381
899.273	14286
899.393	14275
899.513	14412
899.633	14389
899.753	14415
899.873	14358
899.993	14465
900.113	14370
900.232	14461
900.352	14328
900.472	14286
900.591	14240
900.711	14259
900.83	14248
900.95	14366
901.069	14339
901.189	14240
901.308	13974
901.427	13875
901.546	13868
901.665	13982
901.784	13928
901.904	13841
902.023	13662
902.141	13502
902.26	13556
902.379	13605
902.498	13476
902.617	13422
902.735	13491
902.854	13567
902.973	13426
903.091	13110
903.21	13179
903.328	13202
903.446	13110
903.565	13042
903.683	13126
903.801	12886
903.919	13088
904.038	13053
904.156	12909
904.274	12951
904.392	12932
904.51	12905
904.627	12852
904.745	12821
904.863	12916
904.981	12582
905.098	12608
905.216	12604
905.334	12604
905.451	12646
905.569	12631
905.686	12551
905.803	12642
905.921	12353
906.038	12464
906.155	12372
906.272	12289
906.389	12311
906.506	12194
906.623	12254
906.74	12167
906.857	12129
906.974	12076
907.091	12277
907.208	12315
907.324	12224
907.441	12057
907.557	11946
907.674	11920
907.79	11897
907.907	11931
908.023	11935
908.139	11878
908.256	11882
908.372	11847
908.488	11859
908.604	11756
908.72	11657
908.836	11642
908.952	11733
909.068	11688
909.184	11813
909.3	11680
909.415	11794
909.531	11657
909.647	11478
909.762	11509
909.878	11444
909.993	11406
910.108	11497
910.224	11414
910.339	11455
910.454	11417
910.57	11284
910.685	11204
910.8	11543
910.915	11414
911.03	11318
911.145	11193
911.259	11151
911.374	11136
911.489	11052
911.604	11029
911.718	10915
911.833	10980
911.947	10885
912.062	10771
912.176	10889
912.291	10835
912.405	10896
912.519	11045
912.633	11079
912.748	10934
912.862	10850
912.976	10873
913.09	10725
913.204	10672
913.318	10892
913.431	10869
913.545	10843
913.659	10816
913.772	10843
913.886	10683
914	10668
914.113	10843
914.226	10812
914.34	10820
914.453	10615
914.566	10771
914.68	10554
914.793	10607
914.906	10432
915.019	10363
915.132	10360
915.245	10466
915.358	10538
915.47	10424
915.583	10535
915.696	10462
915.809	10596
915.921	10607
916.034	10371
916.146	10352
916.259	10367
916.371	10470
916.483	10447
916.595	10333
916.708	10337
916.82	10382
916.932	10470
917.044	10356
917.156	10371
917.268	10215
917.38	10310
917.491	10303
917.603	10303
917.715	10436
917.826	10386
917.938	10204
918.049	10131
918.161	10284
918.272	10481
918.384	10428
918.495	10318
918.606	10234
918.717	10071
918.828	10196
918.939	10215
919.05	10109
919.161	10078
919.272	9994
919.383	10044
919.494	10234
919.604	10462
919.715	10162
919.826	10135
919.936	10101
920.047	10166
920.157	10150
920.267	10371
920.378	10188
920.488	10192
920.598	10295
920.708	10478
920.818	10341
920.928	10306
921.038	10607
921.148	10504
921.258	10329
921.368	10097
921.477	10025
921.587	9994
921.697	9915
921.806	10048
921.916	9892
922.025	9766
922.134	9701
922.244	9694
922.353	9762
922.462	9606
922.571	9652
922.68	9447
922.789	9405
922.898	9466
923.007	9424
923.116	9401
923.224	9488
923.333	9447
923.442	9374
923.55	9344
923.659	9374
923.767	9389
923.876	9275
923.984	9439
924.092	9260
924.201	9332
924.309	9359
924.417	9382
924.525	9222
924.633	9253
924.741	10188
924.849	9089
924.956	9264
925.064	9055
925.172	9123
925.279	8979
925.387	9123
925.494	9131
925.602	9279
925.709	9207
925.816	9058
925.924	9077
926.031	9108
926.138	9055
926.245	9184
926.352	9024
926.459	9211
926.566	9203
926.673	9032
926.779	8937
926.886	8990
926.993	8891
927.099	8853
927.206	8777
927.312	8823
927.419	8876
927.525	8807
927.631	8857
927.737	8769
927.843	8689
927.95	8594
928.056	8648
928.162	8701
928.267	8834
928.373	9279
928.479	8807
928.585	8579
928.69	8667
928.796	8769
928.901	8613
929.007	8454
929.112	8663
929.218	8636
929.323	8518
929.428	8560
929.533	8689
929.638	8454
929.743	8522
929.848	8575
929.953	8522
930.058	8412
930.163	8233
930.267	8343
930.372	8434
930.477	8301
930.581	8526
930.685	8442
930.79	8240
930.894	8290
930.998	8271
931.103	8377
931.207	8077
931.311	8005
931.415	7970
931.519	7753
931.623	7750
