Data from test_V78500241_3367.txt Node
Date: Fri Mar 25 14:57:09 CST 2022
User: usil
Spectrometer: V785-0024
Trigger mode: 0
Integration Time (sec): 4.000000E-1
Scans to average: 1
Nonlinearity correction enabled: false
Boxcar width: 0
Storing dark spectrum: false
XAxis mode: Wavelengths
Number of Pixels in Spectrum: 1024
>>>>>Begin Spectral Data<<<<<
801.071	21987
801.214	21854
801.356	21686
801.499	21485
801.641	21386
801.783	21359
801.926	21428
802.068	21310
802.211	21325
802.353	21154
802.496	20929
802.638	20796
802.78	20743
802.923	20830
803.065	20575
803.208	20629
803.35	20693
803.492	20765
803.635	20811
803.777	20598
803.919	20686
804.061	20990
804.204	20705
804.346	20518
804.488	20492
804.63	20746
804.773	20507
804.915	20579
805.057	20636
805.199	20488
805.341	20579
805.483	20686
805.626	20598
805.768	20396
805.91	20575
806.052	20640
806.194	20431
806.336	20712
806.478	20522
806.62	20488
806.762	20518
806.904	20746
807.046	20914
807.188	20857
807.33	20941
807.472	20864
807.614	20819
807.756	20731
807.898	20777
808.04	20598
808.182	20636
808.324	20598
808.465	20629
808.607	20804
808.749	20910
808.891	21047
809.033	21074
809.174	20914
809.316	20845
809.458	20849
809.6	20857
809.741	20914
809.883	20979
810.025	20994
810.166	21047
810.308	21032
810.45	21058
810.591	21001
810.733	20830
810.875	20727
811.016	20651
811.158	20598
811.299	20693
811.441	20781
811.582	20796
811.724	20765
811.865	20598
812.007	20667
812.148	20613
812.29	20693
812.431	20762
812.573	21055
812.714	20937
812.855	21119
812.997	21237
813.138	21291
813.279	21211
813.421	21230
813.562	20925
813.703	20883
813.845	20830
813.986	20556
814.127	20370
814.268	20305
814.41	20195
814.551	20088
814.692	20282
814.833	20122
814.974	20187
815.115	20210
815.256	20005
815.397	20126
815.539	20096
815.68	19993
815.821	19951
815.962	19974
816.103	19921
816.244	19772
816.385	19639
816.526	19677
816.666	19468
816.807	19282
816.948	19407
817.089	19403
817.23	19449
817.371	19415
817.512	19312
817.653	19331
817.793	19369
817.934	19362
818.075	19335
818.216	19308
818.356	19308
818.497	19217
818.638	19057
818.778	18985
818.919	18989
819.06	19004
819.2	19110
819.341	19255
819.481	19240
819.622	19453
819.762	19578
819.903	19377
820.043	19434
820.184	19247
820.324	19259
820.465	19270
820.605	19384
820.746	19221
820.886	19084
821.026	19308
821.167	19251
821.307	19381
821.447	19263
821.588	19202
821.728	19012
821.868	18924
822.008	18650
822.149	18867
822.289	18760
822.429	18555
822.569	18456
822.709	18471
822.849	18239
822.99	18270
823.13	18152
823.27	18178
823.41	18072
823.55	17927
823.69	18041
823.83	17920
823.97	17969
824.11	17764
824.25	17889
824.389	17912
824.529	17912
824.669	17748
824.809	17935
824.949	17790
825.089	17908
825.228	17771
825.368	17585
825.508	17577
825.648	17585
825.787	17554
825.927	17585
826.067	17581
826.206	17577
826.346	17691
826.485	17589
826.625	17554
826.765	17710
826.904	17665
827.044	17406
827.183	17376
827.323	17284
827.462	17318
827.601	17258
827.741	17208
827.88	17227
828.02	17174
828.159	17193
828.298	17296
828.437	17387
828.577	17239
828.716	17463
828.855	17204
828.994	17056
829.134	17048
829.273	17113
829.412	17010
829.551	16953
829.69	16957
829.829	17033
829.968	17162
830.107	17060
830.246	17090
830.385	17041
830.524	16949
830.663	16809
830.802	16831
830.941	16596
831.08	16637
831.219	16809
831.357	16797
831.496	16847
831.635	16645
831.774	16611
831.913	16527
832.051	16455
832.19	16527
832.329	16466
832.467	16402
832.606	16204
832.744	16318
832.883	16242
833.022	16352
833.16	16303
833.299	16382
833.437	16413
833.576	16455
833.714	16459
833.852	16375
833.991	16436
834.129	16428
834.267	16398
834.406	16443
834.544	16500
834.682	16398
834.821	16478
834.959	16584
835.097	16303
835.235	16519
835.373	16424
835.511	16390
835.65	16375
835.788	16295
835.926	16188
836.064	16158
836.202	16162
836.34	16402
836.478	16421
836.615	16356
836.753	16402
836.891	16382
837.029	16318
837.167	16295
837.305	16200
837.443	16211
837.58	16128
837.718	16363
837.856	16363
837.993	16196
838.131	16211
838.269	16150
838.406	16105
838.544	16082
838.681	15975
838.819	15975
838.956	15717
839.094	15656
839.231	15762
839.369	15945
839.506	16162
839.643	15918
839.781	15812
839.918	15614
840.055	15739
840.193	15705
840.33	15732
840.467	15660
840.604	15781
840.742	16025
840.879	15671
841.016	15709
841.153	15610
841.29	15804
841.427	15671
841.564	15717
841.701	15808
841.838	15743
841.975	15572
842.112	15709
842.249	15553
842.385	15447
842.522	15778
842.659	15587
842.796	15466
842.933	15466
843.069	15458
843.206	15469
843.343	15526
843.479	15587
843.616	15500
843.752	15321
843.889	15317
844.025	15500
844.162	15279
844.298	15420
844.435	15264
844.571	15264
844.708	15287
844.844	15561
844.98	15405
845.117	15462
845.253	15256
845.389	15211
845.525	15325
845.661	15294
845.798	15218
845.934	15207
846.07	15051
846.206	15173
846.342	15237
846.478	15199
846.614	14979
846.75	14902
846.886	14914
847.022	14990
847.158	14883
847.294	14864
847.429	14948
847.565	14811
847.701	15081
847.837	14648
847.972	14537
848.108	14769
848.244	14670
848.379	14560
848.515	14473
848.65	14495
848.786	14667
848.921	14484
849.057	14564
849.192	14568
849.328	14522
849.463	14575
849.598	14476
849.734	14492
849.869	14351
850.004	14301
850.14	14355
850.275	14286
850.41	14168
850.545	14210
850.68	14256
850.815	14233
850.95	14259
851.085	14480
851.22	14317
851.355	14202
851.49	14259
851.625	14298
851.76	14218
851.895	14252
852.03	14187
852.165	14195
852.299	14267
852.434	14393
852.569	14347
852.703	14332
852.838	14366
852.973	14454
853.107	14351
853.242	14195
853.376	14168
853.511	14043
853.645	14115
853.78	14237
853.914	14123
854.048	14088
854.183	14206
854.317	14077
854.451	14336
854.585	14149
854.72	14096
854.854	14145
854.988	14005
855.122	14016
855.256	13887
855.39	13993
855.524	14134
855.658	14111
855.792	14096
855.926	14134
856.06	14187
856.194	14202
856.327	14096
856.461	13963
856.595	14100
856.729	14088
856.862	14263
856.996	14210
857.13	14218
857.263	14176
857.397	14271
857.53	14123
857.664	14142
857.797	14202
857.931	14187
858.064	14202
858.197	14206
858.331	14081
858.464	14096
858.597	13974
858.731	14134
858.864	14164
858.997	14107
859.13	14233
859.263	14142
859.396	14191
859.529	14119
859.662	14107
859.795	14142
859.928	14176
860.061	14252
860.194	14381
860.327	14111
860.46	14256
860.592	14168
860.725	14317
860.858	14252
860.99	14081
861.123	14073
861.256	14024
861.388	14119
861.521	14982
861.653	14130
861.786	14016
861.918	13997
862.05	14103
862.183	14084
862.315	14180
862.447	14180
862.58	14172
862.712	13856
862.844	13913
862.976	14012
863.108	14092
863.24	14355
863.372	13936
863.504	13917
863.636	13947
863.768	14058
863.9	13875
864.032	13894
864.164	13909
864.296	14001
864.428	14031
864.559	13967
864.691	14073
864.823	14001
864.954	13951
865.086	13940
865.217	13959
865.349	13868
865.48	13947
865.612	13967
865.743	14027
865.875	13913
866.006	13864
866.137	13841
866.269	13837
866.4	13864
866.531	13928
866.662	13898
866.793	13902
866.924	13849
867.055	13898
867.186	13906
867.317	13883
867.448	13860
867.579	13811
867.71	13841
867.841	13776
867.972	13928
868.103	13890
868.233	13978
868.364	13894
868.495	13951
868.625	14157
868.756	14248
868.886	14180
869.017	14103
869.147	14317
869.278	14275
869.408	14138
869.539	14180
869.669	14278
869.799	14248
869.929	14248
870.06	14408
870.19	14396
870.32	14385
870.45	14446
870.58	14587
870.71	14716
870.84	14651
870.97	14556
871.1	14602
871.23	14716
871.36	14769
871.489	14663
871.619	14644
871.749	14739
871.879	14807
872.008	14895
872.138	14773
872.267	14743
872.397	14632
872.526	14530
872.656	14571
872.785	14613
872.915	14758
873.044	14804
873.173	14720
873.303	14849
873.432	14807
873.561	14804
873.69	14815
873.819	14887
873.948	14788
874.077	14849
874.206	14724
874.335	14937
874.464	14868
874.593	15066
874.722	15051
874.851	15119
874.979	15272
875.108	15077
875.237	15173
875.365	14918
875.494	14982
875.623	15195
875.751	15112
875.88	15074
876.008	15291
876.136	15332
876.265	15530
876.393	15709
876.521	15644
876.65	15660
876.778	15644
876.906	15561
877.034	15488
877.162	15660
877.29	15500
877.418	15530
877.546	15523
877.674	15606
877.802	15606
877.93	15553
878.058	15477
878.185	15412
878.313	15428
878.441	15526
878.568	15538
878.696	15466
878.824	15534
878.951	15622
879.079	15652
879.206	15831
879.333	15694
879.461	15618
879.588	15690
879.715	15747
879.842	15804
879.97	15595
880.097	15416
880.224	15378
880.351	15454
880.478	15530
880.605	15367
880.732	15325
880.859	15675
880.986	15412
881.112	15378
881.239	15214
881.366	15180
881.493	15199
881.619	15127
881.746	15093
881.872	15058
881.999	14986
882.125	15051
882.252	15097
882.378	15100
882.505	15184
882.631	15081
882.757	14887
882.883	14918
883.01	14849
883.136	14830
883.262	14792
883.388	14739
883.514	14815
883.64	14914
883.766	14735
883.892	14625
884.018	14674
884.143	14975
884.269	15009
884.395	14606
884.52	14640
884.646	14594
884.772	14541
884.897	14457
885.023	14575
885.148	14617
885.274	14731
885.399	14663
885.524	14537
885.65	14644
885.775	14613
885.9	14537
886.025	14663
886.15	14731
886.275	14533
886.4	14552
886.525	14556
886.65	14526
886.775	14476
886.9	14689
887.025	14777
887.149	14659
887.274	14355
887.399	14355
887.523	14377
887.648	14263
887.773	14454
887.897	14495
888.021	14412
888.146	14385
888.27	14564
888.395	14590
888.519	14492
888.643	14492
888.767	14495
888.891	14358
889.015	14130
889.139	14294
889.263	14263
889.387	14400
889.511	14503
889.635	14434
889.759	14294
889.883	14248
890.006	14362
890.13	14343
890.254	14301
890.377	14221
890.501	14092
890.624	14020
890.748	14252
890.871	14016
890.995	13955
891.118	13898
891.241	13963
891.364	14073
891.488	14161
891.611	13879
891.734	13997
891.857	14115
891.98	13951
892.103	14046
892.226	14035
892.349	14016
892.471	13841
892.594	13955
892.717	14092
892.839	13860
892.962	14123
893.085	14039
893.207	13932
893.33	13902
893.452	13917
893.575	14062
893.697	13871
893.819	14176
893.941	14187
894.064	14119
894.186	13902
894.308	13898
894.43	14123
894.552	14138
894.674	14096
894.796	13989
894.918	13993
895.04	13974
895.161	14180
895.283	14142
895.405	13989
895.526	14103
895.648	14077
895.769	14103
895.891	14119
896.012	14218
896.134	14225
896.255	14187
896.376	14119
896.498	14134
896.619	14237
896.74	14187
896.861	14240
896.982	14533
897.103	14632
897.224	14431
897.345	14400
897.466	14362
897.587	14347
897.708	14621
897.828	14484
897.949	14396
898.07	14271
898.19	14427
898.311	14549
898.431	14484
898.552	14442
898.672	14564
898.792	14499
898.913	14613
899.033	14457
899.153	14358
899.273	14301
899.393	14343
899.513	14393
899.633	14347
899.753	14351
899.873	14286
899.993	14480
900.113	14408
900.232	14332
900.352	14404
900.472	14225
900.591	14142
900.711	14320
900.83	14275
900.95	14240
901.069	14290
901.189	14073
901.308	13883
901.427	13925
901.546	13894
901.665	13906
901.784	13902
901.904	13780
902.023	13628
902.141	13480
902.26	13422
902.379	13563
902.498	13445
902.617	13407
902.735	13521
902.854	13430
902.973	13434
903.091	13270
903.21	13285
903.328	13217
903.446	13141
903.565	13031
903.683	13034
903.801	13023
903.919	13034
904.038	13027
904.156	12840
904.274	12913
904.392	12817
904.51	12848
904.627	12859
904.745	12966
904.863	12894
904.981	12658
905.098	12589
905.216	12612
905.334	12658
905.451	12574
905.569	12479
905.686	12612
905.803	12585
905.921	12407
906.038	12509
906.155	12391
906.272	12323
906.389	12315
906.506	12076
906.623	12064
906.74	12129
906.857	12003
906.974	12068
907.091	12239
907.208	12292
907.324	12205
907.441	12144
907.557	11958
907.674	11942
907.79	11916
907.907	11893
908.023	11908
908.139	11958
908.256	11821
908.372	11836
908.488	11828
908.604	11710
908.72	11600
908.836	11714
908.952	11581
909.068	11642
909.184	11843
909.3	11566
909.415	11665
909.531	11695
909.647	11452
909.762	11482
909.878	11398
909.993	11379
910.108	11433
910.224	11474
910.339	11448
910.454	11322
910.57	11364
910.685	11273
910.8	11478
910.915	11391
911.03	11326
911.145	11201
911.259	11064
911.374	11140
911.489	11086
911.604	11064
911.718	10919
911.833	10877
911.947	10767
912.062	10748
912.176	10869
912.291	10877
912.405	10862
912.519	11105
912.633	11117
912.748	10908
912.862	10862
912.976	10698
913.09	10683
913.204	10740
913.318	10752
913.431	10919
913.545	10858
913.659	10942
913.772	10736
913.886	10656
914	10653
914.113	10771
914.226	10790
914.34	10771
914.453	10573
914.566	10649
914.68	10683
914.793	10596
914.906	10447
915.019	10314
915.132	10246
915.245	10379
915.358	10382
915.47	10405
915.583	10459
915.696	10447
915.809	10599
915.921	10550
916.034	10325
916.146	10379
916.259	10344
916.371	10443
916.483	10417
916.595	10371
916.708	10402
916.82	10386
916.932	10363
917.044	10367
917.156	10318
917.268	10211
917.38	10177
917.491	10230
917.603	10299
917.715	10318
917.826	10318
917.938	10219
918.049	10116
918.161	10261
918.272	10303
918.384	10333
918.495	10257
918.606	10181
918.717	10032
918.828	10150
918.939	10158
919.05	9979
919.161	10055
919.272	9903
919.383	10006
919.494	10192
919.604	10428
919.715	10150
919.826	10010
919.936	10082
920.047	10272
920.157	10169
920.267	10280
920.378	10204
920.488	10181
920.598	10341
920.708	10451
920.818	10261
920.928	10318
921.038	10519
921.148	10398
921.258	10128
921.368	10090
921.477	9930
921.587	9991
921.697	9831
921.806	10112
921.916	9926
922.025	9736
922.134	9732
922.244	9633
922.353	9759
922.462	9584
922.571	9526
922.68	9336
922.789	9408
922.898	9389
923.007	9382
923.116	9435
923.224	9389
923.333	9374
923.442	9283
923.55	9218
923.659	9256
923.767	9313
923.876	9245
923.984	9325
924.092	9218
924.201	9291
924.309	9325
924.417	9245
924.525	9104
924.633	9291
924.741	10169
924.849	9024
924.956	9211
925.064	8990
925.172	8975
925.279	9100
925.387	9074
925.494	9119
925.602	9104
925.709	9135
925.816	8971
925.924	9039
926.031	9119
926.138	9081
926.245	9104
926.352	8914
926.459	9157
926.566	9104
926.673	9032
926.779	8910
926.886	8887
926.993	8910
927.099	8750
927.206	8716
927.312	8701
927.419	8807
927.525	8716
927.631	8815
927.737	8682
927.843	8651
927.95	8492
928.056	8632
928.162	8625
928.267	8773
928.373	9302
928.479	8766
928.585	8541
928.69	8575
928.796	8648
928.901	8598
929.007	8450
929.112	8621
929.218	8560
929.323	8480
929.428	8518
929.533	8594
929.638	8404
929.743	8499
929.848	8488
929.953	8560
930.058	8389
930.163	8263
930.267	8324
930.372	8423
930.477	8237
930.581	8454
930.685	8377
930.79	8161
930.894	8263
930.998	8195
931.103	8248
931.207	8024
931.311	8008
931.415	7894
931.519	7734
931.623	7632
