Data from test_V78500241_1376.txt Node
Date: Fri Mar 25 14:43:17 CST 2022
User: usil
Spectrometer: V785-0024
Trigger mode: 0
Integration Time (sec): 4.000000E-1
Scans to average: 1
Nonlinearity correction enabled: false
Boxcar width: 0
Storing dark spectrum: false
XAxis mode: Wavelengths
Number of Pixels in Spectrum: 1024
>>>>>Begin Spectral Data<<<<<
801.071	22550
801.214	22325
801.356	22177
801.499	21987
801.641	21861
801.783	21816
801.926	21701
802.068	21701
802.211	21755
802.353	21663
802.496	21545
802.638	21317
802.78	21245
802.923	21184
803.065	21108
803.208	21165
803.35	21260
803.492	21150
803.635	21233
803.777	21093
803.919	21260
804.061	21538
804.204	21355
804.346	21100
804.488	21036
804.63	21085
804.773	21017
804.915	21001
805.057	21211
805.199	21074
805.341	21089
805.483	21157
805.626	21100
805.768	21047
805.91	21077
806.052	21138
806.194	21001
806.336	21275
806.478	20937
806.62	21119
806.762	21131
806.904	21317
807.046	21511
807.188	21321
807.33	21431
807.472	21450
807.614	21294
807.756	21431
807.898	21298
808.04	21123
808.182	21287
808.324	21226
808.465	21287
808.607	21595
808.749	21686
808.891	21934
809.033	21899
809.174	21774
809.316	21694
809.458	21682
809.6	21473
809.741	21504
809.883	21656
810.025	21781
810.166	21648
810.308	21709
810.45	21507
810.591	21523
810.733	21291
810.875	21313
811.016	21279
811.158	21135
811.299	21424
811.441	21435
811.582	21386
811.724	21180
811.865	21355
812.007	21142
812.148	21249
812.29	21203
812.431	21458
812.573	21488
812.714	21686
812.855	21766
812.997	21778
813.138	21994
813.279	21819
813.421	21701
813.562	21610
813.703	21424
813.845	21325
813.986	21150
814.127	21001
814.268	20838
814.41	20910
814.551	20792
814.692	20921
814.833	20705
814.974	20689
815.115	20826
815.256	20686
815.397	20609
815.539	20499
815.68	20541
815.821	20499
815.962	20514
816.103	20522
816.244	20450
816.385	20336
816.526	20278
816.666	20206
816.807	19928
816.948	20012
817.089	20084
817.23	19993
817.371	19963
817.512	19932
817.653	19871
817.793	19871
817.934	19803
818.075	19913
818.216	19982
818.356	19871
818.497	19738
818.638	19693
818.778	19643
818.919	19533
819.06	19658
819.2	19776
819.341	19860
819.481	19849
819.622	19947
819.762	20195
819.903	20153
820.043	19993
820.184	19928
820.324	19879
820.465	19982
820.605	19951
820.746	19921
820.886	19772
821.026	19875
821.167	19845
821.307	19955
821.447	19803
821.588	19708
821.728	19609
821.868	19381
822.008	19354
822.149	19278
822.289	19293
822.429	19137
822.569	18958
822.709	18977
822.849	18993
822.99	18798
823.13	18753
823.27	18802
823.41	18650
823.55	18585
823.69	18597
823.83	18601
823.97	18582
824.11	18460
824.25	18376
824.389	18395
824.529	18391
824.669	18353
824.809	18563
824.949	18544
825.089	18460
825.228	18323
825.368	18178
825.508	18117
825.648	18152
825.787	18190
825.927	18216
826.067	18095
826.206	18117
826.346	18239
826.485	18201
826.625	18117
826.765	18201
826.904	18197
827.044	17893
827.183	18019
827.323	17783
827.462	17931
827.601	17840
827.741	17882
827.88	17775
828.02	17802
828.159	17851
828.298	17836
828.437	17893
828.577	17824
828.716	18034
828.855	17790
828.994	17684
829.134	17615
829.273	17600
829.412	17581
829.551	17634
829.69	17653
829.829	17623
829.968	17634
830.107	17695
830.246	17566
830.385	17539
830.524	17566
830.663	17383
830.802	17337
830.941	17246
831.08	17227
831.219	17280
831.357	17280
831.496	17581
831.635	17330
831.774	17151
831.913	17079
832.051	17025
832.19	17052
832.329	17083
832.467	16896
832.606	16774
832.744	16782
832.883	16919
833.022	16946
833.16	16949
833.299	16923
833.437	16915
833.576	16938
833.714	17033
833.852	17052
833.991	17018
834.129	17022
834.267	17056
834.406	16927
834.544	17006
834.682	17052
834.821	16968
834.959	17181
835.097	16927
835.235	17067
835.373	16896
835.511	17018
835.65	16816
835.788	16957
835.926	16843
836.064	16672
836.202	16664
836.34	16877
836.478	16889
836.615	16862
836.753	16835
836.891	17018
837.029	17010
837.167	16862
837.305	16843
837.443	16748
837.58	16649
837.718	16744
837.856	16812
837.993	16664
838.131	16729
838.269	16653
838.406	16713
838.544	16599
838.681	16402
838.819	16405
838.956	16295
839.094	16261
839.231	16382
839.369	16318
839.506	16607
839.643	16394
839.781	16306
839.918	16306
840.055	16238
840.193	16303
840.33	16295
840.467	16246
840.604	16238
840.742	16569
840.879	16219
841.016	16150
841.153	16116
841.29	16443
841.427	16329
841.564	16375
841.701	16261
841.838	16181
841.975	16166
842.112	16131
842.249	16044
842.385	16032
842.522	16257
842.659	16051
842.796	16078
842.933	16010
843.069	16025
843.206	15945
843.343	16067
843.479	16036
843.616	16124
843.752	15892
843.889	15903
844.025	16040
844.162	15838
844.298	15861
844.435	15880
844.571	15819
844.708	15915
844.844	16097
844.98	15956
845.117	15945
845.253	15759
845.389	15880
845.525	15884
845.661	15899
845.798	15975
845.934	16002
846.07	15854
846.206	16002
846.342	15972
846.478	15770
846.614	15644
846.75	15450
846.886	15351
847.022	15515
847.158	15466
847.294	15443
847.429	15420
847.565	15382
847.701	15682
847.837	15157
847.972	15184
848.108	15275
848.244	15173
848.379	15024
848.515	15036
848.65	14963
848.786	14982
848.921	15089
849.057	15146
849.192	15074
849.328	15089
849.463	15020
849.598	14868
849.734	15036
849.869	14838
850.004	14849
850.14	14811
850.275	14750
850.41	14716
850.545	14659
850.68	14708
850.815	14758
850.95	14811
851.085	14941
851.22	14944
851.355	14838
851.49	14754
851.625	14743
851.76	14781
851.895	14602
852.03	14613
852.165	14735
852.299	14781
852.434	14868
852.569	14762
852.703	14792
852.838	14899
852.973	14944
853.107	14895
853.242	14712
853.376	14648
853.511	14571
853.645	14632
853.78	14636
853.914	14629
854.048	14602
854.183	14556
854.317	14731
854.451	14769
854.585	14644
854.72	14678
854.854	14758
854.988	14511
855.122	14587
855.256	14499
855.39	14644
855.524	14769
855.658	14625
855.792	14743
855.926	14670
856.06	14663
856.194	14678
856.327	14697
856.461	14629
856.595	14568
856.729	14621
856.862	14720
856.996	14655
857.13	14705
857.263	14819
857.397	14739
857.53	14670
857.664	14689
857.797	14674
857.931	14807
858.064	14564
858.197	14830
858.331	14705
858.464	14644
858.597	14526
858.731	14621
858.864	14537
858.997	14659
859.13	14545
859.263	14610
859.396	14800
859.529	14636
859.662	14590
859.795	14640
859.928	14667
860.061	14861
860.194	14724
860.327	14659
860.46	14629
860.592	14792
860.725	14754
860.858	14689
860.99	14651
861.123	14636
861.256	14651
861.388	14621
861.521	15310
861.653	14549
861.786	14389
861.918	14465
862.05	14587
862.183	14625
862.315	14640
862.447	14594
862.58	14583
862.712	14434
862.844	14351
862.976	14476
863.108	14419
863.24	14765
863.372	14324
863.504	14336
863.636	14396
863.768	14488
863.9	14385
864.032	14317
864.164	14419
864.296	14457
864.428	14480
864.559	14446
864.691	14537
864.823	14408
864.954	14434
865.086	14503
865.217	14431
865.349	14267
865.48	14351
865.612	14431
865.743	14598
865.875	14522
866.006	14301
866.137	14366
866.269	14473
866.4	14389
866.531	14374
866.662	14282
866.793	14324
866.924	14351
867.055	14400
867.186	14328
867.317	14320
867.448	14240
867.579	14298
867.71	14347
867.841	14271
867.972	14370
868.103	14499
868.233	14545
868.364	14393
868.495	14465
868.625	14629
868.756	14674
868.886	14625
869.017	14549
869.147	14670
869.278	14762
869.408	14659
869.539	14621
869.669	14800
869.799	14663
869.929	14845
870.06	14716
870.19	15009
870.32	15005
870.45	14982
870.58	15017
870.71	15104
870.84	15195
870.97	15058
871.1	15043
871.23	15161
871.36	15176
871.489	15093
871.619	15051
871.749	15291
871.879	15241
872.008	15340
872.138	15119
872.267	15211
872.397	15058
872.526	15089
872.656	15146
872.785	15108
872.915	15268
873.044	15268
873.173	15169
873.303	15256
873.432	15222
873.561	15317
873.69	15344
873.819	15211
873.948	15374
874.077	15313
874.206	15294
874.335	15268
874.464	15504
874.593	15549
874.722	15542
874.851	15576
874.979	15500
875.108	15641
875.237	15523
875.365	15507
875.494	15584
875.623	15701
875.751	15584
875.88	15637
876.008	15728
876.136	15800
876.265	15994
876.393	16090
876.521	16044
876.65	16082
876.778	15998
876.906	16059
877.034	15949
877.162	16013
877.29	16025
877.418	16017
877.546	15972
877.674	16055
877.802	16029
877.93	16048
878.058	15991
878.185	15861
878.313	15991
878.441	16013
878.568	15975
878.696	16025
878.824	16162
878.951	16188
879.079	16147
879.206	16409
879.333	16318
879.461	16226
879.588	16303
879.715	16478
879.842	16474
879.97	16219
880.097	15949
880.224	15953
880.351	15907
880.478	15884
880.605	15854
880.732	15892
880.859	16154
880.986	15857
881.112	15907
881.239	15751
881.366	15633
881.493	15584
881.619	15538
881.746	15641
881.872	15538
881.999	15504
882.125	15519
882.252	15717
882.378	15530
882.505	15778
882.631	15485
882.757	15370
882.883	15435
883.01	15367
883.136	15332
883.262	15245
883.388	15313
883.514	15279
883.64	15370
883.766	15340
883.892	15195
884.018	15150
884.143	15382
884.269	15374
884.395	15161
884.52	15058
884.646	15085
884.772	15093
884.897	14876
885.023	15119
885.148	15142
885.274	15161
885.399	15047
885.524	15112
885.65	15047
885.775	15081
885.9	15058
886.025	15188
886.15	15161
886.275	14986
886.4	14914
886.525	15009
886.65	14925
886.775	14929
886.9	15116
887.025	15237
887.149	15062
887.274	14902
887.399	14842
887.523	14823
887.648	14807
887.773	14731
887.897	14990
888.021	14887
888.146	14830
888.27	14944
888.395	14933
888.519	14765
888.643	14921
888.767	14944
888.891	14686
889.015	14682
889.139	14773
889.263	14693
889.387	14762
889.511	14937
889.635	14819
889.759	14701
889.883	14731
890.006	14697
890.13	14769
890.254	14590
890.377	14651
890.501	14526
890.624	14473
890.748	14575
890.871	14465
890.995	14385
891.118	14313
891.241	14393
891.364	14393
891.488	14484
891.611	14336
891.734	14446
891.857	14473
891.98	14377
892.103	14465
892.226	14514
892.349	14396
892.471	14278
892.594	14343
892.717	14404
892.839	14454
892.962	14465
893.085	14389
893.207	14404
893.33	14248
893.452	14294
893.575	14419
893.697	14427
893.819	14495
893.941	14678
894.064	14541
894.186	14336
894.308	14320
894.43	14511
894.552	14590
894.674	14427
894.796	14427
894.918	14457
895.04	14438
895.161	14522
895.283	14545
895.405	14393
895.526	14499
895.648	14446
895.769	14549
895.891	14545
896.012	14587
896.134	14545
896.255	14560
896.376	14533
896.498	14530
896.619	14625
896.74	14526
896.861	14708
896.982	14864
897.103	14994
897.224	14849
897.345	14754
897.466	14758
897.587	14769
897.708	15070
897.828	14815
897.949	14773
898.07	14648
898.19	14842
898.311	14899
898.431	14804
898.552	14925
898.672	14944
898.792	14960
898.913	14952
899.033	14845
899.153	14785
899.273	14606
899.393	14750
899.513	14727
899.633	14834
899.753	14800
899.873	14754
899.993	14830
900.113	14678
900.232	14838
900.352	14663
900.472	14682
900.591	14640
900.711	14613
900.83	14522
900.95	14663
901.069	14682
901.189	14541
901.308	14332
901.427	14252
901.546	14244
901.665	14419
901.784	14313
901.904	14176
902.023	14020
902.141	13913
902.26	13959
902.379	14001
902.498	13845
902.617	13791
902.735	13932
902.854	13841
902.973	13811
903.091	13624
903.21	13483
903.328	13689
903.446	13540
903.565	13514
903.683	13559
903.801	13354
903.919	13316
904.038	13324
904.156	13259
904.274	13384
904.392	13187
904.51	13221
904.627	13259
904.745	13266
904.863	13270
904.981	13046
905.098	12920
905.216	12802
905.334	12977
905.451	12951
905.569	12848
905.686	12954
905.803	12905
905.921	12654
906.038	12821
906.155	12787
906.272	12646
906.389	12669
906.506	12483
906.623	12437
906.74	12498
906.857	12452
906.974	12376
907.091	12570
907.208	12707
907.324	12509
907.441	12494
907.557	12251
907.674	12232
907.79	12152
907.907	12254
908.023	12277
908.139	12270
908.256	12190
908.372	12148
908.488	12038
908.604	12083
908.72	11931
908.836	11954
908.952	12022
909.068	11958
909.184	12011
909.3	11996
909.415	12022
909.531	12049
909.647	11851
909.762	11798
909.878	11794
909.993	11737
910.108	11733
910.224	11680
910.339	11813
910.454	11604
910.57	11623
910.685	11505
910.8	11828
910.915	11817
911.03	11733
911.145	11471
911.259	11551
911.374	11512
911.489	11421
911.604	11280
911.718	11220
911.833	11292
911.947	11071
912.062	11067
912.176	11208
912.291	11246
912.405	11242
912.519	11349
912.633	11463
912.748	11280
912.862	11250
912.976	11094
913.09	11037
913.204	11064
913.318	11094
913.431	11143
913.545	11174
913.659	11269
913.772	11132
913.886	11086
914	11022
914.113	11033
914.226	11071
914.34	11033
914.453	10919
914.566	11033
914.68	10889
914.793	10911
914.906	10736
915.019	10683
915.132	10634
915.245	10649
915.358	10702
915.47	10778
915.583	10805
915.696	10774
915.809	10923
915.921	10843
916.034	10637
916.146	10656
916.259	10664
916.371	10793
916.483	10740
916.595	10702
916.708	10592
916.82	10573
916.932	10622
917.044	10645
917.156	10615
917.268	10508
917.38	10565
917.491	10542
917.603	10535
917.715	10592
917.826	10634
917.938	10554
918.049	10504
918.161	10508
918.272	10656
918.384	10694
918.495	10546
918.606	10394
918.717	10375
918.828	10466
918.939	10436
919.05	10249
919.161	10436
919.272	10162
919.383	10234
919.494	10432
919.604	10599
919.715	10516
919.826	10417
919.936	10421
920.047	10485
920.157	10478
920.267	10683
920.378	10405
920.488	10421
920.598	10611
920.708	10801
920.818	10672
920.928	10626
921.038	10801
921.148	10725
921.258	10402
921.368	10379
921.477	10238
921.587	10143
921.697	10139
921.806	10333
921.916	10120
922.025	10040
922.134	9979
922.244	9816
922.353	9998
922.462	9804
922.571	9785
922.68	9663
922.789	9542
922.898	9709
923.007	9557
923.116	9717
923.224	9679
923.333	9618
923.442	9542
923.55	9523
923.659	9507
923.767	9591
923.876	9477
923.984	9641
924.092	9439
924.201	9542
924.309	9504
924.417	9504
924.525	9428
924.633	9519
924.741	10360
924.849	9317
924.956	9420
925.064	9329
925.172	9264
925.279	9218
925.387	9344
925.494	9336
925.602	9367
925.709	9329
925.816	9321
925.924	9222
926.031	9393
926.138	9348
926.245	9374
926.352	9256
926.459	9313
926.566	9336
926.673	9188
926.779	9180
926.886	9112
926.993	9020
927.099	8994
927.206	8933
927.312	8952
927.419	9058
927.525	8979
927.631	9108
927.737	8933
927.843	8849
927.95	8762
928.056	8921
928.162	8941
928.267	9013
928.373	9637
928.479	8944
928.585	8731
928.69	8960
928.796	8971
928.901	8834
929.007	8682
929.112	8785
929.218	8750
929.323	8678
929.428	8781
929.533	8853
929.638	8693
929.743	8697
929.848	8724
929.953	8773
930.058	8705
930.163	8526
930.267	8434
930.372	8613
930.477	8427
930.581	8667
930.685	8651
930.79	8381
930.894	8442
930.998	8408
931.103	8514
931.207	8206
931.311	8157
931.415	8145
931.519	7963
931.623	7989
