Data from test_V78500241_911.txt Node
Date: Fri Mar 25 14:40:03 CST 2022
User: usil
Spectrometer: V785-0024
Trigger mode: 0
Integration Time (sec): 4.000000E-1
Scans to average: 1
Nonlinearity correction enabled: false
Boxcar width: 0
Storing dark spectrum: false
XAxis mode: Wavelengths
Number of Pixels in Spectrum: 1024
>>>>>Begin Spectral Data<<<<<
801.071	24951
801.214	24833
801.356	24566
801.499	24494
801.641	24205
801.783	24277
801.926	24338
802.068	24213
802.211	24038
802.353	23916
802.496	23817
802.638	23760
802.78	23653
802.923	23684
803.065	23638
803.208	23657
803.35	23608
803.492	23714
803.635	23847
803.777	23608
803.919	23752
804.061	23954
804.204	23680
804.346	23520
804.488	23592
804.63	23516
804.773	23535
804.915	23646
805.057	23859
805.199	23539
805.341	23684
805.483	23752
805.626	23737
805.768	23623
805.91	23703
806.052	23718
806.194	23767
806.336	23988
806.478	23969
806.62	23904
806.762	23961
806.904	24117
807.046	24369
807.188	24445
807.33	24536
807.472	24696
807.614	24612
807.756	24802
807.898	24989
808.04	25187
808.182	25415
808.324	25989
808.465	26602
808.607	27325
808.749	28048
808.891	28337
809.033	28322
809.174	27956
809.316	27272
809.458	26644
809.6	26142
809.741	25677
809.883	25327
810.025	25187
810.166	25015
810.308	24943
810.45	24764
810.591	24464
810.733	24346
810.875	24239
811.016	24079
811.158	24076
811.299	24136
811.441	24155
811.582	24129
811.724	24064
811.865	23931
812.007	23908
812.148	23935
812.29	23893
812.431	24171
812.573	24258
812.714	24232
812.855	24338
812.997	24448
813.138	24669
813.279	24509
813.421	24361
813.562	24201
813.703	24125
813.845	24117
813.986	23684
814.127	23707
814.268	23528
814.41	23387
814.551	23421
814.692	23505
814.833	23250
814.974	23284
815.115	23379
815.256	23155
815.397	23227
815.539	23170
815.68	23044
815.821	22976
815.962	23121
816.103	23018
816.244	22904
816.385	22915
816.526	22797
816.666	22656
816.807	22402
816.948	22493
817.089	22778
817.23	22538
817.371	22497
817.512	22531
817.653	22462
817.793	22428
817.934	22390
818.075	22542
818.216	22504
818.356	22402
818.497	22280
818.638	22196
818.778	22162
818.919	22029
819.06	22154
819.2	22253
819.341	22215
819.481	22185
819.622	22382
819.762	22542
819.903	22668
820.043	22531
820.184	22421
820.324	22322
820.465	22531
820.605	22432
820.746	22287
820.886	22272
821.026	22287
821.167	22299
821.307	22390
821.447	22242
821.588	22067
821.728	22070
821.868	21808
822.008	21770
822.149	21549
822.289	21633
822.429	21515
822.569	21302
822.709	21367
822.849	21195
822.99	21393
823.13	21138
823.27	21157
823.41	21096
823.55	20960
823.69	20994
823.83	20948
823.97	20975
824.11	20834
824.25	20712
824.389	20651
824.529	20830
824.669	20625
824.809	20834
824.949	20746
825.089	20739
825.228	20815
825.368	20621
825.508	20488
825.648	20606
825.787	20571
825.927	20537
826.067	20457
826.206	20484
826.346	20552
826.485	20476
826.625	20419
826.765	20499
826.904	20419
827.044	20286
827.183	20153
827.323	20088
827.462	20267
827.601	20138
827.741	20248
827.88	20176
828.02	20043
828.159	20153
828.298	20100
828.437	20214
828.577	20107
828.716	20214
828.855	20077
828.994	19944
829.134	19879
829.273	19940
829.412	19791
829.551	19959
829.69	19830
829.829	19833
829.968	19898
830.107	19822
830.246	19921
830.385	19742
830.524	19833
830.663	19594
830.802	19635
830.941	19449
831.08	19453
831.219	19548
831.357	19643
831.496	19723
831.635	19430
831.774	19324
831.913	19331
832.051	19304
832.19	19251
832.329	19308
832.467	19282
832.606	19122
832.744	19133
832.883	19187
833.022	19213
833.16	19190
833.299	19251
833.437	19156
833.576	19282
833.714	19384
833.852	19312
833.991	19419
834.129	19540
834.267	19422
834.406	19388
834.544	19324
834.682	19449
834.821	19289
834.959	19472
835.097	19247
835.235	19251
835.373	19179
835.511	19168
835.65	19072
835.788	19156
835.926	18920
836.064	18924
836.202	18943
836.34	19000
836.478	19194
836.615	18920
836.753	19061
836.891	19194
837.029	19015
837.167	18916
837.305	19061
837.443	18913
837.58	18856
837.718	19000
837.856	18821
837.993	18772
838.131	18951
838.269	18711
838.406	18890
838.544	18681
838.681	18601
838.819	18467
838.956	18365
839.094	18296
839.231	18311
839.369	18589
839.506	18620
839.643	18665
839.781	18327
839.918	18327
840.055	18315
840.193	18251
840.33	18319
840.467	18228
840.604	18372
840.742	18650
840.879	18254
841.016	18273
841.153	18182
841.29	18483
841.427	18281
841.564	18273
841.701	18300
841.838	18319
841.975	18159
842.112	18106
842.249	18076
842.385	17996
842.522	18243
842.659	17988
842.796	18030
842.933	18026
843.069	18015
843.206	17950
843.343	18110
843.479	18114
843.616	18133
843.752	17882
843.889	17828
844.025	17942
844.162	17870
844.298	18057
844.435	17927
844.571	17908
844.708	18022
844.844	18213
844.98	18270
845.117	18334
845.253	18384
845.389	18616
845.525	19263
845.661	20126
845.798	21264
845.934	22303
846.07	22778
846.206	22538
846.342	21812
846.478	20750
846.614	19392
846.75	18517
846.886	18182
847.022	17908
847.158	17653
847.294	17615
847.429	17554
847.565	17402
847.701	17672
847.837	17250
847.972	17140
848.108	17208
848.244	17117
848.379	17102
848.515	16991
848.65	16869
848.786	16938
848.921	16866
849.057	17010
849.192	17014
849.328	16984
849.463	16869
849.598	16904
849.734	16835
849.869	16889
850.004	16645
850.14	16763
850.275	16710
850.41	16565
850.545	16615
850.68	16603
850.815	16656
850.95	16702
851.085	16866
851.22	16740
851.355	16717
851.49	16630
851.625	16596
851.76	16618
851.895	16489
852.03	16554
852.165	16672
852.299	16672
852.434	16694
852.569	16664
852.703	16698
852.838	16767
852.973	16831
853.107	16828
853.242	16611
853.376	16618
853.511	16440
853.645	16554
853.78	16607
853.914	16546
854.048	16554
854.183	16474
854.317	16535
854.451	16710
854.585	16599
854.72	16455
854.854	16675
854.988	16497
855.122	16478
855.256	16280
855.39	16455
855.524	16554
855.658	16569
855.792	16550
855.926	16451
856.06	16554
856.194	16668
856.327	16550
856.461	16478
856.595	16493
856.729	16443
856.862	16649
856.996	16519
857.13	16554
857.263	16573
857.397	16561
857.53	16508
857.664	16618
857.797	16542
857.931	16531
858.064	16485
858.197	16561
858.331	16493
858.464	16333
858.597	16398
858.731	16451
858.864	16497
858.997	16455
859.13	16356
859.263	16428
859.396	16459
859.529	16447
859.662	16402
859.795	16405
859.928	16421
860.061	16569
860.194	16713
860.327	16531
860.46	16470
860.592	16500
860.725	16531
860.858	16588
860.99	16504
861.123	16398
861.256	16325
861.388	16565
861.521	17174
861.653	16333
861.786	16276
861.918	16295
862.05	16333
862.183	16455
862.315	16363
862.447	16485
862.58	16424
862.712	16234
862.844	16223
862.976	16295
863.108	16265
863.24	16675
863.372	16169
863.504	16074
863.636	16185
863.768	16257
863.9	16249
864.032	16059
864.164	16124
864.296	16188
864.428	16291
864.559	16230
864.691	16318
864.823	16196
864.954	16116
865.086	16219
865.217	16253
865.349	16112
865.48	16185
865.612	16131
865.743	16249
865.875	16135
866.006	16067
866.137	16207
866.269	16120
866.4	16093
866.531	16147
866.662	16120
866.793	16128
866.924	16131
867.055	16158
867.186	16082
867.317	16013
867.448	15998
867.579	16021
867.71	16074
867.841	16101
867.972	16150
868.103	16139
868.233	16196
868.364	16097
868.495	16249
868.625	16314
868.756	16417
868.886	16265
869.017	16455
869.147	16440
869.278	16535
869.408	16462
869.539	16440
869.669	16558
869.799	16398
869.929	16462
870.06	16333
870.19	16516
870.32	16767
870.45	16733
870.58	16744
870.71	16839
870.84	16801
870.97	16748
871.1	16797
871.23	16873
871.36	16911
871.489	16885
871.619	16850
871.749	16885
871.879	16965
872.008	17010
872.138	16946
872.267	16911
872.397	16877
872.526	16809
872.656	16908
872.785	16900
872.915	16949
873.044	17124
873.173	16957
873.303	16938
873.432	17048
873.561	17113
873.69	17117
873.819	17140
873.948	17181
874.077	17159
874.206	17071
874.335	17071
874.464	17212
874.593	17296
874.722	17349
874.851	17455
874.979	17383
875.108	17448
875.237	17322
875.365	17292
875.494	17330
875.623	17505
875.751	17372
875.88	17379
876.008	17570
876.136	17608
876.265	17756
876.393	17939
876.521	17935
876.65	17927
876.778	17874
876.906	17901
877.034	17802
877.162	17927
877.29	17843
877.418	17969
877.546	17942
877.674	17927
877.802	18026
877.93	18011
878.058	18064
878.185	17980
878.313	18117
878.441	18167
878.568	18186
878.696	18216
878.824	18509
878.951	18760
879.079	19198
879.206	19552
879.333	19776
879.461	20096
879.588	20332
879.715	20404
879.842	20320
879.97	19788
880.097	19202
880.224	18833
880.351	18661
880.478	18582
880.605	18410
880.732	18418
880.859	18525
880.986	18319
881.112	18209
881.239	18152
881.366	18114
881.493	18015
881.619	17904
881.746	17893
881.872	17897
881.999	17866
882.125	17786
882.252	17923
882.378	17954
882.505	18072
882.631	17897
882.757	17714
882.883	17912
883.01	17672
883.136	17687
883.262	17532
883.388	17604
883.514	17760
883.64	17809
883.766	17668
883.892	17452
884.018	17581
884.143	17653
884.269	17836
884.395	17524
884.52	17444
884.646	17402
884.772	17326
884.897	17303
885.023	17467
885.148	17402
885.274	17547
885.399	17474
885.524	17421
885.65	17383
885.775	17334
885.9	17421
886.025	17372
886.15	17231
886.275	17162
886.4	17132
886.525	17166
886.65	17174
886.775	17010
886.9	17216
887.025	17318
887.149	17067
887.274	16923
887.399	16797
887.523	16835
887.648	16786
887.773	16744
887.897	16774
888.021	16911
888.146	16824
888.27	16771
888.395	16987
888.519	16881
888.643	16858
888.767	16869
888.891	16767
889.015	16679
889.139	16702
889.263	16630
889.387	16618
889.511	16892
889.635	16664
889.759	16577
889.883	16531
890.006	16618
890.13	16649
890.254	16474
890.377	16451
890.501	16287
890.624	16268
890.748	16386
890.871	16265
890.995	16185
891.118	16109
891.241	16120
891.364	16185
891.488	16325
891.611	16090
891.734	16124
891.857	16204
891.98	16131
892.103	16154
892.226	16158
892.349	16086
892.471	16032
892.594	15994
892.717	16166
892.839	16017
892.962	16101
893.085	16192
893.207	16188
893.33	16090
893.452	15983
893.575	16112
893.697	16071
893.819	16181
893.941	16280
894.064	16257
894.186	16017
894.308	15888
894.43	16131
894.552	16173
894.674	16211
894.796	15979
894.918	16025
895.04	16025
895.161	16074
895.283	16090
895.405	15968
895.526	16116
895.648	16097
895.769	16093
895.891	16120
896.012	16211
896.134	16207
896.255	16074
896.376	16097
896.498	16128
896.619	16253
896.74	16112
896.861	16215
896.982	16421
897.103	16630
897.224	16360
897.345	16325
897.466	16314
897.587	16466
897.708	16390
897.828	16413
897.949	16443
898.07	16177
898.19	16325
898.311	16500
898.431	16421
898.552	16474
898.672	16466
898.792	16516
898.913	16470
899.033	16299
899.153	16337
899.273	16265
899.393	16291
899.513	16344
899.633	16284
899.753	16234
899.873	16238
899.993	16424
900.113	16360
900.232	16333
900.352	16204
900.472	16177
900.591	16192
900.711	16185
900.83	16040
900.95	16242
901.069	16200
901.189	16093
901.308	15827
901.427	15694
901.546	15770
901.665	15827
901.784	15869
901.904	15652
902.023	15561
902.141	15466
902.26	15321
902.379	15359
902.498	15336
902.617	15203
902.735	15378
902.854	15249
902.973	15298
903.091	14967
903.21	14990
903.328	14914
903.446	14861
903.565	14811
903.683	14811
903.801	14739
903.919	14727
904.038	14701
904.156	14564
904.274	14583
904.392	14507
904.51	14587
904.627	14621
904.745	14686
904.863	14659
904.981	14324
905.098	14237
905.216	14195
905.334	14240
905.451	14339
905.569	14176
905.686	14294
905.803	14168
905.921	13959
906.038	14130
906.155	14008
906.272	13978
906.389	13811
906.506	13902
906.623	13784
906.74	13723
906.857	13586
906.974	13693
907.091	13852
907.208	13947
907.324	13814
907.441	13651
907.557	13480
907.674	13518
907.79	13384
907.907	13487
908.023	13540
908.139	13502
908.256	13457
908.372	13339
908.488	13392
908.604	13206
908.72	13225
908.836	13206
908.952	13129
909.068	13225
909.184	13381
909.3	13251
909.415	13346
909.531	13209
909.647	13038
909.762	12909
909.878	12958
909.993	12913
910.108	12840
910.224	12928
910.339	12993
910.454	12920
910.57	12741
910.685	12741
910.8	12970
910.915	12897
911.03	12833
911.145	12639
911.259	12688
911.374	12544
911.489	12627
911.604	12498
911.718	12376
911.833	12433
911.947	12289
912.062	12232
912.176	12433
912.291	12353
912.405	12330
912.519	12513
912.633	12563
912.748	12429
912.862	12422
912.976	12273
913.09	12133
913.204	12121
913.318	12205
913.431	12334
913.545	12369
913.659	12338
913.772	12178
913.886	12098
914	12072
914.113	12140
914.226	12251
914.34	12144
914.453	11961
914.566	12106
914.68	12015
914.793	12091
914.906	11764
915.019	11828
915.132	11805
915.245	11817
915.358	11920
915.47	11821
915.583	11920
915.696	11813
915.809	11889
915.921	11946
916.034	11767
916.146	11714
916.259	11691
916.371	11851
916.483	11813
916.595	11688
916.708	11756
916.82	11714
916.932	11649
917.044	11653
917.156	11680
917.268	11585
917.38	11615
917.491	11512
917.603	11638
917.715	11771
917.826	11672
917.938	11490
918.049	11497
918.161	11589
918.272	11668
918.384	11710
918.495	11577
918.606	11364
918.717	11360
918.828	11387
918.939	11471
919.05	11303
919.161	11417
919.272	11204
919.383	11307
919.494	11440
919.604	11611
919.715	11425
919.826	11311
919.936	11326
920.047	11501
920.157	11440
920.267	11642
920.378	11452
920.488	11414
920.598	11589
920.708	11798
920.818	11581
920.928	11547
921.038	11695
921.148	11665
921.258	11322
921.368	11383
921.477	11208
921.587	11318
921.697	11071
921.806	11235
921.916	11121
922.025	10980
922.134	10904
922.244	10858
922.353	10976
922.462	10778
922.571	10714
922.68	10558
922.789	10538
922.898	10611
923.007	10535
923.116	10626
923.224	10504
923.333	10561
923.442	10459
923.55	10402
923.659	10466
923.767	10512
923.876	10421
923.984	10500
924.092	10379
924.201	10356
924.309	10440
924.417	10402
924.525	10379
924.633	10280
924.741	11109
924.849	10166
924.956	10352
925.064	10143
925.172	10162
925.279	10166
925.387	10249
925.494	10192
925.602	10299
925.709	10230
925.816	10128
925.924	10219
926.031	10242
926.138	10059
926.245	10207
926.352	10147
926.459	10181
926.566	10185
926.673	10051
926.779	9922
926.886	10040
926.993	9930
927.099	9911
927.206	9797
927.312	9789
927.419	9922
927.525	9915
927.631	9907
927.737	9778
927.843	9720
927.95	9629
928.056	9762
928.162	9793
928.267	9793
928.373	10413
928.479	9785
928.585	9584
928.69	9660
928.796	9755
928.901	9606
929.007	9553
929.112	9667
929.218	9553
929.323	9469
929.428	9496
929.533	9564
929.638	9481
929.743	9545
929.848	9473
929.953	9507
930.058	9401
930.163	9241
930.267	9272
930.372	9466
930.477	9222
930.581	9443
930.685	9336
930.79	9279
930.894	9218
930.998	9157
931.103	9329
931.207	8925
931.311	8861
931.415	8918
931.519	8640
931.623	8648
