Data from test_V78500241_2939.txt Node
Date: Fri Mar 25 14:54:10 CST 2022
User: usil
Spectrometer: V785-0024
Trigger mode: 0
Integration Time (sec): 4.000000E-1
Scans to average: 1
Nonlinearity correction enabled: false
Boxcar width: 0
Storing dark spectrum: false
XAxis mode: Wavelengths
Number of Pixels in Spectrum: 1024
>>>>>Begin Spectral Data<<<<<
801.071	22109
801.214	21918
801.356	21682
801.499	21576
801.641	21458
801.783	21450
801.926	21473
802.068	21367
802.211	21207
802.353	21199
802.496	21055
802.638	21005
802.78	20891
802.923	20857
803.065	20670
803.208	20686
803.35	20701
803.492	20902
803.635	20804
803.777	20838
803.919	20781
804.061	21020
804.204	20762
804.346	20564
804.488	20613
804.63	20796
804.773	20636
804.915	20674
805.057	20746
805.199	20625
805.341	20697
805.483	20788
805.626	20762
805.768	20659
805.91	20644
806.052	20686
806.194	20670
806.336	20857
806.478	20579
806.62	20674
806.762	20845
806.904	20933
807.046	21070
807.188	20941
807.33	20994
807.472	21081
807.614	20842
807.756	20933
807.898	20712
808.04	20765
808.182	20743
808.324	20689
808.465	20815
808.607	20910
808.749	21089
808.891	21203
809.033	21249
809.174	21157
809.316	21074
809.458	21154
809.6	20891
809.741	21047
809.883	21096
810.025	21184
810.166	21214
810.308	21272
810.45	21165
810.591	21005
810.733	20952
810.875	20948
811.016	20727
811.158	20777
811.299	20834
811.441	20963
811.582	21043
811.724	20880
811.865	20891
812.007	20739
812.148	20815
812.29	20746
812.431	21055
812.573	21272
812.714	21313
812.855	21412
812.997	21447
813.138	21660
813.279	21401
813.421	21317
813.562	21291
813.703	21165
813.845	20937
813.986	20655
814.127	20575
814.268	20393
814.41	20396
814.551	20415
814.692	20438
814.833	20275
814.974	20355
815.115	20423
815.256	20286
815.397	20317
815.539	20351
815.68	20187
815.821	20111
815.962	20149
816.103	19989
816.244	20005
816.385	19932
816.526	19974
816.666	19757
816.807	19537
816.948	19540
817.089	19613
817.23	19597
817.371	19506
817.512	19632
817.653	19635
817.793	19533
817.934	19506
818.075	19601
818.216	19499
818.356	19540
818.497	19453
818.638	19255
818.778	19278
818.919	19202
819.06	19346
819.2	19354
819.341	19426
819.481	19449
819.622	19643
819.762	19715
819.903	19655
820.043	19540
820.184	19476
820.324	19381
820.465	19525
820.605	19514
820.746	19552
820.886	19377
821.026	19502
821.167	19502
821.307	19578
821.447	19373
821.588	19259
821.728	19251
821.868	19069
822.008	18863
822.149	18909
822.289	18973
822.429	18688
822.569	18559
822.709	18627
822.849	18448
822.99	18410
823.13	18361
823.27	18277
823.41	18251
823.55	18190
823.69	18201
823.83	18186
823.97	18182
824.11	17973
824.25	17870
824.389	17977
824.529	18053
824.669	17977
824.809	18098
824.949	17977
825.089	17977
825.228	17973
825.368	17851
825.508	17828
825.648	17783
825.787	17760
825.927	17748
826.067	17726
826.206	17623
826.346	17748
826.485	17813
826.625	17691
826.765	17882
826.904	17695
827.044	17516
827.183	17482
827.323	17429
827.462	17600
827.601	17425
827.741	17311
827.88	17414
828.02	17459
828.159	17410
828.298	17452
828.437	17509
828.577	17391
828.716	17490
828.855	17383
828.994	17178
829.134	17147
829.273	17140
829.412	17136
829.551	17121
829.69	17124
829.829	17208
829.968	17288
830.107	17140
830.246	17197
830.385	17174
830.524	17052
830.663	16949
830.802	16771
830.941	16805
831.08	16691
831.219	16858
831.357	16839
831.496	17052
831.635	16869
831.774	16653
831.913	16694
832.051	16519
832.19	16660
832.329	16592
832.467	16497
832.606	16474
832.744	16322
832.883	16554
833.022	16398
833.16	16535
833.299	16508
833.437	16508
833.576	16550
833.714	16451
833.852	16592
833.991	16618
834.129	16668
834.267	16531
834.406	16523
834.544	16580
834.682	16550
834.821	16451
834.959	16672
835.097	16500
835.235	16561
835.373	16611
835.511	16565
835.65	16504
835.788	16443
835.926	16249
836.064	16249
836.202	16295
836.34	16413
836.478	16508
836.615	16341
836.753	16428
836.891	16424
837.029	16329
837.167	16424
837.305	16394
837.443	16257
837.58	16200
837.718	16333
837.856	16379
837.993	16261
838.131	16257
838.269	16223
838.406	16268
838.544	16135
838.681	15998
838.819	15987
838.956	15819
839.094	15812
839.231	15937
839.369	15956
839.506	16234
839.643	16093
839.781	15797
839.918	15941
840.055	15926
840.193	15838
840.33	15739
840.467	15835
840.604	15918
840.742	16139
840.879	15686
841.016	15785
841.153	15709
841.29	15922
841.427	15873
841.564	15895
841.701	15854
841.838	15876
841.975	15755
842.112	15804
842.249	15625
842.385	15644
842.522	15774
842.659	15561
842.796	15606
842.933	15610
843.069	15576
843.206	15652
843.343	15660
843.479	15698
843.616	15694
843.752	15370
843.889	15397
844.025	15618
844.162	15416
844.298	15481
844.435	15351
844.571	15268
844.708	15466
844.844	15603
844.98	15603
845.117	15500
845.253	15374
845.389	15321
845.525	15488
845.661	15401
845.798	15226
845.934	15291
846.07	15161
846.206	15230
846.342	15370
846.478	15245
846.614	14967
846.75	14918
846.886	14853
847.022	15097
847.158	15020
847.294	14948
847.429	14967
847.565	14963
847.701	15173
847.837	14727
847.972	14727
848.108	14842
848.244	14826
848.379	14560
848.515	14533
848.65	14606
848.786	14583
848.921	14522
849.057	14636
849.192	14617
849.328	14640
849.463	14545
849.598	14545
849.734	14492
849.869	14442
850.004	14339
850.14	14503
850.275	14408
850.41	14362
850.545	14301
850.68	14362
850.815	14339
850.95	14324
851.085	14522
851.22	14476
851.355	14400
851.49	14252
851.625	14263
851.76	14336
851.895	14123
852.03	14210
852.165	14320
852.299	14358
852.434	14248
852.569	14400
852.703	14419
852.838	14358
852.973	14434
853.107	14541
853.242	14343
853.376	14275
853.511	14100
853.645	14092
853.78	14385
853.914	14240
854.048	14123
854.183	14229
854.317	14187
854.451	14290
854.585	14187
854.72	14153
854.854	14267
854.988	14172
855.122	14111
855.256	14176
855.39	14195
855.524	14244
855.658	14252
855.792	14180
855.926	14206
856.06	14206
856.194	14377
856.327	14221
856.461	14240
856.595	14180
856.729	14153
856.862	14305
856.996	14275
857.13	14267
857.263	14381
857.397	14381
857.53	14183
857.664	14317
857.797	14256
857.931	14294
858.064	14225
858.197	14423
858.331	14172
858.464	14214
858.597	14058
858.731	14271
858.864	14263
858.997	14248
859.13	14161
859.263	14176
859.396	14313
859.529	14084
859.662	14195
859.795	14161
859.928	14278
860.061	14415
860.194	14423
860.327	14237
860.46	14237
860.592	14351
860.725	14358
860.858	14400
860.99	14206
861.123	14126
861.256	14168
861.388	14206
861.521	14826
861.653	14062
861.786	14008
861.918	14069
862.05	14096
862.183	14092
862.315	14206
862.447	14145
862.58	14153
862.712	14005
862.844	13978
862.976	14039
863.108	14115
863.24	14454
863.372	13955
863.504	13970
863.636	13925
863.768	14031
863.9	14012
864.032	13947
864.164	13970
864.296	14081
864.428	14126
864.559	14035
864.691	14172
864.823	14008
864.954	14065
865.086	13932
865.217	13932
865.349	13944
865.48	13959
865.612	14020
865.743	14107
865.875	14020
866.006	13932
866.137	13928
866.269	13932
866.4	13974
866.531	13974
866.662	13925
866.793	13974
866.924	13925
867.055	14062
867.186	13955
867.317	13970
867.448	13898
867.579	13883
867.71	13944
867.841	13875
867.972	14005
868.103	13978
868.233	13955
868.364	13932
868.495	14043
868.625	14191
868.756	14278
868.886	14153
869.017	14100
869.147	14374
869.278	14370
869.408	14195
869.539	14176
869.669	14275
869.799	14145
869.929	14351
870.06	14290
870.19	14556
870.32	14473
870.45	14541
870.58	14617
870.71	14724
870.84	14743
870.97	14625
871.1	14613
871.23	14769
871.36	14838
871.489	14651
871.619	14716
871.749	14864
871.879	14876
872.008	14956
872.138	14849
872.267	14857
872.397	14674
872.526	14648
872.656	14617
872.785	14644
872.915	14868
873.044	14948
873.173	14826
873.303	14929
873.432	14902
873.561	14891
873.69	14887
873.819	14842
873.948	14967
874.077	14834
874.206	14823
874.335	14899
874.464	15013
874.593	15104
874.722	15047
874.851	15332
874.979	15184
875.108	15173
875.237	15047
875.365	15055
875.494	15233
875.623	15233
875.751	15077
875.88	15211
876.008	15370
876.136	15450
876.265	15580
876.393	15800
876.521	15652
876.65	15759
876.778	15633
876.906	15614
877.034	15424
877.162	15599
877.29	15545
877.418	15534
877.546	15534
877.674	15580
877.802	15530
877.93	15564
878.058	15576
878.185	15435
878.313	15652
878.441	15564
878.568	15355
878.696	15485
878.824	15564
878.951	15660
879.079	15819
879.206	15964
879.333	15823
879.461	15698
879.588	15705
879.715	15842
879.842	15876
879.97	15747
880.097	15500
880.224	15412
880.351	15504
880.478	15572
880.605	15481
880.732	15401
880.859	15667
880.986	15492
881.112	15469
881.239	15393
881.366	15233
881.493	15222
881.619	15062
881.746	15150
881.872	15047
881.999	15093
882.125	15100
882.252	15146
882.378	15047
882.505	15317
882.631	15150
882.757	15062
882.883	15047
883.01	14956
883.136	14921
883.262	14750
883.388	14743
883.514	14906
883.64	15028
883.766	14967
883.892	14773
884.018	14800
884.143	14853
884.269	15028
884.395	14811
884.52	14670
884.646	14648
884.772	14587
884.897	14495
885.023	14705
885.148	14804
885.274	14804
885.399	14781
885.524	14727
885.65	14644
885.775	14686
885.9	14613
886.025	14758
886.15	14689
886.275	14693
886.4	14602
886.525	14537
886.65	14590
886.775	14499
886.9	14724
887.025	14941
887.149	14648
887.274	14522
887.399	14438
887.523	14431
887.648	14419
887.773	14362
887.897	14564
888.021	14549
888.146	14560
888.27	14606
888.395	14518
888.519	14423
888.643	14465
888.767	14556
888.891	14374
889.015	14404
889.139	14431
889.263	14366
889.387	14423
889.511	14556
889.635	14465
889.759	14259
889.883	14324
890.006	14347
890.13	14469
890.254	14244
890.377	14282
890.501	14187
890.624	14107
890.748	14259
890.871	14164
890.995	13997
891.118	14031
891.241	14024
891.364	14008
891.488	14153
891.611	14081
891.734	13993
891.857	14111
891.98	14111
892.103	14237
892.226	14054
892.349	14123
892.471	13925
892.594	13963
892.717	14054
892.839	14005
892.962	14050
893.085	14153
893.207	14035
893.33	13978
893.452	14027
893.575	14119
893.697	13944
893.819	14134
893.941	14111
894.064	14237
894.186	14035
894.308	13970
894.43	14142
894.552	14191
894.674	14161
894.796	14016
894.918	14054
895.04	13997
895.161	14199
895.283	14233
895.405	14062
895.526	14225
895.648	14157
895.769	14214
895.891	14180
896.012	14324
896.134	14183
896.255	14206
896.376	14115
896.498	14168
896.619	14320
896.74	14244
896.861	14332
896.982	14636
897.103	14689
897.224	14484
897.345	14457
897.466	14427
897.587	14377
897.708	14587
897.828	14533
897.949	14530
898.07	14488
898.19	14575
898.311	14644
898.431	14484
898.552	14560
898.672	14640
898.792	14632
898.913	14636
899.033	14495
899.153	14404
899.273	14358
899.393	14358
899.513	14438
899.633	14423
899.753	14480
899.873	14358
899.993	14431
900.113	14457
900.232	14530
900.352	14457
900.472	14358
900.591	14343
900.711	14339
900.83	14267
900.95	14415
901.069	14396
901.189	14294
901.308	14035
901.427	13921
901.546	14088
901.665	13940
901.784	14046
901.904	13852
902.023	13784
902.141	13559
902.26	13487
902.379	13597
902.498	13468
902.617	13567
902.735	13571
902.854	13563
902.973	13563
903.091	13240
903.21	13225
903.328	13244
903.446	13232
903.565	13156
903.683	13160
903.801	13034
903.919	13057
904.038	13099
904.156	12951
904.274	13019
904.392	12932
904.51	12795
904.627	12890
904.745	12905
904.863	13053
904.981	12776
905.098	12582
905.216	12506
905.334	12688
905.451	12570
905.569	12593
905.686	12673
905.803	12563
905.921	12494
906.038	12471
906.155	12467
906.272	12239
906.389	12433
906.506	12171
906.623	12251
906.74	12220
906.857	12148
906.974	12110
907.091	12338
907.208	12410
907.324	12262
907.441	12144
907.557	12057
907.674	11984
907.79	11889
907.907	11897
908.023	11901
908.139	11927
908.256	11954
908.372	11824
908.488	11874
908.604	11771
908.72	11668
908.836	11737
908.952	11707
909.068	11786
909.184	11798
909.3	11657
909.415	11821
909.531	11764
909.647	11509
909.762	11425
909.878	11459
909.993	11524
910.108	11520
910.224	11493
910.339	11581
910.454	11341
910.57	11410
910.685	11242
910.8	11543
910.915	11547
911.03	11280
911.145	11227
911.259	11220
911.374	11212
911.489	11113
911.604	11052
911.718	10930
911.833	11010
911.947	10812
912.062	10839
912.176	10911
912.291	10972
912.405	10911
912.519	11052
912.633	11223
912.748	10976
912.862	10885
912.976	10839
913.09	10729
913.204	10759
913.318	10736
913.431	10915
913.545	10923
913.659	10850
913.772	10797
913.886	10714
914	10733
914.113	10744
914.226	10816
914.34	10782
914.453	10660
914.566	10736
914.68	10622
914.793	10542
914.906	10443
915.019	10493
915.132	10329
915.245	10481
915.358	10398
915.47	10497
915.583	10386
915.696	10474
915.809	10546
915.921	10565
916.034	10459
916.146	10382
916.259	10394
916.371	10485
916.483	10455
916.595	10413
916.708	10405
916.82	10424
916.932	10367
917.044	10394
917.156	10337
917.268	10234
917.38	10333
917.491	10272
917.603	10303
917.715	10386
917.826	10386
917.938	10211
918.049	10116
918.161	10242
918.272	10402
918.384	10405
918.495	10306
918.606	10169
918.717	10109
918.828	10196
918.939	10204
919.05	10048
919.161	10192
919.272	9888
919.383	9956
919.494	10211
919.604	10367
919.715	10173
919.826	10181
919.936	10044
920.047	10337
920.157	10268
920.267	10371
920.378	10287
920.488	10147
920.598	10421
920.708	10569
920.818	10341
920.928	10367
921.038	10569
921.148	10527
921.258	10166
921.368	10207
921.477	10013
921.587	10112
921.697	9979
921.806	10116
921.916	9979
922.025	9724
922.134	9766
922.244	9686
922.353	9827
922.462	9599
922.571	9572
922.68	9424
922.789	9431
922.898	9469
923.007	9454
923.116	9504
923.224	9397
923.333	9370
923.442	9363
923.55	9283
923.659	9416
923.767	9298
923.876	9310
923.984	9363
924.092	9275
924.201	9355
924.309	9336
924.417	9359
924.525	9306
924.633	9279
924.741	10211
924.849	9051
924.956	9264
925.064	9085
925.172	9093
925.279	9058
925.387	9024
925.494	9104
925.602	9176
925.709	9169
925.816	9104
925.924	9051
926.031	9100
926.138	9077
926.245	9203
926.352	9036
926.459	9123
926.566	9176
926.673	9051
926.779	8971
926.886	8963
926.993	8788
927.099	8834
927.206	8853
927.312	8735
927.419	8868
927.525	8815
927.631	8891
927.737	8746
927.843	8689
927.95	8689
928.056	8667
928.162	8731
928.267	8796
928.373	9329
928.479	8735
928.585	8606
928.69	8766
928.796	8648
928.901	8655
929.007	8446
929.112	8564
929.218	8610
929.323	8564
929.428	8533
929.533	8674
929.638	8434
929.743	8514
929.848	8568
929.953	8511
930.058	8469
930.163	8252
930.267	8343
930.372	8461
930.477	8256
930.581	8522
930.685	8347
930.79	8229
930.894	8263
930.998	8244
931.103	8404
931.207	8012
931.311	7967
931.415	7928
931.519	7780
931.623	7814
