Data from test_V78500241_2520.txt Node
Date: Fri Mar 25 14:51:15 CST 2022
User: usil
Spectrometer: V785-0024
Trigger mode: 0
Integration Time (sec): 4.000000E-1
Scans to average: 1
Nonlinearity correction enabled: false
Boxcar width: 0
Storing dark spectrum: false
XAxis mode: Wavelengths
Number of Pixels in Spectrum: 1024
>>>>>Begin Spectral Data<<<<<
801.071	22086
801.214	21888
801.356	21663
801.499	21610
801.641	21511
801.783	21378
801.926	21576
802.068	21363
802.211	21313
802.353	21260
802.496	21047
802.638	20910
802.78	20876
802.923	20941
803.065	20613
803.208	20682
803.35	20830
803.492	20910
803.635	20880
803.777	20773
803.919	20941
804.061	21100
804.204	20781
804.346	20876
804.488	20571
804.63	20830
804.773	20758
804.915	20636
805.057	20845
805.199	20670
805.341	20716
805.483	20815
805.626	20830
805.768	20644
805.91	20693
806.052	20697
806.194	20575
806.336	20823
806.478	20705
806.62	20583
806.762	20781
806.904	20826
807.046	21116
807.188	21036
807.33	21074
807.472	21119
807.614	20929
807.756	20849
807.898	20777
808.04	20682
808.182	20697
808.324	20792
808.465	20872
808.607	20876
808.749	20975
808.891	21146
809.033	21154
809.174	21123
809.316	20868
809.458	21043
809.6	20902
809.741	21100
809.883	20982
810.025	21104
810.166	21241
810.308	21192
810.45	21249
810.591	20998
810.733	20994
810.875	20750
811.016	20762
811.158	20804
811.299	20952
811.441	20941
811.582	20998
811.724	20826
811.865	20765
812.007	20667
812.148	20796
812.29	20750
812.431	21001
812.573	21138
812.714	21154
812.855	21268
812.997	21374
813.138	21572
813.279	21447
813.421	21230
813.562	21214
813.703	21055
813.845	20971
813.986	20636
814.127	20419
814.268	20400
814.41	20377
814.551	20343
814.692	20461
814.833	20393
814.974	20237
815.115	20324
815.256	20225
815.397	20218
815.539	20286
815.68	20016
815.821	19997
815.962	20046
816.103	20077
816.244	19936
816.385	19826
816.526	19814
816.666	19708
816.807	19506
816.948	19556
817.089	19628
817.23	19548
817.371	19540
817.512	19487
817.653	19559
817.793	19350
817.934	19449
818.075	19567
818.216	19552
818.356	19407
818.497	19396
818.638	19160
818.778	19198
818.919	19164
819.06	19137
819.2	19373
819.341	19327
819.481	19362
819.622	19662
819.762	19715
819.903	19689
820.043	19529
820.184	19499
820.324	19480
820.465	19586
820.605	19487
820.746	19510
820.886	19293
821.026	19453
821.167	19502
821.307	19537
821.447	19434
821.588	19202
821.728	19183
821.868	19031
822.008	18848
822.149	18844
822.289	18867
822.429	18642
822.569	18597
822.709	18517
822.849	18338
822.99	18323
823.13	18338
823.27	18380
823.41	18197
823.55	18140
823.69	18159
823.83	18216
823.97	18022
824.11	17874
824.25	17996
824.389	17870
824.529	18003
824.669	17927
824.809	18030
824.949	18015
825.089	17977
825.228	17942
825.368	17752
825.508	17775
825.648	17710
825.787	17703
825.927	17832
826.067	17668
826.206	17684
826.346	17733
826.485	17680
826.625	17714
826.765	17813
826.904	17783
827.044	17417
827.183	17482
827.323	17429
827.462	17478
827.601	17436
827.741	17417
827.88	17364
828.02	17269
828.159	17364
828.298	17334
828.437	17463
828.577	17440
828.716	17440
828.855	17376
828.994	17060
829.134	17216
829.273	17155
829.412	17102
829.551	17090
829.69	17083
829.829	17208
829.968	17235
830.107	17277
830.246	17200
830.385	17128
830.524	17041
830.663	17121
830.802	16946
830.941	16786
831.08	16767
831.219	16934
831.357	16927
831.496	17067
831.635	16664
831.774	16805
831.913	16759
832.051	16565
832.19	16546
832.329	16630
832.467	16508
832.606	16504
832.744	16417
832.883	16402
833.022	16394
833.16	16451
833.299	16504
833.437	16455
833.576	16481
833.714	16440
833.852	16523
833.991	16565
834.129	16577
834.267	16672
834.406	16466
834.544	16573
834.682	16630
834.821	16466
834.959	16733
835.097	16550
835.235	16664
835.373	16554
835.511	16535
835.65	16451
835.788	16386
835.926	16367
836.064	16238
836.202	16329
836.34	16409
836.478	16508
836.615	16436
836.753	16451
836.891	16569
837.029	16405
837.167	16432
837.305	16504
837.443	16390
837.58	16211
837.718	16333
837.856	16295
837.993	16249
838.131	16287
838.269	16272
838.406	16367
838.544	16154
838.681	15911
838.819	16029
838.956	15907
839.094	15823
839.231	16006
839.369	16059
839.506	16257
839.643	16158
839.781	15926
839.918	15831
840.055	15979
840.193	15816
840.33	15937
840.467	15846
840.604	15926
840.742	16120
840.879	15743
841.016	15873
841.153	15732
841.29	15956
841.427	15899
841.564	15941
841.701	15903
841.838	15793
841.975	15717
842.112	15804
842.249	15705
842.385	15553
842.522	15876
842.659	15686
842.796	15686
842.933	15606
843.069	15523
843.206	15545
843.343	15755
843.479	15622
843.616	15732
843.752	15477
843.889	15420
844.025	15572
844.162	15428
844.298	15500
844.435	15469
844.571	15450
844.708	15500
844.844	15675
844.98	15561
845.117	15538
845.253	15359
845.389	15351
845.525	15363
845.661	15294
845.798	15230
845.934	15317
846.07	15165
846.206	15195
846.342	15447
846.478	15222
846.614	15032
846.75	14921
846.886	14994
847.022	15127
847.158	15039
847.294	14956
847.429	15024
847.565	15013
847.701	15218
847.837	14785
847.972	14590
848.108	14838
848.244	14769
848.379	14655
848.515	14610
848.65	14556
848.786	14583
848.921	14621
849.057	14716
849.192	14735
849.328	14617
849.463	14621
849.598	14518
849.734	14549
849.869	14522
850.004	14454
850.14	14408
850.275	14450
850.41	14332
850.545	14461
850.68	14313
850.815	14415
850.95	14366
851.085	14594
851.22	14457
851.355	14355
851.49	14328
851.625	14290
851.76	14377
851.895	14355
852.03	14263
852.165	14438
852.299	14320
852.434	14438
852.569	14415
852.703	14412
852.838	14423
852.973	14526
853.107	14461
853.242	14336
853.376	14339
853.511	14073
853.645	14157
853.78	14385
853.914	14221
854.048	14221
854.183	14202
854.317	14149
854.451	14431
854.585	14176
854.72	14229
854.854	14256
854.988	14138
855.122	14275
855.256	14111
855.39	14168
855.524	14275
855.658	14328
855.792	14351
855.926	14305
856.06	14248
856.194	14294
856.327	14259
856.461	14138
856.595	14164
856.729	14301
856.862	14332
856.996	14248
857.13	14343
857.263	14377
857.397	14469
857.53	14176
857.664	14332
857.797	14381
857.931	14415
858.064	14248
858.197	14396
858.331	14187
858.464	14195
858.597	14123
858.731	14123
858.864	14225
858.997	14244
859.13	14195
859.263	14202
859.396	14313
859.529	14214
859.662	14138
859.795	14191
859.928	14328
860.061	14476
860.194	14347
860.327	14317
860.46	14244
860.592	14290
860.725	14328
860.858	14366
860.99	14229
861.123	14256
861.256	14229
861.388	14191
861.521	14819
861.653	14039
861.786	14126
861.918	14073
862.05	14218
862.183	14164
862.315	14218
862.447	14298
862.58	14202
862.712	14058
862.844	14046
862.976	14081
863.108	14012
863.24	14381
863.372	13989
863.504	13974
863.636	13993
863.768	14153
863.9	14020
864.032	13909
864.164	13967
864.296	14168
864.428	14138
864.559	14130
864.691	14130
864.823	14111
864.954	13989
865.086	14084
865.217	13978
865.349	13936
865.48	14027
865.612	14043
865.743	14145
865.875	14008
866.006	14024
866.137	13928
866.269	13978
866.4	13963
866.531	13974
866.662	13921
866.793	14016
866.924	14046
867.055	14084
867.186	14027
867.317	13955
867.448	13928
867.579	13974
867.71	13883
867.841	13978
867.972	13989
868.103	13974
868.233	14062
868.364	13997
868.495	14024
868.625	14267
868.756	14309
868.886	14062
869.017	14206
869.147	14290
869.278	14385
869.408	14332
869.539	14214
869.669	14332
869.799	14298
869.929	14336
870.06	14358
870.19	14598
870.32	14537
870.45	14648
870.58	14629
870.71	14781
870.84	14743
870.97	14655
871.1	14655
871.23	14853
871.36	14937
871.489	14708
871.619	14788
871.749	14872
871.879	14861
872.008	14902
872.138	14876
872.267	14933
872.397	14750
872.526	14743
872.656	14674
872.785	14560
872.915	14948
873.044	14963
873.173	14845
873.303	15047
873.432	14944
873.561	14929
873.69	14944
873.819	14910
873.948	14906
874.077	14921
874.206	14906
874.335	14891
874.464	14990
874.593	15241
874.722	15173
874.851	15317
874.979	15108
875.108	15237
875.237	15154
875.365	15211
875.494	15131
875.623	15325
875.751	15150
875.88	15169
876.008	15401
876.136	15306
876.265	15663
876.393	15781
876.521	15720
876.65	15717
876.778	15644
876.906	15629
877.034	15622
877.162	15641
877.29	15545
877.418	15633
877.546	15591
877.674	15584
877.802	15641
877.93	15625
878.058	15644
878.185	15477
878.313	15614
878.441	15553
878.568	15561
878.696	15656
878.824	15694
878.951	15720
879.079	15747
879.206	16006
879.333	15808
879.461	15671
879.588	15789
879.715	15869
879.842	15759
879.97	15625
880.097	15420
880.224	15454
880.351	15500
880.478	15538
880.605	15389
880.732	15500
880.859	15759
880.986	15553
881.112	15553
881.239	15393
881.366	15287
881.493	15260
881.619	15146
881.746	15195
881.872	15226
881.999	15032
882.125	15077
882.252	15165
882.378	15169
882.505	15321
882.631	15036
882.757	14921
882.883	15062
883.01	14910
883.136	14918
883.262	14823
883.388	14845
883.514	14929
883.64	15001
883.766	14906
883.892	14804
884.018	14807
884.143	14864
884.269	15013
884.395	14796
884.52	14640
884.646	14610
884.772	14644
884.897	14522
885.023	14617
885.148	14705
885.274	14807
885.399	14758
885.524	14720
885.65	14769
885.775	14640
885.9	14674
886.025	14769
886.15	14785
886.275	14632
886.4	14522
886.525	14682
886.65	14583
886.775	14644
886.9	14826
887.025	14773
887.149	14708
887.274	14495
887.399	14396
887.523	14408
887.648	14438
887.773	14381
887.897	14625
888.021	14598
888.146	14431
888.27	14533
888.395	14625
888.519	14469
888.643	14469
888.767	14480
888.891	14442
889.015	14396
889.139	14412
889.263	14309
889.387	14442
889.511	14621
889.635	14511
889.759	14389
889.883	14328
890.006	14332
890.13	14495
890.254	14263
890.377	14248
890.501	14229
890.624	14096
890.748	14233
890.871	14164
890.995	14050
891.118	14016
891.241	14027
891.364	14062
891.488	14138
891.611	14031
891.734	13989
891.857	14046
891.98	14096
892.103	14119
892.226	14149
892.349	14096
892.471	13936
892.594	14069
892.717	14126
892.839	14050
892.962	14031
893.085	14180
893.207	14046
893.33	13967
893.452	13986
893.575	14225
893.697	14039
893.819	14187
893.941	14286
894.064	14278
894.186	14088
894.308	14054
894.43	14054
894.552	14187
894.674	14161
894.796	14054
894.918	14134
895.04	14065
895.161	14233
895.283	14119
895.405	14035
895.526	14229
895.648	14180
895.769	14199
895.891	14214
896.012	14202
896.134	14218
896.255	14187
896.376	14210
896.498	14225
896.619	14195
896.74	14282
896.861	14362
896.982	14674
897.103	14735
897.224	14507
897.345	14530
897.466	14400
897.587	14476
897.708	14564
897.828	14454
897.949	14495
898.07	14400
898.19	14484
898.311	14705
898.431	14530
898.552	14530
898.672	14678
898.792	14670
898.913	14705
899.033	14484
899.153	14461
899.273	14336
899.393	14358
899.513	14442
899.633	14434
899.753	14480
899.873	14355
899.993	14358
900.113	14351
900.232	14434
900.352	14404
900.472	14381
900.591	14221
900.711	14339
900.83	14294
900.95	14366
901.069	14427
901.189	14191
901.308	14024
901.427	13997
901.546	13997
901.665	13852
901.784	13913
901.904	13879
902.023	13784
902.141	13544
902.26	13559
902.379	13685
902.498	13605
902.617	13487
902.735	13544
902.854	13518
902.973	13495
903.091	13236
903.21	13209
903.328	13331
903.446	13209
903.565	13194
903.683	13221
903.801	12977
903.919	13103
904.038	13023
904.156	12981
904.274	12954
904.392	12882
904.51	12886
904.627	12962
904.745	13015
904.863	13038
904.981	12806
905.098	12570
905.216	12684
905.334	12707
905.451	12696
905.569	12555
905.686	12623
905.803	12650
905.921	12490
906.038	12582
906.155	12547
906.272	12433
906.389	12464
906.506	12254
906.623	12273
906.74	12228
906.857	12091
906.974	12098
907.091	12304
907.208	12365
907.324	12163
907.441	12182
907.557	11984
907.674	11965
907.79	11931
907.907	11954
908.023	11977
908.139	11893
908.256	11931
908.372	11859
908.488	11863
908.604	11775
908.72	11653
908.836	11619
908.952	11672
909.068	11665
909.184	11771
909.3	11703
909.415	11756
909.531	11737
909.647	11459
909.762	11634
909.878	11478
909.993	11474
910.108	11520
910.224	11379
910.339	11471
910.454	11452
910.57	11364
910.685	11254
910.8	11615
910.915	11528
911.03	11391
911.145	11265
911.259	11185
911.374	11261
911.489	11060
911.604	11113
911.718	10953
911.833	10995
911.947	10961
912.062	10801
912.176	10877
912.291	10949
912.405	10976
912.519	11098
912.633	11155
912.748	10995
912.862	10934
912.976	10843
913.09	10702
913.204	10725
913.318	10869
913.431	10965
913.545	10896
913.659	10972
913.772	10812
913.886	10839
914	10778
914.113	10839
914.226	10919
914.34	10771
914.453	10569
914.566	10736
914.68	10672
914.793	10759
914.906	10504
915.019	10516
915.132	10443
915.245	10497
915.358	10432
915.47	10558
915.583	10470
915.696	10546
915.809	10565
915.921	10497
916.034	10417
916.146	10360
916.259	10432
916.371	10527
916.483	10500
916.595	10440
916.708	10382
916.82	10382
916.932	10371
917.044	10344
917.156	10329
917.268	10295
917.38	10196
917.491	10291
917.603	10394
917.715	10455
917.826	10409
917.938	10417
918.049	10128
918.161	10268
918.272	10405
918.384	10402
918.495	10329
918.606	10139
918.717	10147
918.828	10192
918.939	10253
919.05	10109
919.161	10131
919.272	10021
919.383	9991
919.494	10204
919.604	10459
919.715	10154
919.826	10067
919.936	10227
920.047	10348
920.157	10192
920.267	10371
920.378	10261
920.488	10192
920.598	10386
920.708	10512
920.818	10363
920.928	10333
921.038	10474
921.148	10550
921.258	10310
921.368	10112
921.477	10032
921.587	10021
921.697	9960
921.806	10044
921.916	9983
922.025	9747
922.134	9759
922.244	9728
922.353	9850
922.462	9572
922.571	9629
922.68	9370
922.789	9435
922.898	9473
923.007	9431
923.116	9507
923.224	9420
923.333	9496
923.442	9279
923.55	9272
923.659	9367
923.767	9367
923.876	9355
923.984	9332
924.092	9302
924.201	9344
924.309	9325
924.417	9336
924.525	9199
924.633	9275
924.741	10177
924.849	9081
924.956	9180
925.064	9108
925.172	8986
925.279	9024
925.387	9138
925.494	9142
925.602	9313
925.709	9218
925.816	9062
925.924	9085
926.031	9207
926.138	9135
926.245	9199
926.352	9058
926.459	9161
926.566	9150
926.673	9085
926.779	9028
926.886	8921
926.993	8853
927.099	8788
927.206	8720
927.312	8720
927.419	8910
927.525	8708
927.631	8826
927.737	8724
927.843	8678
927.95	8613
928.056	8697
928.162	8720
928.267	8720
928.373	9370
928.479	8842
928.585	8575
928.69	8705
928.796	8743
928.901	8670
929.007	8533
929.112	8594
929.218	8625
929.323	8541
929.428	8541
929.533	8678
929.638	8476
929.743	8507
929.848	8560
929.953	8499
930.058	8374
930.163	8343
930.267	8263
930.372	8457
930.477	8301
930.581	8594
930.685	8404
930.79	8202
930.894	8229
930.998	8202
931.103	8347
931.207	8046
931.311	8012
931.415	7944
931.519	7761
931.623	7769
