Data from test_V78500241_186.txt Node
Date: Fri Mar 25 14:35:01 CST 2022
User: usil
Spectrometer: V785-0024
Trigger mode: 0
Integration Time (sec): 4.000000E-1
Scans to average: 1
Nonlinearity correction enabled: false
Boxcar width: 0
Storing dark spectrum: false
XAxis mode: Wavelengths
Number of Pixels in Spectrum: 1024
>>>>>Begin Spectral Data<<<<<
801.071	28268
801.214	28234
801.356	28059
801.499	27987
801.641	27800
801.783	27812
801.926	27816
802.068	27755
802.211	27648
802.353	27671
802.496	27405
802.638	27500
802.78	27401
802.923	27351
803.065	27291
803.208	27374
803.35	27367
803.492	27439
803.635	27496
803.777	27492
803.919	27492
804.061	27736
804.204	27507
804.346	27340
804.488	27378
804.63	27283
804.773	27462
804.915	27469
805.057	27485
805.199	27382
805.341	27492
805.483	27431
805.626	27500
805.768	27416
805.91	27424
806.052	27504
806.194	27332
806.336	27625
806.478	27682
806.62	27386
806.762	27595
806.904	27804
807.046	28025
807.188	27998
807.33	28013
807.472	28006
807.614	27998
807.756	28173
807.898	28120
808.04	27953
808.182	28272
808.324	28314
808.465	28622
808.607	28927
808.749	29132
808.891	29330
809.033	29421
809.174	29174
809.316	29029
809.458	28831
809.6	28778
809.741	28538
809.883	28588
810.025	28580
810.166	28440
810.308	28478
810.45	28207
810.591	28287
810.733	28154
810.875	28010
811.016	28010
811.158	27720
811.299	27968
811.441	28093
811.582	27994
811.724	27949
811.865	27892
812.007	27861
812.148	27835
812.29	27812
812.431	28093
812.573	28124
812.714	28242
812.855	28249
812.997	28436
813.138	28565
813.279	28360
813.421	28181
813.562	28310
813.703	28082
813.845	28055
813.986	27709
814.127	27557
814.268	27515
814.41	27466
814.551	27363
814.692	27466
814.833	27355
814.974	27370
815.115	27317
815.256	27165
815.397	27230
815.539	27169
815.68	27245
815.821	27024
815.962	27180
816.103	27047
816.244	26910
816.385	26952
816.526	26807
816.666	26560
816.807	26533
816.948	26613
817.089	26682
817.23	26648
817.371	26556
817.512	26511
817.653	26530
817.793	26400
817.934	26453
818.075	26469
818.216	26621
818.356	26366
818.497	26358
818.638	26221
818.778	26134
818.919	26339
819.06	26252
819.2	26351
819.341	26431
819.481	26446
819.622	26480
819.762	26708
819.903	26629
820.043	26568
820.184	26499
820.324	26419
820.465	26590
820.605	26492
820.746	26537
820.886	26301
821.026	26374
821.167	26290
821.307	26499
821.447	26355
821.588	26278
821.728	26088
821.868	25883
822.008	25803
822.149	25799
822.289	25769
822.429	25590
822.569	25518
822.709	25438
822.849	25289
822.99	25369
823.13	25175
823.27	25232
823.41	25008
823.55	24992
823.69	25122
823.83	25031
823.97	25038
824.11	24707
824.25	25012
824.389	24829
824.529	24757
824.669	24844
824.809	24829
824.949	24943
825.089	24913
825.228	24821
825.368	24631
825.508	24673
825.648	24658
825.787	24688
825.927	24654
826.067	24521
826.206	24483
826.346	24715
826.485	24684
826.625	24551
826.765	24791
826.904	24601
827.044	24414
827.183	24251
827.323	24338
827.462	24357
827.601	24228
827.741	24254
827.88	24266
828.02	24182
828.159	24144
828.298	24266
828.437	24308
828.577	24262
828.716	24258
828.855	24194
828.994	23851
829.134	24083
829.273	24011
829.412	23870
829.551	23878
829.69	23783
829.829	23901
829.968	23939
830.107	23935
830.246	24064
830.385	23703
830.524	23859
830.663	23813
830.802	23722
830.941	23554
831.08	23429
831.219	23634
831.357	23630
831.496	23836
831.635	23551
831.774	23501
831.913	23379
832.051	23296
832.19	23258
832.329	23246
832.467	23235
832.606	23174
832.744	23090
832.883	23246
833.022	23166
833.16	23178
833.299	23151
833.437	23140
833.576	23235
833.714	23258
833.852	23181
833.991	23417
834.129	23433
834.267	23410
834.406	23227
834.544	23189
834.682	23212
834.821	23056
834.959	23459
835.097	23174
835.235	23277
835.373	23223
835.511	23140
835.65	23041
835.788	23216
835.926	22755
836.064	22862
836.202	22904
836.34	23033
836.478	23079
836.615	22934
836.753	22987
836.891	22999
837.029	22881
837.167	22904
837.305	22927
837.443	22896
837.58	22778
837.718	22877
837.856	22904
837.993	22744
838.131	22812
838.269	22630
838.406	22733
838.544	22672
838.681	22561
838.819	22409
838.956	22249
839.094	22158
839.231	22253
839.369	22405
839.506	22493
839.643	22329
839.781	22211
839.918	22207
840.055	22086
840.193	22246
840.33	22109
840.467	22120
840.604	22101
840.742	22440
840.879	21994
841.016	22112
841.153	22116
841.29	22325
841.427	22188
841.564	22082
841.701	22063
841.838	21945
841.975	21945
842.112	22078
842.249	21911
842.385	21922
842.522	22082
842.659	21895
842.796	21842
842.933	21724
843.069	21835
843.206	21663
843.343	21865
843.479	21785
843.616	21743
843.752	21576
843.889	21557
844.025	21838
844.162	21553
844.298	21633
844.435	21561
844.571	21477
844.708	21663
844.844	21812
844.98	21789
845.117	21861
845.253	21587
845.389	21789
845.525	21979
845.661	22177
845.798	22489
845.934	23098
846.07	23029
846.206	22961
846.342	22809
846.478	22268
846.614	21766
846.75	21431
846.886	21203
847.022	21287
847.158	21233
847.294	21135
847.429	21077
847.565	21112
847.701	21256
847.837	20807
847.972	20788
848.108	20773
848.244	20792
848.379	20644
848.515	20667
848.65	20625
848.786	20587
848.921	20568
849.057	20632
849.192	20636
849.328	20545
849.463	20549
849.598	20408
849.734	20484
849.869	20400
850.004	20351
850.14	20393
850.275	20278
850.41	20290
850.545	20237
850.68	20362
850.815	20336
850.95	20309
851.085	20427
851.22	20355
851.355	20339
851.49	20320
851.625	20275
851.76	20187
851.895	20153
852.03	20252
852.165	20187
852.299	20370
852.434	20309
852.569	20290
852.703	20324
852.838	20317
852.973	20389
853.107	20374
853.242	20214
853.376	20195
853.511	20065
853.645	20065
853.78	20267
853.914	20084
854.048	20035
854.183	20088
854.317	20115
854.451	20195
854.585	20016
854.72	20081
854.854	20214
854.988	20020
855.122	20073
855.256	19845
855.39	19967
855.524	20278
855.658	20119
855.792	20039
855.926	19955
856.06	20035
856.194	20153
856.327	20130
856.461	20039
856.595	20084
856.729	20058
856.862	20168
856.996	20122
857.13	20126
857.263	20195
857.397	20252
857.53	20153
857.664	20145
857.797	20046
857.931	20130
858.064	20122
858.197	20122
858.331	20046
858.464	20001
858.597	19963
858.731	19963
858.864	19936
858.997	19974
859.13	20039
859.263	20050
859.396	20191
859.529	20031
859.662	20043
859.795	19944
859.928	20092
860.061	20248
860.194	20088
860.327	20050
860.46	20001
860.592	20157
860.725	20134
860.858	20081
860.99	19970
861.123	19894
861.256	20043
861.388	20008
861.521	20606
861.653	19849
861.786	19955
861.918	19849
862.05	19936
862.183	20100
862.315	19986
862.447	20122
862.58	19925
862.712	19708
862.844	19742
862.976	19837
863.108	19837
863.24	20058
863.372	19662
863.504	19712
863.636	19795
863.768	19696
863.9	19757
864.032	19578
864.164	19647
864.296	19685
864.428	19780
864.559	19715
864.691	19708
864.823	19712
864.954	19655
865.086	19727
865.217	19651
865.349	19468
865.48	19639
865.612	19590
865.743	19681
865.875	19559
866.006	19647
866.137	19723
866.269	19651
866.4	19586
866.531	19548
866.662	19468
866.793	19552
866.924	19647
867.055	19510
867.186	19533
867.317	19449
867.448	19510
867.579	19537
867.71	19537
867.841	19483
867.972	19597
868.103	19533
868.233	19445
868.364	19514
868.495	19647
868.625	19700
868.756	19887
868.886	19780
869.017	19746
869.147	19837
869.278	19906
869.408	19791
869.539	19742
869.669	19894
869.799	19738
869.929	20008
870.06	19811
870.19	20050
870.32	19879
870.45	20077
870.58	20103
870.71	20286
870.84	20275
870.97	20271
871.1	20157
871.23	20381
871.36	20427
871.489	20210
871.619	20434
871.749	20389
871.879	20339
872.008	20530
872.138	20248
872.267	20412
872.397	20313
872.526	20248
872.656	20240
872.785	20206
872.915	20404
873.044	20450
873.173	20336
873.303	20313
873.432	20412
873.561	20609
873.69	20480
873.819	20431
873.948	20457
874.077	20427
874.206	20427
874.335	20473
874.464	20476
874.593	20727
874.722	20568
874.851	20785
874.979	20773
875.108	20902
875.237	20651
875.365	20609
875.494	20830
875.623	20746
875.751	20590
875.88	20720
876.008	20994
876.136	20982
876.265	21070
876.393	21294
876.521	21127
876.65	21123
876.778	21157
876.906	21096
877.034	21100
877.162	21245
877.29	21077
877.418	21055
877.546	21093
877.674	21047
877.802	21104
877.93	21192
878.058	21146
878.185	21112
878.313	21241
878.441	21237
878.568	21077
878.696	21195
878.824	21302
878.951	21389
879.079	21675
879.206	21903
879.333	21880
879.461	21869
879.588	22017
879.715	22105
879.842	22177
879.97	21789
880.097	21458
880.224	21329
880.351	21279
880.478	21256
880.605	21218
880.732	21192
880.859	21355
880.986	21108
881.112	21123
881.239	20941
881.366	20906
881.493	20895
881.619	20720
881.746	20708
881.872	20716
881.999	20705
882.125	20689
882.252	20861
882.378	20727
882.505	20876
882.631	20750
882.757	20492
882.883	20552
883.01	20556
883.136	20473
883.262	20339
883.388	20309
883.514	20465
883.64	20503
883.766	20415
883.892	20313
884.018	20259
884.143	20404
884.269	20492
884.395	20256
884.52	20119
884.646	20191
884.772	20138
884.897	19936
885.023	20172
885.148	20183
885.274	20294
885.399	20142
885.524	20096
885.65	20069
885.775	20240
885.9	20065
886.025	20199
886.15	20153
886.275	20065
886.4	19917
886.525	19959
886.65	19921
886.775	19967
886.9	20115
887.025	20195
887.149	19967
887.274	19871
887.399	19799
887.523	19826
887.648	19780
887.773	19624
887.897	19769
888.021	19723
888.146	19643
888.27	19712
888.395	19883
888.519	19693
888.643	19803
888.767	19693
888.891	19559
889.015	19472
889.139	19578
889.263	19525
889.387	19643
889.511	19677
889.635	19491
889.759	19388
889.883	19457
890.006	19487
890.13	19605
890.254	19495
890.377	19487
890.501	19320
890.624	19183
890.748	19263
890.871	19152
890.995	19015
891.118	19046
891.241	19114
891.364	19095
891.488	19145
891.611	19133
891.734	19050
891.857	19206
891.98	19118
892.103	19012
892.226	19160
892.349	18973
892.471	18943
892.594	18935
892.717	19034
892.839	18848
892.962	18894
893.085	18954
893.207	18947
893.33	18886
893.452	18932
893.575	18920
893.697	18970
893.819	19053
893.941	19107
894.064	19084
894.186	18928
894.308	18840
894.43	18989
894.552	19084
894.674	19027
894.796	18825
894.918	18859
895.04	18924
895.161	19084
895.283	19042
895.405	18943
895.526	18966
895.648	18871
895.769	19023
895.891	18993
896.012	19034
896.134	18947
896.255	19050
896.376	19000
896.498	19084
896.619	18981
896.74	18943
896.861	19069
896.982	19331
897.103	19400
897.224	19324
897.345	19198
897.466	19263
897.587	19152
897.708	19320
897.828	19221
897.949	19069
898.07	19046
898.19	19160
898.311	19304
898.431	19099
898.552	19160
898.672	19209
898.792	19247
898.913	19209
899.033	19031
899.153	19072
899.273	18825
899.393	18878
899.513	18806
899.633	19000
899.753	18901
899.873	18749
899.993	18859
900.113	18859
900.232	18920
900.352	18711
900.472	18932
900.591	18669
900.711	18791
900.83	18711
900.95	18913
901.069	18837
901.189	18654
901.308	18452
901.427	18311
901.546	18418
901.665	18357
901.784	18418
901.904	18186
902.023	18159
902.141	17954
902.26	17855
902.379	18030
902.498	17912
902.617	17817
902.735	17699
902.854	17859
902.973	17726
903.091	17570
903.21	17395
903.328	17566
903.446	17398
903.565	17345
903.683	17280
903.801	17246
903.919	17280
904.038	17284
904.156	17075
904.274	17113
904.392	17136
904.51	17124
904.627	16965
904.745	17086
904.863	17117
904.981	16858
905.098	16691
905.216	16736
905.334	16767
905.451	16744
905.569	16694
905.686	16816
905.803	16592
905.921	16554
906.038	16550
906.155	16561
906.272	16413
906.389	16443
906.506	16303
906.623	16276
906.74	16207
906.857	16128
906.974	16166
907.091	16424
907.208	16455
907.324	16322
907.441	16291
907.557	16063
907.674	15926
907.79	15926
907.907	16032
908.023	15991
908.139	15922
908.256	16010
908.372	15819
908.488	15903
908.604	15682
908.72	15614
908.836	15682
908.952	15648
909.068	15679
909.184	15751
909.3	15614
909.415	15679
909.531	15660
909.647	15420
909.762	15355
909.878	15374
909.993	15348
910.108	15298
910.224	15275
910.339	15332
910.454	15218
910.57	15154
910.685	15081
910.8	15336
910.915	15363
911.03	15146
911.145	15077
911.259	14933
911.374	15017
911.489	14918
911.604	14823
911.718	14754
911.833	14686
911.947	14659
912.062	14571
912.176	14773
912.291	14701
912.405	14739
912.519	14811
912.633	14838
912.748	14689
912.862	14708
912.976	14518
913.09	14450
913.204	14545
913.318	14507
913.431	14617
913.545	14613
913.659	14670
913.772	14484
913.886	14408
914	14301
914.113	14526
914.226	14427
914.34	14446
914.453	14290
914.566	14366
914.68	14248
914.793	14244
914.906	14103
915.019	13932
915.132	13909
915.245	13921
915.358	14043
915.47	13982
915.583	14027
915.696	13978
915.809	14092
915.921	14096
916.034	13940
916.146	13944
916.259	13967
916.371	14012
916.483	13944
916.595	13894
916.708	13925
916.82	13894
916.932	13845
917.044	13887
917.156	13753
917.268	13772
917.38	13609
917.491	13639
917.603	13738
917.715	13742
917.826	13723
917.938	13499
918.049	13548
918.161	13651
918.272	13753
918.384	13742
918.495	13601
918.606	13499
918.717	13460
918.828	13445
918.939	13544
919.05	13308
919.161	13403
919.272	13156
919.383	13312
919.494	13518
919.604	13666
919.715	13472
919.826	13419
919.936	13400
920.047	13453
920.157	13449
920.267	13696
920.378	13457
920.488	13381
920.598	13628
920.708	13681
920.818	13548
920.928	13571
921.038	13776
921.148	13605
921.258	13343
921.368	13324
921.477	13202
921.587	13133
921.697	13034
921.806	13244
921.916	13057
922.025	12837
922.134	12768
922.244	12677
922.353	12863
922.462	12711
922.571	12692
922.68	12536
922.789	12422
922.898	12391
923.007	12342
923.116	12498
923.224	12521
923.333	12365
923.442	12342
923.55	12232
923.659	12361
923.767	12395
923.876	12228
923.984	12384
924.092	12182
924.201	12239
924.309	12197
924.417	12232
924.525	12194
924.633	12117
924.741	13053
924.849	11996
924.956	12068
925.064	11950
925.172	11912
925.279	11961
925.387	11969
925.494	11870
925.602	12011
925.709	11885
925.816	11851
925.924	11874
926.031	12083
926.138	11893
926.245	11980
926.352	11840
926.459	11901
926.566	11893
926.673	11832
926.779	11714
926.886	11703
926.993	11532
927.099	11573
927.206	11474
927.312	11402
927.419	11573
927.525	11482
927.631	11573
927.737	11368
927.843	11364
927.95	11296
928.056	11376
928.162	11406
928.267	11448
928.373	11977
928.479	11497
928.585	11299
928.69	11360
928.796	11231
928.901	11178
929.007	11105
929.112	11178
929.218	11109
929.323	11132
929.428	11147
929.533	11231
929.638	11041
929.743	11109
929.848	11064
929.953	11109
930.058	10961
930.163	10828
930.267	10858
930.372	10980
930.477	10790
930.581	10984
930.685	10740
930.79	10744
930.894	10714
930.998	10717
931.103	10809
931.207	10390
931.311	10405
931.415	10291
931.519	10143
931.623	10090
