Data from test_V78500241_531.txt Node
Date: Fri Mar 25 14:37:25 CST 2022
User: usil
Spectrometer: V785-0024
Trigger mode: 0
Integration Time (sec): 4.000000E-1
Scans to average: 1
Nonlinearity correction enabled: false
Boxcar width: 0
Storing dark spectrum: false
XAxis mode: Wavelengths
Number of Pixels in Spectrum: 1024
>>>>>Begin Spectral Data<<<<<
801.071	27336
801.214	27161
801.356	27013
801.499	26910
801.641	26952
801.783	26552
801.926	26781
802.068	26621
802.211	26545
802.353	26587
802.496	26301
802.638	26320
802.78	26218
802.923	26218
803.065	26119
803.208	26115
803.35	26145
803.492	26278
803.635	26336
803.777	26298
803.919	26252
804.061	26499
804.204	26271
804.346	26176
804.488	26176
804.63	26180
804.773	26100
804.915	26278
805.057	26419
805.199	26332
805.341	26408
805.483	26526
805.626	26381
805.768	26366
805.91	26343
806.052	26434
806.194	26347
806.336	26663
806.478	26613
806.62	26537
806.762	26762
806.904	27081
807.046	27344
807.188	27378
807.33	27496
807.472	27705
807.614	27808
807.756	28173
807.898	28181
808.04	28649
808.182	29109
808.324	29961
808.465	30943
808.607	31700
808.749	32746
808.891	33233
809.033	33359
809.174	32720
809.316	31616
809.458	30829
809.6	29798
809.741	29288
809.883	28580
810.025	28440
810.166	28131
810.308	27793
810.45	27504
810.591	27412
810.733	27146
810.875	27089
811.016	26819
811.158	26891
811.299	26929
811.441	27032
811.582	26956
811.724	26857
811.865	26689
812.007	26693
812.148	26769
812.29	26659
812.431	26815
812.573	26975
812.714	26895
812.855	27051
812.997	27146
813.138	27264
813.279	27192
813.421	27089
813.562	27005
813.703	26796
813.845	26758
813.986	26351
814.127	26149
814.268	26031
814.41	25974
814.551	25921
814.692	26073
814.833	25890
814.974	25951
815.115	25951
815.256	25769
815.397	25795
815.539	25864
815.68	25780
815.821	25700
815.962	25658
816.103	25635
816.244	25670
816.385	25483
816.526	25415
816.666	25213
816.807	25164
816.948	25175
817.089	25247
817.23	25133
817.371	25152
817.512	25027
817.653	25050
817.793	24928
817.934	25034
818.075	25038
818.216	25019
818.356	24977
818.497	24776
818.638	24707
818.778	24867
818.919	24757
819.06	24798
819.2	24924
819.341	24848
819.481	24943
819.622	25137
819.762	25236
819.903	25126
820.043	24951
820.184	25175
820.324	24966
820.465	24939
820.605	24924
820.746	24947
820.886	24806
821.026	24970
821.167	24844
821.307	24913
821.447	24814
821.588	24779
821.728	24566
821.868	24410
822.008	24388
822.149	24228
822.289	24186
822.429	24022
822.569	23927
822.709	23828
822.849	23805
822.99	23634
823.13	23745
823.27	23680
823.41	23516
823.55	23425
823.69	23493
823.83	23539
823.97	23383
824.11	23330
824.25	23299
824.389	23269
824.529	23311
824.669	23246
824.809	23341
824.949	23307
825.089	23360
825.228	23288
825.368	23109
825.508	23033
825.648	22995
825.787	23140
825.927	23117
826.067	22953
826.206	23041
826.346	23083
826.485	23064
826.625	23010
826.765	23064
826.904	23079
827.044	22881
827.183	22771
827.323	22592
827.462	22755
827.601	22839
827.741	22656
827.88	22801
828.02	22436
828.159	22645
828.298	22679
828.437	22717
828.577	22656
828.716	22790
828.855	22637
828.994	22375
829.134	22531
829.273	22405
829.412	22413
829.551	22440
829.69	22447
829.829	22470
829.968	22337
830.107	22325
830.246	22329
830.385	22253
830.524	22337
830.663	22150
830.802	21941
830.941	21880
831.08	21880
831.219	21964
831.357	22128
831.496	22029
831.635	21972
831.774	21827
831.913	21812
832.051	21804
832.19	21884
832.329	21736
832.467	21606
832.606	21732
832.744	21648
832.883	21766
833.022	21682
833.16	21751
833.299	21880
833.437	21876
833.576	21945
833.714	21888
833.852	22021
833.991	21960
834.129	22055
834.267	22116
834.406	21945
834.544	21994
834.682	21892
834.821	21884
834.959	21994
835.097	21812
835.235	21850
835.373	21728
835.511	21797
835.65	21610
835.788	21587
835.926	21412
836.064	21321
836.202	21420
836.34	21595
836.478	21580
836.615	21454
836.753	21424
836.891	21504
837.029	21488
837.167	21439
837.305	21310
837.443	21344
837.58	21237
837.718	21481
837.856	21359
837.993	21218
838.131	21329
838.269	21188
838.406	21146
838.544	21104
838.681	20933
838.819	20906
838.956	20781
839.094	20861
839.231	20823
839.369	20941
839.506	21005
839.643	21077
839.781	20667
839.918	20594
840.055	20777
840.193	20670
840.33	20625
840.467	20609
840.604	20727
840.742	20868
840.879	20438
841.016	20575
841.153	20492
841.29	20811
841.427	20587
841.564	20602
841.701	20602
841.838	20469
841.975	20488
842.112	20602
842.249	20385
842.385	20324
842.522	20564
842.659	20427
842.796	20446
842.933	20423
843.069	20393
843.206	20336
843.343	20518
843.479	20419
843.616	20469
843.752	20332
843.889	20294
844.025	20377
844.162	20290
844.298	20355
844.435	20218
844.571	20332
844.708	20484
844.844	20617
844.98	20819
845.117	20910
845.253	21020
845.389	21363
845.525	22432
845.661	23832
845.798	25651
845.934	27313
846.07	27854
846.206	27633
846.342	26533
846.478	24372
846.614	22626
846.75	21530
846.886	20948
847.022	20625
847.158	20259
847.294	20012
847.429	19986
847.565	19830
847.701	19921
847.837	19537
847.972	19331
848.108	19457
848.244	19548
848.379	19301
848.515	19304
848.65	19190
848.786	19160
848.921	19194
849.057	19289
849.192	19278
849.328	19346
849.463	19255
849.598	19232
849.734	19137
849.869	18951
850.004	19027
850.14	18970
850.275	19034
850.41	18920
850.545	18901
850.68	18943
850.815	18909
850.95	18897
851.085	19046
851.22	19046
851.355	18977
851.49	18867
851.625	18875
851.76	18905
851.895	18700
852.03	18776
852.165	18764
852.299	18798
852.434	18993
852.569	18905
852.703	18901
852.838	19057
852.973	19012
853.107	19069
853.242	18913
853.376	18806
853.511	18692
853.645	18673
853.78	18932
853.914	18875
854.048	18791
854.183	18852
854.317	18848
854.451	18977
854.585	18848
854.72	18760
854.854	18787
854.988	18707
855.122	18753
855.256	18665
855.39	18757
855.524	18722
855.658	18768
855.792	18760
855.926	18734
856.06	18768
856.194	18859
856.327	18722
856.461	18734
856.595	18673
856.729	18642
856.862	18852
856.996	18768
857.13	18726
857.263	18795
857.397	18791
857.53	18715
857.664	18741
857.797	18768
857.931	18749
858.064	18749
858.197	18833
858.331	18665
858.464	18540
858.597	18540
858.731	18646
858.864	18639
858.997	18623
859.13	18616
859.263	18703
859.396	18741
859.529	18658
859.662	18616
859.795	18540
859.928	18589
860.061	18768
860.194	18734
860.327	18604
860.46	18544
860.592	18646
860.725	18776
860.858	18715
860.99	18498
861.123	18665
861.256	18639
861.388	18490
861.521	19339
861.653	18528
861.786	18429
861.918	18460
862.05	18570
862.183	18616
862.315	18623
862.447	18711
862.58	18578
862.712	18456
862.844	18353
862.976	18475
863.108	18292
863.24	18833
863.372	18292
863.504	18251
863.636	18209
863.768	18323
863.9	18388
864.032	18232
864.164	18384
864.296	18391
864.428	18437
864.559	18300
864.691	18342
864.823	18395
864.954	18262
865.086	18361
865.217	18258
865.349	18224
865.48	18277
865.612	18209
865.743	18399
865.875	18308
866.006	18243
866.137	18247
866.269	18330
866.4	18361
866.531	18292
866.662	18174
866.793	18205
866.924	18182
867.055	18247
867.186	18159
867.317	18178
867.448	17973
867.579	18213
867.71	18152
867.841	18045
867.972	18289
868.103	18148
868.233	18201
868.364	18216
868.495	18262
868.625	18380
868.756	18551
868.886	18422
869.017	18372
869.147	18578
869.278	18475
869.408	18445
869.539	18490
869.669	18589
869.799	18441
869.929	18601
870.06	18585
870.19	18875
870.32	18642
870.45	18859
870.58	18768
870.71	19004
870.84	18935
870.97	18882
871.1	18802
871.23	18901
871.36	18966
871.489	18859
871.619	19080
871.749	19046
871.879	19156
872.008	19183
872.138	19107
872.267	19061
872.397	18935
872.526	18973
872.656	18989
872.785	19012
872.915	19148
873.044	19110
873.173	19209
873.303	19122
873.432	19091
873.561	19316
873.69	19114
873.819	19148
873.948	19198
874.077	19293
874.206	19137
874.335	19259
874.464	19434
874.593	19369
874.722	19369
874.851	19529
874.979	19548
875.108	19674
875.237	19518
875.365	19521
875.494	19559
875.623	19632
875.751	19499
875.88	19525
876.008	19742
876.136	19772
876.265	20001
876.393	20206
876.521	20161
876.65	20168
876.778	20020
876.906	19989
877.034	20001
877.162	20111
877.29	20069
877.418	20161
877.546	20088
877.674	20267
877.802	20149
877.93	20259
878.058	20351
878.185	20347
878.313	20396
878.441	20454
878.568	20537
878.696	20792
878.824	21005
878.951	21252
879.079	21964
879.206	22573
879.333	23178
879.461	23330
879.588	23863
879.715	23950
879.842	23649
879.97	23025
880.097	22261
880.224	21762
880.351	21450
880.478	21233
880.605	20804
880.732	20956
880.859	21157
880.986	20880
881.112	20868
881.239	20579
881.366	20568
881.493	20339
881.619	20385
881.746	20476
881.872	20290
881.999	20419
882.125	20343
882.252	20438
882.378	20427
882.505	20659
882.631	20343
882.757	20172
882.883	20214
883.01	20122
883.136	20149
883.262	20107
883.388	20012
883.514	20225
883.64	20320
883.766	20122
883.892	20062
884.018	20046
884.143	20225
884.269	20225
884.395	19928
884.52	19830
884.646	19909
884.772	19936
884.897	19837
885.023	19849
885.148	19906
885.274	19989
885.399	19955
885.524	19898
885.65	19761
885.775	19700
885.9	19723
886.025	19715
886.15	19655
886.275	19476
886.4	19346
886.525	19468
886.65	19514
886.775	19354
886.9	19487
887.025	19590
887.149	19297
887.274	19114
887.399	19031
887.523	19118
887.648	18939
887.773	18806
887.897	19122
888.021	18989
888.146	18920
888.27	18981
888.395	19095
888.519	19065
888.643	18962
888.767	19004
888.891	18681
889.015	18692
889.139	18787
889.263	18719
889.387	18875
889.511	18875
889.635	18753
889.759	18646
889.883	18684
890.006	18654
890.13	18760
890.254	18490
890.377	18612
890.501	18388
890.624	18247
890.748	18330
890.871	18304
890.995	18091
891.118	18148
891.241	18334
891.364	18167
891.488	18163
891.611	18102
891.734	18098
891.857	18057
891.98	18174
892.103	18148
892.226	18144
892.349	18064
892.471	17885
892.594	17965
892.717	18022
892.839	17851
892.962	18034
893.085	18167
893.207	18019
893.33	17885
893.452	17912
893.575	17923
893.697	17939
893.819	18129
893.941	18049
894.064	18209
894.186	17961
894.308	17828
894.43	18007
894.552	18087
894.674	18064
894.796	17707
894.918	17939
895.04	17809
895.161	17988
895.283	17923
895.405	17958
895.526	17870
895.648	17916
895.769	17927
895.891	17939
896.012	18034
896.134	17965
896.255	17965
896.376	17961
896.498	17897
896.619	17923
896.74	18003
896.861	18079
896.982	18330
897.103	18418
897.224	18232
897.345	18060
897.466	18079
897.587	18262
897.708	18315
897.828	18144
897.949	17965
898.07	18045
898.19	18091
898.311	18277
898.431	18209
898.552	18163
898.672	18266
898.792	18140
898.913	18136
899.033	18091
899.153	17950
899.273	17863
899.393	17908
899.513	17870
899.633	17931
899.753	17908
899.873	17923
899.993	17961
900.113	17885
900.232	17999
900.352	17912
900.472	17737
900.591	17748
900.711	17904
900.83	17695
900.95	17866
901.069	17859
901.189	17703
901.308	17589
901.427	17315
901.546	17368
901.665	17402
901.784	17402
901.904	17288
902.023	17147
902.141	16854
902.26	16927
902.379	16892
902.498	16946
902.617	16923
902.735	16835
902.854	16866
902.973	16748
903.091	16599
903.21	16584
903.328	16489
903.446	16516
903.565	16314
903.683	16360
903.801	16341
903.919	16238
904.038	16318
904.156	16181
904.274	16207
904.392	16131
904.51	16143
904.627	16017
904.745	16211
904.863	16249
904.981	15892
905.098	15816
905.216	15842
905.334	15766
905.451	15751
905.569	15633
905.686	15793
905.803	15743
905.921	15481
906.038	15641
906.155	15675
906.272	15469
906.389	15454
906.506	15363
906.623	15374
906.74	15241
906.857	15154
906.974	15131
907.091	15348
907.208	15359
907.324	15245
907.441	15203
907.557	15112
907.674	14967
907.79	14982
907.907	15020
908.023	14979
908.139	14956
908.256	14929
908.372	14781
908.488	14895
908.604	14811
908.72	14682
908.836	14697
908.952	14617
909.068	14708
909.184	14769
909.3	14644
909.415	14686
909.531	14636
909.647	14404
909.762	14457
909.878	14450
909.993	14328
910.108	14400
910.224	14461
910.339	14442
910.454	14328
910.57	14256
910.685	14278
910.8	14404
910.915	14366
911.03	14259
911.145	14050
911.259	13978
911.374	14027
911.489	13955
911.604	13894
911.718	13738
911.833	13833
911.947	13715
912.062	13597
912.176	13761
912.291	13845
912.405	13727
912.519	13974
912.633	13864
912.748	13776
912.862	13696
912.976	13624
913.09	13495
913.204	13510
913.318	13559
913.431	13700
913.545	13696
913.659	13723
913.772	13575
913.886	13457
914	13464
914.113	13529
914.226	13464
914.34	13556
914.453	13419
914.566	13468
914.68	13388
914.793	13377
914.906	13251
915.019	13122
915.132	13023
915.245	13141
915.358	13202
915.47	13175
915.583	13149
915.696	13145
915.809	13266
915.921	13293
916.034	13133
916.146	13023
916.259	13008
916.371	13141
916.483	13069
916.595	13057
916.708	13023
916.82	13015
916.932	12958
917.044	12973
917.156	12901
917.268	12840
917.38	12939
917.491	12859
917.603	12878
917.715	12916
917.826	12932
917.938	12817
918.049	12749
918.161	12817
918.272	12951
918.384	12939
918.495	12840
918.606	12753
918.717	12620
918.828	12677
918.939	12684
919.05	12445
919.161	12559
919.272	12376
919.383	12460
919.494	12639
919.604	12833
919.715	12608
919.826	12506
919.936	12509
920.047	12601
920.157	12642
920.267	12734
920.378	12612
920.488	12498
920.598	12738
920.708	12901
920.818	12722
920.928	12692
921.038	12863
921.148	12867
921.258	12589
921.368	12456
921.477	12361
921.587	12410
921.697	12273
921.806	12471
921.916	12330
922.025	12022
922.134	12045
922.244	11939
922.353	12095
922.462	11950
922.571	11843
922.68	11748
922.789	11596
922.898	11794
923.007	11608
923.116	11688
923.224	11672
923.333	11634
923.442	11562
923.55	11444
923.659	11448
923.767	11592
923.876	11467
923.984	11623
924.092	11421
924.201	11520
924.309	11474
924.417	11581
924.525	11429
924.633	11455
924.741	12140
924.849	11269
924.956	11353
925.064	11174
925.172	11170
925.279	11193
925.387	11265
925.494	11208
925.602	11330
925.709	11318
925.816	11181
925.924	11227
926.031	11223
926.138	11181
926.245	11235
926.352	11045
926.459	11162
926.566	11227
926.673	11094
926.779	11010
926.886	10987
926.993	10923
927.099	10847
927.206	10793
927.312	10778
927.419	10866
927.525	10801
927.631	10831
927.737	10801
927.843	10721
927.95	10569
928.056	10729
928.162	10714
928.267	10721
928.373	11235
928.479	10820
928.585	10561
928.69	10664
928.796	10774
928.901	10580
929.007	10409
929.112	10668
929.218	10561
929.323	10538
929.428	10455
929.533	10603
929.638	10371
929.743	10535
929.848	10516
929.953	10394
930.058	10348
930.163	10135
930.267	10177
930.372	10348
930.477	10112
930.581	10424
930.685	10291
930.79	10166
930.894	10112
930.998	10128
931.103	10215
931.207	9918
931.311	9842
931.415	9732
931.519	9576
931.623	9485
