Data from test_V78500241_2829.txt Node
Date: Fri Mar 25 14:53:24 CST 2022
User: usil
Spectrometer: V785-0024
Trigger mode: 0
Integration Time (sec): 4.000000E-1
Scans to average: 1
Nonlinearity correction enabled: false
Boxcar width: 0
Storing dark spectrum: false
XAxis mode: Wavelengths
Number of Pixels in Spectrum: 1024
>>>>>Begin Spectral Data<<<<<
801.071	21956
801.214	21987
801.356	21690
801.499	21705
801.641	21587
801.783	21408
801.926	21500
802.068	21351
802.211	21355
802.353	21138
802.496	21017
802.638	21070
802.78	20853
802.923	20834
803.065	20720
803.208	20823
803.35	20785
803.492	20754
803.635	20880
803.777	20800
803.919	20777
804.061	21123
804.204	20948
804.346	20682
804.488	20640
804.63	20830
804.773	20655
804.915	20651
805.057	20701
805.199	20590
805.341	20750
805.483	20727
805.626	20765
805.768	20594
805.91	20682
806.052	20750
806.194	20667
806.336	20804
806.478	20621
806.62	20670
806.762	20746
806.904	20933
807.046	21161
807.188	20933
807.33	20944
807.472	21119
807.614	20895
807.756	20998
807.898	20800
808.04	20781
808.182	20883
808.324	20880
808.465	20689
808.607	20933
808.749	21039
808.891	21127
809.033	21291
809.174	21222
809.316	21047
809.458	21131
809.6	21108
809.741	21112
809.883	21131
810.025	21256
810.166	21233
810.308	21230
810.45	21256
810.591	21005
810.733	20853
810.875	20823
811.016	20750
811.158	20689
811.299	20891
811.441	20921
811.582	20960
811.724	20788
811.865	20925
812.007	20686
812.148	20807
812.29	20864
812.431	20868
812.573	21066
812.714	21188
812.855	21450
812.997	21450
813.138	21492
813.279	21443
813.421	21306
813.562	21226
813.703	21108
813.845	21077
813.986	20587
814.127	20518
814.268	20389
814.41	20427
814.551	20381
814.692	20434
814.833	20336
814.974	20381
815.115	20275
815.256	20191
815.397	20145
815.539	20248
815.68	20012
815.821	20008
815.962	20115
816.103	20027
816.244	19959
816.385	19818
816.526	19811
816.666	19677
816.807	19521
816.948	19510
817.089	19605
817.23	19559
817.371	19472
817.512	19563
817.653	19476
817.793	19563
817.934	19563
818.075	19430
818.216	19658
818.356	19411
818.497	19396
818.638	19259
818.778	19209
818.919	19175
819.06	19247
819.2	19346
819.341	19373
819.481	19327
819.622	19533
819.762	19590
819.903	19529
820.043	19681
820.184	19521
820.324	19445
820.465	19582
820.605	19518
820.746	19438
820.886	19255
821.026	19578
821.167	19453
821.307	19343
821.447	19460
821.588	19293
821.728	19183
821.868	18913
822.008	18916
822.149	18916
822.289	18791
822.429	18650
822.569	18563
822.709	18555
822.849	18308
822.99	18369
823.13	18372
823.27	18391
823.41	18197
823.55	18076
823.69	18178
823.83	18209
823.97	18106
824.11	17950
824.25	17878
824.389	17939
824.529	17958
824.669	18019
824.809	18026
824.949	18053
825.089	17859
825.228	17901
825.368	17855
825.508	17729
825.648	17855
825.787	17802
825.927	17661
826.067	17687
826.206	17577
826.346	17687
826.485	17771
826.625	17779
826.765	17718
826.904	17779
827.044	17493
827.183	17570
827.323	17360
827.462	17490
827.601	17303
827.741	17471
827.88	17463
828.02	17288
828.159	17387
828.298	17337
828.437	17417
828.577	17353
828.716	17512
828.855	17303
828.994	17086
829.134	17109
829.273	17269
829.412	17162
829.551	17083
829.69	17181
829.829	17105
829.968	17296
830.107	17189
830.246	17102
830.385	17056
830.524	17109
830.663	17117
830.802	16778
830.941	16736
831.08	16687
831.219	16877
831.357	16778
831.496	17121
831.635	16763
831.774	16691
831.913	16698
832.051	16535
832.19	16546
832.329	16653
832.467	16554
832.606	16413
832.744	16489
832.883	16474
833.022	16379
833.16	16497
833.299	16550
833.437	16405
833.576	16451
833.714	16592
833.852	16550
833.991	16455
834.129	16637
834.267	16561
834.406	16592
834.544	16618
834.682	16535
834.821	16519
834.959	16698
835.097	16462
835.235	16592
835.373	16527
835.511	16516
835.65	16413
835.788	16451
835.926	16363
836.064	16207
836.202	16261
836.34	16409
836.478	16596
836.615	16409
836.753	16489
836.891	16531
837.029	16424
837.167	16382
837.305	16287
837.443	16268
837.58	16337
837.718	16348
837.856	16322
837.993	16204
838.131	16310
838.269	16246
838.406	16204
838.544	16276
838.681	16017
838.819	15949
838.956	15899
839.094	15903
839.231	15979
839.369	15911
839.506	16257
839.643	15994
839.781	15987
839.918	15827
840.055	15880
840.193	15804
840.33	15774
840.467	15831
840.604	16010
840.742	16040
840.879	15701
841.016	15671
841.153	15709
841.29	16032
841.427	15865
841.564	15835
841.701	15854
841.838	15736
841.975	15781
842.112	15751
842.249	15724
842.385	15469
842.522	15835
842.659	15618
842.796	15534
842.933	15606
843.069	15504
843.206	15564
843.343	15667
843.479	15701
843.616	15625
843.752	15488
843.889	15469
844.025	15557
844.162	15374
844.298	15469
844.435	15378
844.571	15374
844.708	15416
844.844	15557
844.98	15450
845.117	15538
845.253	15397
845.389	15329
845.525	15332
845.661	15370
845.798	15272
845.934	15355
846.07	15203
846.206	15207
846.342	15218
846.478	15199
846.614	15123
846.75	14937
846.886	14921
847.022	15058
847.158	15020
847.294	15005
847.429	15028
847.565	15051
847.701	15173
847.837	14758
847.972	14735
848.108	14899
848.244	14724
848.379	14625
848.515	14610
848.65	14667
848.786	14632
848.921	14648
849.057	14758
849.192	14651
849.328	14499
849.463	14598
849.598	14640
849.734	14571
849.869	14511
850.004	14358
850.14	14358
850.275	14450
850.41	14343
850.545	14282
850.68	14366
850.815	14469
850.95	14393
851.085	14495
851.22	14446
851.355	14343
851.49	14324
851.625	14278
851.76	14355
851.895	14221
852.03	14221
852.165	14377
852.299	14389
852.434	14503
852.569	14408
852.703	14389
852.838	14469
852.973	14560
853.107	14442
853.242	14278
853.376	14225
853.511	14138
853.645	14191
853.78	14339
853.914	14168
854.048	14157
854.183	14199
854.317	14187
854.451	14252
854.585	14336
854.72	14206
854.854	14263
854.988	14043
855.122	14271
855.256	14027
855.39	14225
855.524	14355
855.658	14336
855.792	14145
855.926	14229
856.06	14305
856.194	14362
856.327	14309
856.461	14210
856.595	14107
856.729	14183
856.862	14381
856.996	14267
857.13	14298
857.263	14286
857.397	14358
857.53	14134
857.664	14278
857.797	14214
857.931	14358
858.064	14290
858.197	14366
858.331	14229
858.464	14176
858.597	14088
858.731	14229
858.864	14180
858.997	14252
859.13	14202
859.263	14237
859.396	14320
859.529	14172
859.662	14183
859.795	14317
859.928	14191
860.061	14419
860.194	14385
860.327	14233
860.46	14225
860.592	14355
860.725	14328
860.858	14286
860.99	14191
861.123	14214
861.256	14183
861.388	14286
861.521	14906
861.653	14111
861.786	14046
861.918	14149
862.05	14084
862.183	14233
862.315	14183
862.447	14225
862.58	14168
862.712	13974
862.844	13913
862.976	14035
863.108	14054
863.24	14294
863.372	13845
863.504	14054
863.636	13947
863.768	14062
863.9	13932
864.032	13951
864.164	14012
864.296	14050
864.428	14081
864.559	14062
864.691	14088
864.823	14043
864.954	13940
865.086	14111
865.217	14043
865.349	13898
865.48	13970
865.612	13951
865.743	14229
865.875	14065
866.006	13944
866.137	14046
866.269	13951
866.4	14005
866.531	13963
866.662	13890
866.793	14005
866.924	13841
867.055	14016
867.186	13913
867.317	13959
867.448	13982
867.579	13928
867.71	13841
867.841	13951
867.972	14046
868.103	13989
868.233	13978
868.364	14016
868.495	14123
868.625	14149
868.756	14298
868.886	14134
869.017	14168
869.147	14256
869.278	14309
869.408	14301
869.539	14214
869.669	14256
869.799	14195
869.929	14381
870.06	14324
870.19	14514
870.32	14549
870.45	14629
870.58	14651
870.71	14724
870.84	14754
870.97	14670
871.1	14492
871.23	14735
871.36	14800
871.489	14739
871.619	14777
871.749	14788
871.879	14800
872.008	14899
872.138	14868
872.267	14731
872.397	14686
872.526	14648
872.656	14674
872.785	14644
872.915	14769
873.044	14921
873.173	14899
873.303	14880
873.432	14979
873.561	15001
873.69	14838
873.819	14834
873.948	14941
874.077	14914
874.206	14857
874.335	14986
874.464	15020
874.593	15203
874.722	15142
874.851	15241
874.979	15252
875.108	15214
875.237	15287
875.365	15081
875.494	15150
875.623	15378
875.751	15108
875.88	15138
876.008	15412
876.136	15401
876.265	15595
876.393	15766
876.521	15762
876.65	15709
876.778	15667
876.906	15580
877.034	15526
877.162	15576
877.29	15591
877.418	15572
877.546	15641
877.674	15561
877.802	15618
877.93	15648
878.058	15576
878.185	15545
878.313	15542
878.441	15637
878.568	15515
878.696	15568
878.824	15606
878.951	15614
879.079	15774
879.206	15953
879.333	15686
879.461	15785
879.588	15690
879.715	15637
879.842	15949
879.97	15724
880.097	15439
880.224	15355
880.351	15397
880.478	15523
880.605	15447
880.732	15447
880.859	15698
880.986	15408
881.112	15469
881.239	15321
881.366	15256
881.493	15203
881.619	15097
881.746	15112
881.872	15077
881.999	15032
882.125	15085
882.252	15256
882.378	15123
882.505	15344
882.631	15180
882.757	14986
882.883	15036
883.01	14910
883.136	14872
883.262	14686
883.388	14804
883.514	15055
883.64	14937
883.766	14823
883.892	14788
884.018	14762
884.143	14956
884.269	14979
884.395	14670
884.52	14484
884.646	14602
884.772	14667
884.897	14583
885.023	14610
885.148	14731
885.274	14842
885.399	14693
885.524	14655
885.65	14602
885.775	14686
885.9	14549
886.025	14796
886.15	14693
886.275	14625
886.4	14533
886.525	14568
886.65	14621
886.775	14560
886.9	14853
887.025	14899
887.149	14640
887.274	14526
887.399	14499
887.523	14450
887.648	14457
887.773	14427
887.897	14480
888.021	14526
888.146	14396
888.27	14564
888.395	14568
888.519	14606
888.643	14610
888.767	14377
888.891	14434
889.015	14412
889.139	14393
889.263	14271
889.387	14442
889.511	14575
889.635	14488
889.759	14313
889.883	14332
890.006	14336
890.13	14454
890.254	14282
890.377	14396
890.501	14256
890.624	14130
890.748	14199
890.871	14145
890.995	14027
891.118	13959
891.241	14103
891.364	14039
891.488	14187
891.611	14050
891.734	14039
891.857	14126
891.98	14043
892.103	14115
892.226	13989
892.349	14024
892.471	13795
892.594	14012
892.717	14119
892.839	13894
892.962	13997
893.085	14050
893.207	14035
893.33	13978
893.452	13902
893.575	14142
893.697	14096
893.819	14142
893.941	14240
894.064	14199
894.186	14081
894.308	14081
894.43	14134
894.552	14282
894.674	14180
894.796	13997
894.918	14065
895.04	14046
895.161	14191
895.283	14111
895.405	14149
895.526	14153
895.648	14233
895.769	14218
895.891	14233
896.012	14309
896.134	14313
896.255	14256
896.376	14199
896.498	14145
896.619	14309
896.74	14275
896.861	14271
896.982	14438
897.103	14670
897.224	14526
897.345	14465
897.466	14377
897.587	14507
897.708	14648
897.828	14438
897.949	14412
898.07	14377
898.19	14469
898.311	14629
898.431	14571
898.552	14678
898.672	14583
898.792	14678
898.913	14663
899.033	14507
899.153	14351
899.273	14320
899.393	14358
899.513	14488
899.633	14446
899.753	14507
899.873	14484
899.993	14484
900.113	14442
900.232	14457
900.352	14423
900.472	14339
900.591	14259
900.711	14347
900.83	14324
900.95	14434
901.069	14324
901.189	14240
901.308	14024
901.427	13868
901.546	13917
901.665	14001
901.784	13940
901.904	13879
902.023	13852
902.141	13636
902.26	13575
902.379	13643
902.498	13601
902.617	13525
902.735	13636
902.854	13430
902.973	13514
903.091	13228
903.21	13251
903.328	13244
903.446	13168
903.565	13061
903.683	13198
903.801	13072
903.919	13213
904.038	13053
904.156	12943
904.274	12985
904.392	12867
904.51	12928
904.627	12928
904.745	12943
904.863	12947
904.981	12726
905.098	12601
905.216	12642
905.334	12654
905.451	12620
905.569	12570
905.686	12665
905.803	12551
905.921	12395
906.038	12639
906.155	12441
906.272	12357
906.389	12334
906.506	12243
906.623	12311
906.74	12175
906.857	12064
906.974	12038
907.091	12251
907.208	12315
907.324	12247
907.441	12083
907.557	11946
907.674	11912
907.79	11866
907.907	11923
908.023	12053
908.139	11920
908.256	11904
908.372	11840
908.488	11821
908.604	11786
908.72	11707
908.836	11745
908.952	11741
909.068	11821
909.184	11809
909.3	11619
909.415	11726
909.531	11627
909.647	11486
909.762	11425
909.878	11376
909.993	11425
910.108	11448
910.224	11444
910.339	11463
910.454	11391
910.57	11318
910.685	11292
910.8	11638
910.915	11585
911.03	11326
911.145	11235
911.259	11147
911.374	11181
911.489	11128
911.604	11147
911.718	10805
911.833	11018
911.947	10801
912.062	10736
912.176	10946
912.291	10972
912.405	10908
912.519	11094
912.633	11178
912.748	11014
912.862	10965
912.976	10778
913.09	10801
913.204	10828
913.318	10828
913.431	10908
913.545	10866
913.659	10965
913.772	10831
913.886	10725
914	10694
914.113	10763
914.226	10793
914.34	10771
914.453	10660
914.566	10748
914.68	10698
914.793	10675
914.906	10421
915.019	10500
915.132	10466
915.245	10428
915.358	10508
915.47	10481
915.583	10478
915.696	10504
915.809	10569
915.921	10592
916.034	10375
916.146	10432
916.259	10432
916.371	10497
916.483	10402
916.595	10356
916.708	10379
916.82	10299
916.932	10356
917.044	10436
917.156	10322
917.268	10246
917.38	10284
917.491	10238
917.603	10272
917.715	10371
917.826	10356
917.938	10230
918.049	10249
918.161	10227
918.272	10421
918.384	10443
918.495	10299
918.606	10219
918.717	10105
918.828	10158
918.939	10211
919.05	10082
919.161	10177
919.272	9964
919.383	10059
919.494	10181
919.604	10352
919.715	10253
919.826	10078
919.936	10097
920.047	10265
920.157	10242
920.267	10299
920.378	10249
920.488	10230
920.598	10413
920.708	10386
920.818	10375
920.928	10394
921.038	10443
921.148	10447
921.258	10207
921.368	10086
921.477	10093
921.587	10029
921.697	9937
921.806	10055
921.916	9911
922.025	9740
922.134	9770
922.244	9637
922.353	9823
922.462	9618
922.571	9580
922.68	9355
922.789	9367
922.898	9435
923.007	9367
923.116	9488
923.224	9420
923.333	9412
923.442	9363
923.55	9340
923.659	9359
923.767	9393
923.876	9249
923.984	9408
924.092	9218
924.201	9283
924.309	9256
924.417	9348
924.525	9294
924.633	9272
924.741	10025
924.849	9150
924.956	9241
925.064	9119
925.172	9013
925.279	9089
925.387	9131
925.494	9112
925.602	9268
925.709	9195
925.816	9047
925.924	9070
926.031	9188
926.138	9093
926.245	9138
926.352	9028
926.459	9161
926.566	9131
926.673	9013
926.779	8960
926.886	8986
926.993	8834
927.099	8750
927.206	8727
927.312	8788
927.419	8838
927.525	8792
927.631	8902
927.737	8708
927.843	8731
927.95	8636
928.056	8689
928.162	8724
928.267	8750
928.373	9306
928.479	8727
928.585	8598
928.69	8648
928.796	8720
928.901	8606
929.007	8526
929.112	8617
929.218	8594
929.323	8571
929.428	8541
929.533	8667
929.638	8389
929.743	8488
929.848	8571
929.953	8465
930.058	8412
930.163	8263
930.267	8343
930.372	8442
930.477	8244
930.581	8522
930.685	8377
930.79	8263
930.894	8267
930.998	8214
931.103	8332
931.207	8073
931.311	7993
931.415	7921
931.519	7734
931.623	7765
