Data from test_V78500241_2046.txt Node
Date: Fri Mar 25 14:47:57 CST 2022
User: usil
Spectrometer: V785-0024
Trigger mode: 0
Integration Time (sec): 4.000000E-1
Scans to average: 1
Nonlinearity correction enabled: false
Boxcar width: 0
Storing dark spectrum: false
XAxis mode: Wavelengths
Number of Pixels in Spectrum: 1024
>>>>>Begin Spectral Data<<<<<
801.071	22109
801.214	21937
801.356	21713
801.499	21694
801.641	21542
801.783	21561
801.926	21492
802.068	21268
802.211	21214
802.353	21340
802.496	21089
802.638	21001
802.78	20872
802.923	20876
803.065	20667
803.208	20826
803.35	20925
803.492	20925
803.635	20944
803.777	20735
803.919	20948
804.061	21203
804.204	20872
804.346	20735
804.488	20800
804.63	20765
804.773	20518
804.915	20781
805.057	20921
805.199	20693
805.341	20800
805.483	20906
805.626	20826
805.768	20834
805.91	20678
806.052	20739
806.194	20644
806.336	20864
806.478	20830
806.62	20815
806.762	20868
806.904	20971
807.046	21074
807.188	20979
807.33	21077
807.472	21188
807.614	20891
807.756	20971
807.898	20880
808.04	20746
808.182	20777
808.324	20731
808.465	20918
808.607	21051
808.749	21192
808.891	21249
809.033	21138
809.174	21207
809.316	21043
809.458	20990
809.6	21077
809.741	21135
809.883	21199
810.025	21249
810.166	21313
810.308	21237
810.45	21214
810.591	21081
810.733	21051
810.875	21032
811.016	20956
811.158	20765
811.299	21020
811.441	21013
811.582	20899
811.724	20948
811.865	20838
812.007	20815
812.148	20773
812.29	20944
812.431	21058
812.573	21161
812.714	21272
812.855	21348
812.997	21466
813.138	21682
813.279	21412
813.421	21393
813.562	21466
813.703	21169
813.845	20994
813.986	20842
814.127	20552
814.268	20564
814.41	20533
814.551	20419
814.692	20450
814.833	20358
814.974	20385
815.115	20393
815.256	20298
815.397	20328
815.539	20267
815.68	20191
815.821	20119
815.962	20153
816.103	20100
816.244	19944
816.385	19875
816.526	19936
816.666	19791
816.807	19571
816.948	19597
817.089	19731
817.23	19658
817.371	19476
817.512	19499
817.653	19548
817.793	19491
817.934	19487
818.075	19674
818.216	19639
818.356	19430
818.497	19411
818.638	19168
818.778	19297
818.919	19278
819.06	19278
819.2	19400
819.341	19491
819.481	19480
819.622	19639
819.762	19704
819.903	19651
820.043	19582
820.184	19518
820.324	19521
820.465	19628
820.605	19575
820.746	19586
820.886	19396
821.026	19571
821.167	19525
821.307	19525
821.447	19441
821.588	19426
821.728	19308
821.868	19209
822.008	18996
822.149	18977
822.289	18875
822.429	18692
822.569	18658
822.709	18635
822.849	18467
822.99	18403
823.13	18490
823.27	18300
823.41	18327
823.55	18209
823.69	18311
823.83	18235
823.97	18186
824.11	17977
824.25	17984
824.389	18072
824.529	18140
824.669	18068
824.809	18258
824.949	17980
825.089	18038
825.228	18072
825.368	17859
825.508	17775
825.648	17786
825.787	17893
825.927	17836
826.067	17779
826.206	17737
826.346	17783
826.485	17889
826.625	17771
826.765	17931
826.904	17790
827.044	17619
827.183	17581
827.323	17486
827.462	17577
827.601	17455
827.741	17570
827.88	17532
828.02	17368
828.159	17398
828.298	17459
828.437	17520
828.577	17402
828.716	17600
828.855	17383
828.994	17284
829.134	17250
829.273	17200
829.412	17227
829.551	17159
829.69	17235
829.829	17322
829.968	17356
830.107	17341
830.246	17292
830.385	17239
830.524	17056
830.663	16984
830.802	16987
830.941	16850
831.08	16744
831.219	17025
831.357	16835
831.496	17098
831.635	16915
831.774	16877
831.913	16790
832.051	16630
832.19	16668
832.329	16736
832.467	16672
832.606	16592
832.744	16558
832.883	16637
833.022	16569
833.16	16538
833.299	16634
833.437	16512
833.576	16637
833.714	16615
833.852	16611
833.991	16577
834.129	16615
834.267	16710
834.406	16516
834.544	16820
834.682	16569
834.821	16554
834.959	16805
835.097	16565
835.235	16717
835.373	16645
835.511	16622
835.65	16474
835.788	16554
835.926	16242
836.064	16390
836.202	16291
836.34	16466
836.478	16561
836.615	16466
836.753	16508
836.891	16535
837.029	16569
837.167	16466
837.305	16500
837.443	16421
837.58	16428
837.718	16474
837.856	16417
837.993	16379
838.131	16424
838.269	16246
838.406	16352
838.544	16325
838.681	16166
838.819	16086
838.956	16067
839.094	15956
839.231	16006
839.369	16013
839.506	16348
839.643	16188
839.781	15945
839.918	15888
840.055	16006
840.193	15941
840.33	15911
840.467	15911
840.604	15956
840.742	16181
840.879	15903
841.016	15778
841.153	15831
841.29	16063
841.427	16010
841.564	16010
841.701	16044
841.838	15835
841.975	15892
842.112	15838
842.249	15770
842.385	15675
842.522	15934
842.659	15720
842.796	15675
842.933	15686
843.069	15641
843.206	15743
843.343	15751
843.479	15781
843.616	15705
843.752	15549
843.889	15496
844.025	15717
844.162	15469
844.298	15629
844.435	15610
844.571	15526
844.708	15614
844.844	15682
844.98	15660
845.117	15648
845.253	15500
845.389	15389
845.525	15526
845.661	15321
845.798	15363
845.934	15363
846.07	15264
846.206	15378
846.342	15458
846.478	15294
846.614	15066
846.75	15062
846.886	15123
847.022	15157
847.158	15074
847.294	15062
847.429	15230
847.565	15070
847.701	15389
847.837	14826
847.972	14826
848.108	14967
848.244	14857
848.379	14686
848.515	14712
848.65	14663
848.786	14667
848.921	14716
849.057	14819
849.192	14830
849.328	14758
849.463	14724
849.598	14568
849.734	14606
849.869	14606
850.004	14507
850.14	14495
850.275	14412
850.41	14362
850.545	14438
850.68	14476
850.815	14473
850.95	14434
851.085	14602
851.22	14598
851.355	14442
851.49	14461
851.625	14396
851.76	14473
851.895	14320
852.03	14355
852.165	14355
852.299	14507
852.434	14613
852.569	14480
852.703	14518
852.838	14587
852.973	14549
853.107	14670
853.242	14431
853.376	14332
853.511	14187
853.645	14355
853.78	14473
853.914	14282
854.048	14294
854.183	14221
854.317	14431
854.451	14549
854.585	14275
854.72	14263
854.854	14454
854.988	14187
855.122	14343
855.256	14145
855.39	14301
855.524	14457
855.658	14286
855.792	14408
855.926	14347
856.06	14389
856.194	14408
856.327	14370
856.461	14290
856.595	14320
856.729	14351
856.862	14438
856.996	14374
857.13	14393
857.263	14351
857.397	14446
857.53	14347
857.664	14370
857.797	14381
857.931	14442
858.064	14355
858.197	14374
858.331	14324
858.464	14180
858.597	14210
858.731	14343
858.864	14347
858.997	14324
859.13	14305
859.263	14347
859.396	14343
859.529	14309
859.662	14244
859.795	14358
859.928	14423
860.061	14495
860.194	14476
860.327	14286
860.46	14294
860.592	14423
860.725	14511
860.858	14499
860.99	14366
861.123	14324
861.256	14210
861.388	14317
861.521	15043
861.653	14214
861.786	14229
861.918	14176
862.05	14157
862.183	14237
862.315	14248
862.447	14374
862.58	14252
862.712	14126
862.844	14084
862.976	14134
863.108	14183
863.24	14514
863.372	14107
863.504	14008
863.636	14073
863.768	14164
863.9	14149
864.032	13940
864.164	14149
864.296	14050
864.428	14195
864.559	14206
864.691	14218
864.823	14180
864.954	14168
865.086	14164
865.217	13989
865.349	14008
865.48	14145
865.612	14123
865.743	14221
865.875	14096
866.006	14054
866.137	14054
866.269	14107
866.4	14111
866.531	14012
866.662	13951
866.793	13989
866.924	14008
867.055	14050
867.186	14138
867.317	13986
867.448	14103
867.579	14035
867.71	13978
867.841	14008
867.972	14046
868.103	14111
868.233	14065
868.364	14103
868.495	14214
868.625	14305
868.756	14423
868.886	14256
869.017	14290
869.147	14385
869.278	14457
869.408	14328
869.539	14328
869.669	14393
869.799	14381
869.929	14549
870.06	14495
870.19	14644
870.32	14583
870.45	14663
870.58	14746
870.71	14834
870.84	14815
870.97	14659
871.1	14708
871.23	14937
871.36	14899
871.489	14864
871.619	14899
871.749	15032
871.879	14979
872.008	15024
872.138	14982
872.267	14990
872.397	14735
872.526	14758
872.656	14743
872.785	14746
872.915	14933
873.044	15081
873.173	14891
873.303	14967
873.432	15077
873.561	14941
873.69	15005
873.819	14902
873.948	14944
874.077	14971
874.206	14960
874.335	14998
874.464	15097
874.593	15329
874.722	15230
874.851	15283
874.979	15287
875.108	15355
875.237	15233
875.365	15195
875.494	15214
875.623	15313
875.751	15241
875.88	15283
876.008	15504
876.136	15587
876.265	15766
876.393	15884
876.521	15781
876.65	15800
876.778	15759
876.906	15720
877.034	15698
877.162	15789
877.29	15576
877.418	15724
877.546	15663
877.674	15694
877.802	15667
877.93	15701
878.058	15728
878.185	15545
878.313	15724
878.441	15648
878.568	15519
878.696	15690
878.824	15717
878.951	15743
879.079	15873
879.206	16082
879.333	15941
879.461	15637
879.588	15892
879.715	15899
879.842	16010
879.97	15778
880.097	15519
880.224	15530
880.351	15663
880.478	15557
880.605	15564
880.732	15568
880.859	15781
880.986	15526
881.112	15698
881.239	15454
881.366	15291
881.493	15203
881.619	15169
881.746	15226
881.872	15138
881.999	15112
882.125	15127
882.252	15161
882.378	15207
882.505	15279
882.631	15116
882.757	15081
882.883	15058
883.01	15043
883.136	14952
883.262	14967
883.388	14853
883.514	15062
883.64	15123
883.766	14975
883.892	14853
884.018	14819
884.143	15043
884.269	15062
884.395	14777
884.52	14781
884.646	14758
884.772	14655
884.897	14579
885.023	14754
885.148	14754
885.274	14868
885.399	14861
885.524	14872
885.65	14708
885.775	14883
885.9	14663
886.025	14872
886.15	14731
886.275	14743
886.4	14632
886.525	14689
886.65	14610
886.775	14663
886.9	14781
887.025	14891
887.149	14705
887.274	14583
887.399	14518
887.523	14560
887.648	14530
887.773	14469
887.897	14610
888.021	14712
888.146	14495
888.27	14724
888.395	14765
888.519	14602
888.643	14568
888.767	14693
888.891	14499
889.015	14347
889.139	14412
889.263	14511
889.387	14568
889.511	14621
889.635	14484
889.759	14396
889.883	14381
890.006	14537
890.13	14461
890.254	14336
890.377	14332
890.501	14206
890.624	14202
890.748	14248
890.871	14153
890.995	14096
891.118	14088
891.241	14153
891.364	14123
891.488	14275
891.611	14027
891.734	14012
891.857	14183
891.98	14145
892.103	14142
892.226	14107
892.349	14069
892.471	13963
892.594	14123
892.717	14145
892.839	14103
892.962	14195
893.085	14206
893.207	14046
893.33	13932
893.452	13928
893.575	14202
893.697	14088
893.819	14282
893.941	14385
894.064	14298
894.186	14001
894.308	14058
894.43	14206
894.552	14362
894.674	14294
894.796	14031
894.918	14202
895.04	14134
895.161	14278
895.283	14320
895.405	14187
895.526	14183
895.648	14336
895.769	14259
895.891	14271
896.012	14381
896.134	14351
896.255	14271
896.376	14286
896.498	14244
896.619	14385
896.74	14275
896.861	14320
896.982	14568
897.103	14712
897.224	14625
897.345	14533
897.466	14434
897.587	14522
897.708	14659
897.828	14625
897.949	14514
898.07	14480
898.19	14590
898.311	14697
898.431	14625
898.552	14583
898.672	14689
898.792	14678
898.913	14670
899.033	14632
899.153	14476
899.273	14381
899.393	14438
899.513	14564
899.633	14522
899.753	14575
899.873	14545
899.993	14644
900.113	14537
900.232	14541
900.352	14560
900.472	14377
900.591	14339
900.711	14317
900.83	14320
900.95	14404
901.069	14545
901.189	14370
901.308	14107
901.427	14035
901.546	14005
901.665	14134
901.784	14031
901.904	13860
902.023	13860
902.141	13693
902.26	13597
902.379	13651
902.498	13628
902.617	13575
902.735	13613
902.854	13613
902.973	13422
903.091	13335
903.21	13403
903.328	13282
903.446	13259
903.565	13209
903.683	13156
903.801	13080
903.919	13149
904.038	13069
904.156	12985
904.274	13053
904.392	13072
904.51	13072
904.627	12989
904.745	12962
904.863	13168
904.981	12810
905.098	12711
905.216	12646
905.334	12749
905.451	12692
905.569	12673
905.686	12707
905.803	12749
905.921	12483
906.038	12650
906.155	12486
906.272	12403
906.389	12376
906.506	12289
906.623	12338
906.74	12201
906.857	12087
906.974	12209
907.091	12350
907.208	12399
907.324	12346
907.441	12125
907.557	11912
907.674	11904
907.79	11961
907.907	12003
908.023	12076
908.139	11931
908.256	12034
908.372	11927
908.488	11893
908.604	11764
908.72	11756
908.836	11714
908.952	11775
909.068	11851
909.184	11802
909.3	11760
909.415	11847
909.531	11794
909.647	11554
909.762	11566
909.878	11524
909.993	11570
910.108	11528
910.224	11535
910.339	11596
910.454	11478
910.57	11372
910.685	11341
910.8	11600
910.915	11551
911.03	11398
911.145	11292
911.259	11246
911.374	11216
911.489	11181
911.604	11075
911.718	10980
911.833	11022
911.947	10873
912.062	10835
912.176	11022
912.291	10927
912.405	10995
912.519	11124
912.633	11242
912.748	11117
912.862	11018
912.976	10793
913.09	10710
913.204	10809
913.318	10900
913.431	10995
913.545	10908
913.659	10999
913.772	10961
913.886	10725
914	10725
914.113	10835
914.226	10900
914.34	10862
914.453	10653
914.566	10847
914.68	10710
914.793	10637
914.906	10493
915.019	10413
915.132	10432
915.245	10447
915.358	10459
915.47	10531
915.583	10504
915.696	10634
915.809	10675
915.921	10721
916.034	10481
916.146	10489
916.259	10466
916.371	10550
916.483	10451
916.595	10508
916.708	10474
916.82	10447
916.932	10447
917.044	10447
917.156	10394
917.268	10333
917.38	10371
917.491	10306
917.603	10363
917.715	10462
917.826	10512
917.938	10291
918.049	10204
918.161	10348
918.272	10500
918.384	10500
918.495	10371
918.606	10230
918.717	10147
918.828	10295
918.939	10295
919.05	10238
919.161	10227
919.272	10044
919.383	10185
919.494	10268
919.604	10493
919.715	10272
919.826	10135
919.936	10215
920.047	10284
920.157	10215
920.267	10428
920.378	10219
920.488	10207
920.598	10474
920.708	10569
920.818	10485
920.928	10424
921.038	10599
921.148	10531
921.258	10272
921.368	10211
921.477	10082
921.587	10036
921.697	9972
921.806	10006
921.916	10006
922.025	9907
922.134	9797
922.244	9793
922.353	9827
922.462	9713
922.571	9622
922.68	9538
922.789	9420
922.898	9523
923.007	9428
923.116	9435
923.224	9405
923.333	9488
923.442	9412
923.55	9386
923.659	9336
923.767	9458
923.876	9332
923.984	9428
924.092	9283
924.201	9359
924.309	9389
924.417	9439
924.525	9237
924.633	9336
924.741	10253
924.849	9154
924.956	9237
925.064	9192
925.172	9077
925.279	9135
925.387	9195
925.494	9119
925.602	9275
925.709	9207
925.816	9104
925.924	9142
926.031	9214
926.138	9138
926.245	9237
926.352	9036
926.459	9283
926.566	9241
926.673	9051
926.779	9047
926.886	9062
926.993	8925
927.099	8766
927.206	8868
927.312	8769
927.419	8921
927.525	8823
927.631	8910
927.737	8766
927.843	8804
927.95	8632
928.056	8823
928.162	8788
928.267	8861
928.373	9405
928.479	8785
928.585	8636
928.69	8731
928.796	8754
928.901	8693
929.007	8541
929.112	8663
929.218	8613
929.323	8590
929.428	8533
929.533	8686
929.638	8522
929.743	8503
929.848	8632
929.953	8594
930.058	8526
930.163	8248
930.267	8385
930.372	8469
930.477	8332
930.581	8587
930.685	8438
930.79	8313
930.894	8358
930.998	8294
931.103	8385
931.207	8084
931.311	7997
931.415	7944
931.519	7753
931.623	7765
