Data from test_V78500241_921.txt Node
Date: Fri Mar 25 14:40:07 CST 2022
User: usil
Spectrometer: V785-0024
Trigger mode: 0
Integration Time (sec): 4.000000E-1
Scans to average: 1
Nonlinearity correction enabled: false
Boxcar width: 0
Storing dark spectrum: false
XAxis mode: Wavelengths
Number of Pixels in Spectrum: 1024
>>>>>Begin Spectral Data<<<<<
801.071	24798
801.214	24566
801.356	24277
801.499	24262
801.641	24209
801.783	24121
801.926	24095
802.068	23977
802.211	23927
802.353	23752
802.496	23661
802.638	23627
802.78	23395
802.923	23372
803.065	23356
803.208	23345
803.35	23383
803.492	23566
803.635	23554
803.777	23551
803.919	23547
804.061	23745
804.204	23436
804.346	23395
804.488	23330
804.63	23368
804.773	23288
804.915	23429
805.057	23414
805.199	23444
805.341	23554
805.483	23573
805.626	23436
805.768	23387
805.91	23463
806.052	23604
806.194	23516
806.336	23703
806.478	23501
806.62	23745
806.762	23733
806.904	24053
807.046	24144
807.188	24106
807.33	24239
807.472	24323
807.614	24365
807.756	24483
807.898	24544
808.04	24757
808.182	25027
808.324	25548
808.465	26024
808.607	26613
808.749	27146
808.891	27355
809.033	27462
809.174	27146
809.316	26575
809.458	26214
809.6	25597
809.741	25236
809.883	25042
810.025	24768
810.166	24760
810.308	24540
810.45	24490
810.591	24426
810.733	24007
810.875	23908
811.016	23859
811.158	23786
811.299	23992
811.441	23889
811.582	23889
811.724	23646
811.865	23745
812.007	23726
812.148	23760
812.29	23729
812.431	23756
812.573	24136
812.714	24106
812.855	24068
812.997	24243
813.138	24327
813.279	24384
813.421	24129
813.562	24174
813.703	23859
813.845	23752
813.986	23554
814.127	23216
814.268	23227
814.41	23197
814.551	23220
814.692	23315
814.833	23105
814.974	23128
815.115	23086
815.256	23083
815.397	22953
815.539	22949
815.68	22904
815.821	22824
815.962	22869
816.103	22873
816.244	22771
816.385	22721
816.526	22603
816.666	22546
816.807	22295
816.948	22390
817.089	22432
817.23	22329
817.371	22348
817.512	22173
817.653	22242
817.793	22223
817.934	22295
818.075	22234
818.216	22314
818.356	22223
818.497	22017
818.638	21895
818.778	21816
818.919	21907
819.06	21953
819.2	22010
819.341	22169
819.481	22101
819.622	22211
819.762	22470
819.903	22287
820.043	22295
820.184	22223
820.324	22067
820.465	22246
820.605	22204
820.746	22261
820.886	21956
821.026	22090
821.167	22131
821.307	22128
821.447	22036
821.588	21945
821.728	21755
821.868	21713
822.008	21564
822.149	21606
822.289	21439
822.429	21355
822.569	21199
822.709	21291
822.849	21005
822.99	20979
823.13	21043
823.27	20971
823.41	20792
823.55	20788
823.69	20849
823.83	20796
823.97	20811
824.11	20492
824.25	20533
824.389	20750
824.529	20701
824.669	20518
824.809	20644
824.949	20648
825.089	20682
825.228	20659
825.368	20438
825.508	20396
825.648	20431
825.787	20454
825.927	20434
826.067	20366
826.206	20347
826.346	20442
826.485	20324
826.625	20396
826.765	20412
826.904	20442
827.044	20096
827.183	20172
827.323	19982
827.462	20081
827.601	20008
827.741	20115
827.88	20107
828.02	19921
828.159	19982
828.298	20016
828.437	19989
828.577	20073
828.716	20115
828.855	20008
828.994	19765
829.134	19898
829.273	19883
829.412	19772
829.551	19765
829.69	19765
829.829	19674
829.968	19841
830.107	19894
830.246	19765
830.385	19750
830.524	19670
830.663	19544
830.802	19582
830.941	19362
831.08	19396
831.219	19407
831.357	19335
831.496	19635
831.635	19438
831.774	19403
831.913	19285
832.051	19175
832.19	19103
832.329	19297
832.467	19084
832.606	19034
832.744	19080
832.883	19282
833.022	19091
833.16	19053
833.299	19225
833.437	19164
833.576	19175
833.714	19171
833.852	19255
833.991	19198
834.129	19225
834.267	19327
834.406	19358
834.544	19339
834.682	19225
834.821	19118
834.959	19350
835.097	19034
835.235	19202
835.373	19247
835.511	19171
835.65	18989
835.788	18886
835.926	18768
836.064	18783
836.202	18738
836.34	19038
836.478	19031
836.615	18947
836.753	19004
836.891	18939
837.029	19042
837.167	18848
837.305	18821
837.443	18734
837.58	18734
837.718	18806
837.856	18688
837.993	18768
838.131	18764
838.269	18722
838.406	18654
838.544	18650
838.681	18441
838.819	18395
838.956	18270
839.094	18270
839.231	18338
839.369	18391
839.506	18642
839.643	18452
839.781	18220
839.918	18197
840.055	18129
840.193	18182
840.33	18304
840.467	18232
840.604	18197
840.742	18498
840.879	18098
841.016	18114
841.153	18163
841.29	18232
841.427	18289
841.564	18232
841.701	18213
841.838	18220
841.975	18117
842.112	18015
842.249	17946
842.385	18026
842.522	18083
842.659	17980
842.796	17954
842.933	18011
843.069	17927
843.206	18022
843.343	18038
843.479	17992
843.616	18007
843.752	17790
843.889	17741
844.025	17920
844.162	17748
844.298	17840
844.435	17847
844.571	17798
844.708	18038
844.844	18155
844.98	18133
845.117	18178
845.253	18205
845.389	18426
845.525	18935
845.661	19651
845.798	20606
845.934	21519
846.07	21732
846.206	21747
846.342	21214
846.478	19913
846.614	18966
846.75	18304
846.886	17874
847.022	17809
847.158	17611
847.294	17448
847.429	17387
847.565	17277
847.701	17573
847.837	17014
847.972	16930
848.108	17155
848.244	17105
848.379	16919
848.515	16919
848.65	16862
848.786	16885
848.921	16900
849.057	16927
849.192	16946
849.328	16850
849.463	16900
849.598	16763
849.734	16767
849.869	16801
850.004	16679
850.14	16672
850.275	16573
850.41	16519
850.545	16573
850.68	16584
850.815	16565
850.95	16611
851.085	16790
851.22	16713
851.355	16645
851.49	16565
851.625	16535
851.76	16504
851.895	16535
852.03	16405
852.165	16565
852.299	16580
852.434	16702
852.569	16489
852.703	16508
852.838	16641
852.973	16733
853.107	16637
853.242	16546
853.376	16531
853.511	16303
853.645	16489
853.78	16523
853.914	16451
854.048	16535
854.183	16489
854.317	16500
854.451	16596
854.585	16428
854.72	16519
854.854	16558
854.988	16356
855.122	16398
855.256	16303
855.39	16455
855.524	16474
855.658	16466
855.792	16436
855.926	16519
856.06	16447
856.194	16421
856.327	16398
856.461	16424
856.595	16333
856.729	16379
856.862	16516
856.996	16485
857.13	16432
857.263	16542
857.397	16611
857.53	16371
857.664	16474
857.797	16611
857.931	16466
858.064	16573
858.197	16466
858.331	16405
858.464	16379
858.597	16318
858.731	16318
858.864	16382
858.997	16265
859.13	16356
859.263	16478
859.396	16455
859.529	16459
859.662	16333
859.795	16291
859.928	16382
860.061	16592
860.194	16500
860.327	16470
860.46	16337
860.592	16500
860.725	16481
860.858	16451
860.99	16329
861.123	16341
861.256	16310
861.388	16382
861.521	17143
861.653	16303
861.786	16166
861.918	16341
862.05	16284
862.183	16234
862.315	16360
862.447	16443
862.58	16398
862.712	16158
862.844	16131
862.976	16173
863.108	16188
863.24	16615
863.372	15987
863.504	16124
863.636	16109
863.768	16124
863.9	16150
864.032	16051
864.164	15991
864.296	16120
864.428	16265
864.559	16082
864.691	16219
864.823	16158
864.954	16185
865.086	16135
865.217	16063
865.349	15956
865.48	16090
865.612	16086
865.743	16154
865.875	16055
866.006	16078
866.137	16150
866.269	16048
866.4	15983
866.531	16074
866.662	15998
866.793	16029
866.924	15975
867.055	16093
867.186	16109
867.317	15907
867.448	15934
867.579	15918
867.71	15907
867.841	15987
867.972	16097
868.103	16036
868.233	16067
868.364	16006
868.495	16036
868.625	16204
868.756	16363
868.886	16150
869.017	16215
869.147	16409
869.278	16394
869.408	16318
869.539	16322
869.669	16398
869.799	16318
869.929	16371
870.06	16455
870.19	16584
870.32	16523
870.45	16672
870.58	16740
870.71	16771
870.84	16744
870.97	16702
871.1	16637
871.23	16999
871.36	16923
871.489	16771
871.619	16938
871.749	16911
871.879	16908
872.008	17117
872.138	16930
872.267	16782
872.397	16790
872.526	16660
872.656	16675
872.785	16858
872.915	16942
873.044	17060
873.173	16991
873.303	17094
873.432	16915
873.561	17014
873.69	17010
873.819	16915
873.948	17029
874.077	17029
874.206	16896
874.335	16984
874.464	17102
874.593	17258
874.722	17223
874.851	17368
874.979	17242
875.108	17326
875.237	17254
875.365	17117
875.494	17269
875.623	17292
875.751	17208
875.88	17387
876.008	17444
876.136	17592
876.265	17710
876.393	17908
876.521	17798
876.65	17771
876.778	17752
876.906	17684
877.034	17657
877.162	17771
877.29	17748
877.418	17798
877.546	17714
877.674	17832
877.802	17912
877.93	17847
878.058	17794
878.185	17813
878.313	17893
878.441	18041
878.568	18064
878.696	18076
878.824	18247
878.951	18475
879.079	18798
879.206	19270
879.333	19453
879.461	19590
879.588	19693
879.715	20020
879.842	19849
879.97	19441
880.097	18935
880.224	18593
880.351	18437
880.478	18452
880.605	18129
880.732	18186
880.859	18365
880.986	18178
881.112	18117
881.239	17863
881.366	17912
881.493	17726
881.619	17642
881.746	17764
881.872	17741
881.999	17733
882.125	17775
882.252	17737
882.378	17767
882.505	17851
882.631	17710
882.757	17608
882.883	17691
883.01	17642
883.136	17547
883.262	17379
883.388	17356
883.514	17649
883.64	17497
883.766	17551
883.892	17387
884.018	17402
884.143	17429
884.269	17573
884.395	17235
884.52	17227
884.646	17242
884.772	17109
884.897	17128
885.023	17204
885.148	17383
885.274	17395
885.399	17341
885.524	17204
885.65	17128
885.775	17189
885.9	17117
886.025	17231
886.15	17132
886.275	17037
886.4	16873
886.525	16889
886.65	16900
886.775	16946
886.9	17083
887.025	17189
887.149	16915
887.274	16786
887.399	16774
887.523	16637
887.648	16675
887.773	16706
887.897	16797
888.021	16805
888.146	16584
888.27	16755
888.395	16839
888.519	16710
888.643	16649
888.767	16706
888.891	16607
889.015	16417
889.139	16527
889.263	16421
889.387	16592
889.511	16554
889.635	16554
889.759	16504
889.883	16440
890.006	16470
890.13	16550
890.254	16356
890.377	16405
890.501	16177
890.624	16246
890.748	16211
890.871	16139
890.995	16063
891.118	15979
891.241	16059
891.364	16131
891.488	16116
891.611	16120
891.734	16051
891.857	16128
891.98	16006
892.103	16059
892.226	16082
892.349	15998
892.471	15766
892.594	15880
892.717	15968
892.839	15918
892.962	15960
893.085	16017
893.207	15998
893.33	15911
893.452	15949
893.575	16093
893.697	15873
893.819	16124
893.941	16211
894.064	16006
894.186	15934
894.308	15846
894.43	16055
894.552	16135
894.674	16112
894.796	15827
894.918	15838
895.04	15827
895.161	16078
895.283	16017
895.405	15793
895.526	16044
895.648	15994
895.769	16131
895.891	15979
896.012	16188
896.134	16097
896.255	16040
896.376	16032
896.498	16059
896.619	16147
896.74	16067
896.861	16128
896.982	16398
897.103	16550
897.224	16386
897.345	16371
897.466	16287
897.587	16226
897.708	16363
897.828	16337
897.949	16150
898.07	16188
898.19	16211
898.311	16371
898.431	16295
898.552	16284
898.672	16379
898.792	16352
898.913	16348
899.033	16261
899.153	16196
899.273	16112
899.393	16166
899.513	16143
899.633	16253
899.753	16219
899.873	16230
899.993	16185
900.113	16188
900.232	16188
900.352	16135
900.472	16135
900.591	16059
900.711	16139
900.83	16063
900.95	16116
901.069	16169
901.189	16044
901.308	15705
901.427	15732
901.546	15743
901.665	15770
901.784	15606
901.904	15580
902.023	15485
902.141	15298
902.26	15294
902.379	15306
902.498	15195
902.617	15036
902.735	15256
902.854	15184
902.973	15051
903.091	14948
903.21	14853
903.328	14834
903.446	14872
903.565	14735
903.683	14830
903.801	14590
903.919	14796
904.038	14670
904.156	14575
904.274	14644
904.392	14484
904.51	14518
904.627	14480
904.745	14587
904.863	14629
904.981	14294
905.098	14206
905.216	14073
905.334	14237
905.451	14271
905.569	14145
905.686	14324
905.803	14164
905.921	13970
906.038	14084
906.155	13986
906.272	13909
906.389	13879
906.506	13723
906.623	13780
906.74	13693
906.857	13700
906.974	13681
907.091	13784
907.208	13734
907.324	13765
907.441	13620
907.557	13502
907.674	13514
907.79	13445
907.907	13415
908.023	13419
908.139	13453
908.256	13358
908.372	13365
908.488	13407
908.604	13190
908.72	13156
908.836	13278
908.952	13122
909.068	13270
909.184	13293
909.3	13183
909.415	13183
909.531	13236
909.647	12954
909.762	13004
909.878	12905
909.993	12932
910.108	12939
910.224	12844
910.339	12833
910.454	12867
910.57	12681
910.685	12635
910.8	12989
910.915	12935
911.03	12722
911.145	12658
911.259	12570
911.374	12597
911.489	12513
911.604	12490
911.718	12361
911.833	12361
911.947	12194
912.062	12091
912.176	12365
912.291	12311
912.405	12300
912.519	12490
912.633	12452
912.748	12395
912.862	12361
912.976	12220
913.09	12121
913.204	12163
913.318	12182
913.431	12277
913.545	12220
913.659	12388
913.772	12232
913.886	11988
914	11942
914.113	12102
914.226	12129
914.34	12079
914.453	11901
914.566	12114
914.68	12015
914.793	11996
914.906	11878
915.019	11756
915.132	11748
915.245	11817
915.358	11805
915.47	11737
915.583	11783
915.696	11870
915.809	11847
915.921	11916
916.034	11726
916.146	11710
916.259	11695
916.371	11767
916.483	11783
916.595	11718
916.708	11718
916.82	11634
916.932	11596
917.044	11680
917.156	11653
917.268	11547
917.38	11535
917.491	11505
917.603	11589
917.715	11608
917.826	11627
917.938	11615
918.049	11543
918.161	11535
918.272	11623
918.384	11707
918.495	11608
918.606	11425
918.717	11315
918.828	11398
918.939	11402
919.05	11318
919.161	11391
919.272	11235
919.383	11250
919.494	11337
919.604	11604
919.715	11334
919.826	11330
919.936	11303
920.047	11436
920.157	11364
920.267	11547
920.378	11482
920.488	11444
920.598	11596
920.708	11703
920.818	11528
920.928	11547
921.038	11676
921.148	11634
921.258	11452
921.368	11349
921.477	11227
921.587	11201
921.697	11048
921.806	11280
921.916	11075
922.025	10904
922.134	10816
922.244	10854
922.353	10885
922.462	10752
922.571	10714
922.68	10603
922.789	10546
922.898	10577
923.007	10485
923.116	10588
923.224	10561
923.333	10546
923.442	10440
923.55	10417
923.659	10394
923.767	10538
923.876	10367
923.984	10462
924.092	10337
924.201	10398
924.309	10436
924.417	10371
924.525	10310
924.633	10341
924.741	11090
924.849	10181
924.956	10272
925.064	10162
925.172	10063
925.279	10154
925.387	10147
925.494	10192
925.602	10276
925.709	10227
925.816	10074
925.924	10162
926.031	10261
926.138	10211
926.245	10177
926.352	9991
926.459	10204
926.566	10265
926.673	10048
926.779	10006
926.886	9994
926.993	9835
927.099	9797
927.206	9812
927.312	9781
927.419	9861
927.525	9812
927.631	9854
927.737	9709
927.843	9755
927.95	9656
928.056	9690
928.162	9690
928.267	9705
928.373	10367
928.479	9842
928.585	9534
928.69	9690
928.796	9736
928.901	9625
929.007	9424
929.112	9595
929.218	9580
929.323	9534
929.428	9496
929.533	9660
929.638	9435
929.743	9439
929.848	9538
929.953	9473
930.058	9420
930.163	9203
930.267	9226
930.372	9359
930.477	9283
930.581	9447
930.685	9313
930.79	9154
930.894	9173
930.998	9154
931.103	9374
931.207	8963
931.311	8979
931.415	8880
931.519	8701
931.623	8625
