Data from test_V78500241_709.txt Node
Date: Fri Mar 25 14:38:39 CST 2022
User: usil
Spectrometer: V785-0024
Trigger mode: 0
Integration Time (sec): 4.000000E-1
Scans to average: 1
Nonlinearity correction enabled: false
Boxcar width: 0
Storing dark spectrum: false
XAxis mode: Wavelengths
Number of Pixels in Spectrum: 1024
>>>>>Begin Spectral Data<<<<<
801.071	27679
801.214	27504
801.356	27313
801.499	27222
801.641	27100
801.783	27024
801.926	27154
802.068	26990
802.211	26849
802.353	26834
802.496	26754
802.638	26613
802.78	26629
802.923	26522
803.065	26442
803.208	26442
803.35	26579
803.492	26785
803.635	26724
803.777	26746
803.919	26682
804.061	27013
804.204	26842
804.346	26712
804.488	26765
804.63	26746
804.773	26758
804.915	26971
805.057	26975
805.199	27116
805.341	27279
805.483	27211
805.626	27310
805.768	27268
805.91	27545
806.052	27496
806.194	27808
806.336	28036
806.478	28067
806.62	28215
806.762	28577
806.904	28911
807.046	29360
807.188	29760
807.33	30232
807.472	30700
807.614	31419
807.756	32297
807.898	33389
808.04	34961
808.182	37050
808.324	39682
808.465	42764
808.607	46173
808.749	48985
808.891	50549
809.033	51043
809.174	49327
809.316	46207
809.458	42840
809.6	39492
809.741	36642
809.883	34428
810.025	32929
810.166	31921
810.308	30981
810.45	30247
810.591	29832
810.733	29265
810.875	28828
811.016	28702
811.158	28310
811.299	28299
811.441	28082
811.582	28124
811.724	27713
811.865	27618
812.007	27652
812.148	27435
812.29	27450
812.431	27606
812.573	27625
812.714	27656
812.855	27720
812.997	27652
813.138	27892
813.279	27622
813.421	27618
813.562	27450
813.703	27313
813.845	27108
813.986	26811
814.127	26602
814.268	26381
814.41	26552
814.551	26267
814.692	26343
814.833	26206
814.974	26187
815.115	26259
815.256	26012
815.397	26031
815.539	25959
815.68	25791
815.821	25761
815.962	25894
816.103	25818
816.244	25647
816.385	25628
816.526	25544
816.666	25282
816.807	25244
816.948	25160
817.089	25160
817.23	25122
817.371	25057
817.512	25095
817.653	25038
817.793	25069
817.934	25069
818.075	25004
818.216	24985
818.356	24996
818.497	24875
818.638	24764
818.778	24776
818.919	24719
819.06	24688
819.2	25004
819.341	25126
819.481	25008
819.622	25190
819.762	25187
819.903	25072
820.043	25145
820.184	24958
820.324	24954
820.465	25027
820.605	24833
820.746	24859
820.886	24722
821.026	24878
821.167	24848
821.307	24882
821.447	24741
821.588	24578
821.728	24528
821.868	24350
822.008	24133
822.149	24182
822.289	24121
822.429	23984
822.569	23809
822.709	23824
822.849	23630
822.99	23452
823.13	23463
823.27	23524
823.41	23341
823.55	23330
823.69	23383
823.83	23307
823.97	23307
824.11	23159
824.25	23090
824.389	23174
824.529	23166
824.669	22991
824.809	23235
824.949	23277
825.089	23166
825.228	23208
825.368	22953
825.508	22911
825.648	22892
825.787	23056
825.927	22984
826.067	22885
826.206	22847
826.346	22961
826.485	22991
826.625	22923
826.765	22934
826.904	22904
827.044	22702
827.183	22622
827.323	22607
827.462	22679
827.601	22516
827.741	22519
827.88	22497
828.02	22440
828.159	22481
828.298	22588
828.437	22649
828.577	22459
828.716	22622
828.855	22485
828.994	22188
829.134	22207
829.273	22242
829.412	22211
829.551	22188
829.69	22135
829.829	22394
829.968	22246
830.107	22284
830.246	22242
830.385	22204
830.524	22078
830.663	22029
830.802	21991
830.941	21770
831.08	21857
831.219	21892
831.357	21869
831.496	22010
831.635	21804
831.774	21816
831.913	21625
832.051	21774
832.19	21755
832.329	21922
832.467	21728
832.606	21618
832.744	21629
832.883	21694
833.022	21804
833.16	21926
833.299	22032
833.437	22078
833.576	22333
833.714	22466
833.852	22687
833.991	22618
834.129	22866
834.267	22923
834.406	22828
834.544	22729
834.682	22588
834.821	22474
834.959	22577
835.097	22215
835.235	22158
835.373	22006
835.511	21953
835.65	21660
835.788	21717
835.926	21534
836.064	21336
836.202	21450
836.34	21473
836.478	21549
836.615	21477
836.753	21321
836.891	21485
837.029	21469
837.167	21260
837.305	21184
837.443	21291
837.58	21157
837.718	21214
837.856	21176
837.993	21066
838.131	21104
838.269	20982
838.406	21135
838.544	20948
838.681	20826
838.819	20651
838.956	20606
839.094	20758
839.231	20689
839.369	20853
839.506	21043
839.643	20868
839.781	20450
839.918	20583
840.055	20617
840.193	20518
840.33	20587
840.467	20518
840.604	20526
840.742	20746
840.879	20412
841.016	20465
841.153	20427
841.29	20606
841.427	20545
841.564	20590
841.701	20495
841.838	20465
841.975	20484
842.112	20526
842.249	20404
842.385	20370
842.522	20514
842.659	20415
842.796	20317
842.933	20465
843.069	20355
843.206	20362
843.343	20518
843.479	20492
843.616	20518
843.752	20271
843.889	20396
844.025	20522
844.162	20571
844.298	20735
844.435	20716
844.571	21032
844.708	21382
844.844	21759
844.98	22215
845.117	22752
845.253	23726
845.389	25613
845.525	29383
845.661	35318
845.798	42365
845.934	47288
846.07	49419
846.206	47729
846.342	42958
846.478	35980
846.614	30152
846.75	26244
846.886	23916
847.022	22630
847.158	21610
847.294	21058
847.429	20682
847.565	20461
847.701	20560
847.837	19811
847.972	19811
848.108	19795
848.244	19753
848.379	19514
848.515	19346
848.65	19346
848.786	19304
848.921	19411
849.057	19453
849.192	19460
849.328	19320
849.463	19301
849.598	19274
849.734	19126
849.869	19008
850.004	18947
850.14	19084
850.275	19008
850.41	18981
850.545	18989
850.68	18913
850.815	19076
850.95	18856
851.085	19145
851.22	19065
851.355	18897
851.49	18939
851.625	18966
851.76	18875
851.895	18913
852.03	18928
852.165	18905
852.299	19027
852.434	19057
852.569	19148
852.703	19031
852.838	19088
852.973	19137
853.107	19213
853.242	19118
853.376	18943
853.511	18905
853.645	19088
853.78	19202
853.914	19209
854.048	19148
854.183	19137
854.317	19255
854.451	19449
854.585	19232
854.72	19141
854.854	19247
854.988	19065
855.122	19137
855.256	18916
855.39	18962
855.524	19129
855.658	19046
855.792	18954
855.926	18875
856.06	18913
856.194	19000
856.327	18745
856.461	18863
856.595	18772
856.729	18650
856.862	18871
856.996	18753
857.13	18867
857.263	18779
857.397	18939
857.53	18696
857.664	18825
857.797	18719
857.931	18863
858.064	18760
858.197	18802
858.331	18700
858.464	18597
858.597	18563
858.731	18623
858.864	18521
858.997	18623
859.13	18650
859.263	18627
859.396	18764
859.529	18574
859.662	18597
859.795	18532
859.928	18623
860.061	18798
860.194	18745
860.327	18620
860.46	18502
860.592	18665
860.725	18726
860.858	18639
860.99	18570
861.123	18521
861.256	18559
861.388	18608
861.521	19198
861.653	18483
861.786	18456
861.918	18308
862.05	18483
862.183	18483
862.315	18604
862.447	18486
862.58	18574
862.712	18266
862.844	18247
862.976	18319
863.108	18338
863.24	18582
863.372	18125
863.504	18197
863.636	18136
863.768	18232
863.9	18258
864.032	18174
864.164	18251
864.296	18235
864.428	18243
864.559	18304
864.691	18338
864.823	18323
864.954	18235
865.086	18327
865.217	18034
865.349	18079
865.48	18209
865.612	18213
865.743	18300
865.875	18136
866.006	18117
866.137	18224
866.269	18174
866.4	18155
866.531	18159
866.662	18091
866.793	18136
866.924	18190
867.055	18026
867.186	18197
867.317	18136
867.448	18076
867.579	18049
867.71	18117
867.841	18076
867.972	18091
868.103	18053
868.233	18106
868.364	18091
868.495	18102
868.625	18319
868.756	18407
868.886	18243
869.017	18388
869.147	18506
869.278	18521
869.408	18388
869.539	18445
869.669	18506
869.799	18395
869.929	18585
870.06	18464
870.19	18738
870.32	18658
870.45	18711
870.58	18817
870.71	18985
870.84	19027
870.97	18951
871.1	18890
871.23	19103
871.36	19091
871.489	18943
871.619	19072
871.749	18996
871.879	19312
872.008	19198
872.138	19244
872.267	19175
872.397	19088
872.526	18970
872.656	19000
872.785	19103
872.915	19358
873.044	19396
873.173	19209
873.303	19289
873.432	19331
873.561	19464
873.69	19388
873.819	19422
873.948	19495
874.077	19430
874.206	19480
874.335	19540
874.464	19620
874.593	19814
874.722	19753
874.851	19951
874.979	19959
875.108	20058
875.237	20024
875.365	19936
875.494	19936
875.623	20145
875.751	20183
875.88	20168
876.008	20351
876.136	20575
876.265	20731
876.393	20819
876.521	20887
876.65	20990
876.778	20941
876.906	20975
877.034	21009
877.162	21127
877.29	21055
877.418	21245
877.546	21306
877.674	21363
877.802	21534
877.93	21671
878.058	21854
878.185	21998
878.313	22280
878.441	22710
878.568	22862
878.696	23615
878.824	24479
878.951	25567
879.079	27195
879.206	29277
879.333	31304
879.461	33306
879.588	34253
879.715	34112
879.842	33374
879.97	31487
880.097	29250
880.224	27572
880.351	26381
880.478	25544
880.605	24871
880.732	24456
880.859	24505
880.986	24102
881.112	24095
881.239	23718
881.366	23657
881.493	23524
881.619	23497
881.746	23687
881.872	23577
881.999	23566
882.125	23661
882.252	23748
882.378	23828
882.505	23935
882.631	23805
882.757	23493
882.883	23627
883.01	23604
883.136	23539
883.262	23425
883.388	23368
883.514	23535
883.64	23543
883.766	23391
883.892	23216
884.018	23372
884.143	23490
884.269	23486
884.395	23322
884.52	23273
884.646	23376
884.772	23174
884.897	23216
885.023	23280
885.148	23356
885.274	23284
885.399	23254
885.524	23098
885.65	22889
885.775	22782
885.9	22641
886.025	22588
886.15	22432
886.275	22204
886.4	21918
886.525	22013
886.65	21850
886.775	21644
886.9	21622
887.025	21732
887.149	21363
887.274	21165
887.399	21081
887.523	20887
887.648	20735
887.773	20564
887.897	20731
888.021	20575
888.146	20492
888.27	20598
888.395	20469
888.519	20362
888.643	20404
888.767	20423
888.891	20153
889.015	20027
889.139	20092
889.263	19944
889.387	19993
889.511	20081
889.635	19951
889.759	19738
889.883	19803
890.006	19753
890.13	19719
890.254	19635
890.377	19510
890.501	19403
890.624	19320
890.748	19381
890.871	19168
890.995	19076
891.118	18989
891.241	19088
891.364	18916
891.488	19160
891.611	18985
891.734	19004
891.857	18989
891.98	18954
892.103	18859
892.226	18768
892.349	18848
892.471	18612
892.594	18665
892.717	18783
892.839	18608
892.962	18608
893.085	18642
893.207	18635
893.33	18369
893.452	18445
893.575	18585
893.697	18494
893.819	18604
893.941	18585
894.064	18479
894.186	18323
894.308	18213
894.43	18315
894.552	18525
894.674	18327
894.796	18159
894.918	18277
895.04	18323
895.161	18315
895.283	18365
895.405	18129
895.526	18216
895.648	18121
895.769	18159
895.891	18190
896.012	18110
896.134	18273
896.255	18220
896.376	18106
896.498	18110
896.619	18144
896.74	18060
896.861	18201
896.982	18437
897.103	18654
897.224	18346
897.345	18270
897.466	18213
897.587	18300
897.708	18433
897.828	18342
897.949	18258
898.07	18155
898.19	18144
898.311	18422
898.431	18159
898.552	18292
898.672	18433
898.792	18319
898.913	18258
899.033	18022
899.153	18057
899.273	18034
899.393	17889
899.513	18087
899.633	18034
899.753	18098
899.873	18019
899.993	18129
900.113	17973
900.232	18102
900.352	18026
900.472	17855
900.591	17802
900.711	17931
900.83	17836
900.95	17984
901.069	17874
901.189	17718
901.308	17505
901.427	17402
901.546	17417
901.665	17440
901.784	17353
901.904	17189
902.023	17170
902.141	16991
902.26	16919
902.379	16995
902.498	16801
902.617	16843
902.735	16930
902.854	16809
902.973	16687
903.091	16451
903.21	16596
903.328	16432
903.446	16394
903.565	16344
903.683	16299
903.801	16219
903.919	16234
904.038	16234
904.156	16086
904.274	16192
904.392	16055
904.51	16051
904.627	15968
904.745	16147
904.863	16071
904.981	15873
905.098	15713
905.216	15690
905.334	15633
905.451	15690
905.569	15553
905.686	15633
905.803	15591
905.921	15447
906.038	15553
906.155	15519
906.272	15348
906.389	15408
906.506	15146
906.623	15173
906.74	15157
906.857	15157
906.974	15085
907.091	15317
907.208	15401
907.324	15214
907.441	15077
907.557	14990
907.674	14830
907.79	14800
907.907	14811
908.023	14971
908.139	14906
908.256	14800
908.372	14750
908.488	14663
908.604	14648
908.72	14663
908.836	14644
908.952	14590
909.068	14689
909.184	14659
909.3	14731
909.415	14636
909.531	14621
909.647	14355
909.762	14381
909.878	14210
909.993	14336
910.108	14324
910.224	14282
910.339	14351
910.454	14221
910.57	14214
910.685	14046
910.8	14412
910.915	14366
911.03	14123
911.145	14020
911.259	13898
911.374	14001
911.489	13970
911.604	13879
911.718	13605
911.833	13685
911.947	13605
912.062	13468
912.176	13738
912.291	13753
912.405	13715
912.519	13837
912.633	13841
912.748	13864
912.862	13757
912.976	13609
913.09	13373
913.204	13499
913.318	13548
913.431	13628
913.545	13658
913.659	13662
913.772	13628
913.886	13400
914	13388
914.113	13476
914.226	13533
914.34	13525
914.453	13445
914.566	13472
914.68	13301
914.793	13369
914.906	13187
915.019	13091
915.132	12989
915.245	13103
915.358	13259
915.47	13175
915.583	13126
915.696	13236
915.809	13187
915.921	13247
916.034	13023
916.146	13000
916.259	12977
916.371	13099
916.483	13221
916.595	13107
916.708	13122
916.82	13019
916.932	13057
917.044	13031
917.156	13004
917.268	12882
917.38	12909
917.491	12966
917.603	12916
917.715	12886
917.826	12962
917.938	12753
918.049	12703
918.161	12703
918.272	12958
918.384	12901
918.495	12886
918.606	12650
918.717	12486
918.828	12620
918.939	12650
919.05	12517
919.161	12540
919.272	12342
919.383	12357
919.494	12620
919.604	12806
919.715	12604
919.826	12486
919.936	12578
920.047	12566
920.157	12551
920.267	12715
920.378	12620
920.488	12532
920.598	12707
920.708	12859
920.818	12734
920.928	12817
921.038	12875
921.148	12856
921.258	12528
921.368	12418
921.477	12372
921.587	12346
921.697	12254
921.806	12315
921.916	12186
922.025	12121
922.134	11946
922.244	11988
922.353	11935
922.462	11870
922.571	11889
922.68	11748
922.789	11638
922.898	11748
923.007	11634
923.116	11585
923.224	11573
923.333	11581
923.442	11562
923.55	11509
923.659	11543
923.767	11562
923.876	11459
923.984	11562
924.092	11387
924.201	11429
924.309	11516
924.417	11539
924.525	11372
924.633	11410
924.741	12323
924.849	11136
924.956	11315
925.064	11250
925.172	11071
925.279	11208
925.387	11102
925.494	11185
925.602	11311
925.709	11360
925.816	11086
925.924	11178
926.031	11181
926.138	11143
926.245	11223
926.352	10953
926.459	11231
926.566	11170
926.673	11098
926.779	10919
926.886	10957
926.993	10767
927.099	10881
927.206	10717
927.312	10812
927.419	10881
927.525	10824
927.631	10797
927.737	10721
927.843	10672
927.95	10523
928.056	10645
928.162	10668
928.267	10771
928.373	11235
928.479	10694
928.585	10508
928.69	10615
928.796	10634
928.901	10516
929.007	10409
929.112	10637
929.218	10462
929.323	10493
929.428	10417
929.533	10588
929.638	10402
929.743	10405
929.848	10493
929.953	10432
930.058	10310
930.163	10150
930.267	10227
930.372	10261
930.477	10143
930.581	10398
930.685	10242
930.79	10013
930.894	10067
930.998	10063
931.103	10128
931.207	9903
931.311	9876
931.415	9701
931.519	9622
931.623	9610
