Data from test_V78500241_1556.txt Node
Date: Fri Mar 25 14:44:32 CST 2022
User: usil
Spectrometer: V785-0024
Trigger mode: 0
Integration Time (sec): 4.000000E-1
Scans to average: 1
Nonlinearity correction enabled: false
Boxcar width: 0
Storing dark spectrum: false
XAxis mode: Wavelengths
Number of Pixels in Spectrum: 1024
>>>>>Begin Spectral Data<<<<<
801.071	22375
801.214	22276
801.356	22025
801.499	21998
801.641	21804
801.783	21736
801.926	21846
802.068	21751
802.211	21641
802.353	21450
802.496	21329
802.638	21214
802.78	21237
802.923	21108
803.065	21066
803.208	20994
803.35	21116
803.492	21100
803.635	21291
803.777	21096
803.919	21192
804.061	21595
804.204	21188
804.346	20952
804.488	21017
804.63	21062
804.773	20929
804.915	21047
805.057	21150
805.199	21093
805.341	21161
805.483	21184
805.626	20994
805.768	20906
805.91	20971
806.052	21043
806.194	21058
806.336	21146
806.478	21116
806.62	21028
806.762	21039
806.904	21192
807.046	21416
807.188	21313
807.33	21317
807.472	21378
807.614	21256
807.756	21519
807.898	21135
808.04	21184
808.182	21211
808.324	21100
808.465	21389
808.607	21397
808.749	21553
808.891	21747
809.033	21572
809.174	21572
809.316	21496
809.458	21466
809.6	21382
809.741	21561
809.883	21561
810.025	21614
810.166	21660
810.308	21564
810.45	21458
810.591	21405
810.733	21188
810.875	21203
811.016	21043
811.158	21081
811.299	21260
811.441	21344
811.582	21272
811.724	21268
811.865	21173
812.007	21112
812.148	21154
812.29	21146
812.431	21443
812.573	21587
812.714	21587
812.855	21778
812.997	21774
813.138	21800
813.279	21770
813.421	21701
813.562	21713
813.703	21359
813.845	21348
813.986	21150
814.127	20929
814.268	20891
814.41	20796
814.551	20701
814.692	20883
814.833	20609
814.974	20697
815.115	20804
815.256	20686
815.397	20598
815.539	20560
815.68	20431
815.821	20355
815.962	20503
816.103	20438
816.244	20366
816.385	20286
816.526	20290
816.666	19906
816.807	19864
816.948	19970
817.089	20012
817.23	19868
817.371	19833
817.512	19974
817.653	19814
817.793	19803
817.934	19906
818.075	19967
818.216	19837
818.356	19788
818.497	19708
818.638	19518
818.778	19578
818.919	19643
819.06	19609
819.2	19704
819.341	19620
819.481	19780
819.622	19955
819.762	20100
819.903	19947
820.043	20001
820.184	19890
820.324	19841
820.465	19932
820.605	19913
820.746	19753
820.886	19753
821.026	19734
821.167	19765
821.307	19849
821.447	19791
821.588	19689
821.728	19529
821.868	19392
822.008	19206
822.149	19259
822.289	19270
822.429	18958
822.569	18954
822.709	18996
822.849	18726
822.99	18730
823.13	18760
823.27	18661
823.41	18616
823.55	18460
823.69	18566
823.83	18585
823.97	18608
824.11	18467
824.25	18315
824.389	18232
824.529	18521
824.669	18399
824.809	18395
824.949	18467
825.089	18414
825.228	18334
825.368	18125
825.508	18114
825.648	18098
825.787	18095
825.927	18247
826.067	17980
826.206	18064
826.346	18205
826.485	18140
826.625	18110
826.765	18197
826.904	18079
827.044	17859
827.183	17775
827.323	17771
827.462	17939
827.601	17752
827.741	17676
827.88	17741
828.02	17646
828.159	17798
828.298	17790
828.437	17855
828.577	17786
828.716	17904
828.855	17745
828.994	17577
829.134	17528
829.273	17570
829.412	17467
829.551	17497
829.69	17493
829.829	17573
829.968	17649
830.107	17535
830.246	17528
830.385	17433
830.524	17391
830.663	17265
830.802	17269
830.941	17124
831.08	17094
831.219	17197
831.357	17109
831.496	17376
831.635	17124
831.774	17041
831.913	16946
832.051	16953
832.19	16987
832.329	16957
832.467	16862
832.606	16801
832.744	16839
832.883	16850
833.022	16847
833.16	16748
833.299	16919
833.437	16885
833.576	16930
833.714	16930
833.852	16839
833.991	16896
834.129	16908
834.267	16972
834.406	16953
834.544	17018
834.682	16980
834.821	16793
834.959	17018
835.097	16908
835.235	17060
835.373	16847
835.511	16877
835.65	16694
835.788	16805
835.926	16641
836.064	16538
836.202	16618
836.34	16782
836.478	16862
836.615	16729
836.753	16774
836.891	16896
837.029	16847
837.167	16858
837.305	16763
837.443	16691
837.58	16577
837.718	16622
837.856	16641
837.993	16538
838.131	16603
838.269	16641
838.406	16569
838.544	16455
838.681	16432
838.819	16344
838.956	16139
839.094	16139
839.231	16204
839.369	16329
839.506	16626
839.643	16500
839.781	16204
839.918	16120
840.055	16226
840.193	16093
840.33	16109
840.467	16109
840.604	16234
840.742	16440
840.879	16051
841.016	16044
841.153	16116
841.29	16268
841.427	16219
841.564	16276
841.701	16211
841.838	16166
841.975	16078
842.112	16116
842.249	15903
842.385	15892
842.522	16044
842.659	16051
842.796	15911
842.933	15983
843.069	15972
843.206	15922
843.343	16147
843.479	15953
843.616	15960
843.752	15854
843.889	15770
844.025	15892
844.162	15705
844.298	15869
844.435	15785
844.571	15701
844.708	15759
844.844	15949
844.98	16006
845.117	15861
845.253	15717
845.389	15633
845.525	15717
845.661	15660
845.798	15587
845.934	15713
846.07	15698
846.206	15698
846.342	15781
846.478	15561
846.614	15405
846.75	15351
846.886	15340
847.022	15450
847.158	15313
847.294	15435
847.429	15279
847.565	15287
847.701	15519
847.837	15085
847.972	14971
848.108	15138
848.244	15070
848.379	14933
848.515	14819
848.65	14864
848.786	14941
848.921	14864
849.057	14994
849.192	14960
849.328	15024
849.463	14864
849.598	14880
849.734	14895
849.869	14754
850.004	14689
850.14	14724
850.275	14701
850.41	14644
850.545	14511
850.68	14560
850.815	14644
850.95	14632
851.085	14876
851.22	14781
851.355	14644
851.49	14625
851.625	14648
851.76	14648
851.895	14583
852.03	14541
852.165	14621
852.299	14667
852.434	14716
852.569	14731
852.703	14708
852.838	14762
852.973	14899
853.107	14754
853.242	14648
853.376	14545
853.511	14404
853.645	14564
853.78	14629
853.914	14461
854.048	14457
854.183	14495
854.317	14590
854.451	14686
854.585	14473
854.72	14602
854.854	14606
854.988	14423
855.122	14575
855.256	14362
855.39	14541
855.524	14606
855.658	14583
855.792	14507
855.926	14499
856.06	14537
856.194	14587
856.327	14617
856.461	14400
856.595	14541
856.729	14507
856.862	14667
856.996	14533
857.13	14549
857.263	14545
857.397	14689
857.53	14442
857.664	14621
857.797	14640
857.931	14727
858.064	14454
858.197	14731
858.331	14621
858.464	14541
858.597	14374
858.731	14552
858.864	14499
858.997	14495
859.13	14590
859.263	14552
859.396	14575
859.529	14473
859.662	14495
859.795	14545
859.928	14575
860.061	14815
860.194	14678
860.327	14602
860.46	14518
860.592	14667
860.725	14701
860.858	14667
860.99	14465
861.123	14454
861.256	14461
861.388	14583
861.521	15062
861.653	14423
861.786	14381
861.918	14374
862.05	14488
862.183	14507
862.315	14412
862.447	14587
862.58	14511
862.712	14309
862.844	14290
862.976	14404
863.108	14381
863.24	14682
863.372	14275
863.504	14259
863.636	14271
863.768	14431
863.9	14370
864.032	14267
864.164	14218
864.296	14415
864.428	14396
864.559	14366
864.691	14381
864.823	14389
864.954	14244
865.086	14355
865.217	14381
865.349	14210
865.48	14309
865.612	14320
865.743	14473
865.875	14237
866.006	14267
866.137	14256
866.269	14286
866.4	14320
866.531	14290
866.662	14100
866.793	14298
866.924	14157
867.055	14290
867.186	14237
867.317	14210
867.448	14206
867.579	14161
867.71	14199
867.841	14225
867.972	14320
868.103	14290
868.233	14278
868.364	14282
868.495	14256
868.625	14480
868.756	14549
868.886	14495
869.017	14476
869.147	14545
869.278	14617
869.408	14564
869.539	14579
869.669	14590
869.799	14579
869.929	14602
870.06	14602
870.19	14826
870.32	14830
870.45	14842
870.58	14918
870.71	15005
870.84	15009
870.97	14868
871.1	14872
871.23	15055
871.36	14982
871.489	15032
871.619	14967
871.749	15154
871.879	15154
872.008	15157
872.138	15150
872.267	15154
872.397	15020
872.526	14925
872.656	15028
872.785	14986
872.915	15138
873.044	15245
873.173	15237
873.303	15203
873.432	15169
873.561	15214
873.69	15157
873.819	15195
873.948	15237
874.077	15256
874.206	15127
874.335	15184
874.464	15264
874.593	15454
874.722	15488
874.851	15469
874.979	15530
875.108	15603
875.237	15351
875.365	15359
875.494	15473
875.623	15545
875.751	15466
875.88	15485
876.008	15690
876.136	15770
876.265	15960
876.393	16040
876.521	15994
876.65	15960
876.778	15922
876.906	15816
877.034	15850
877.162	15831
877.29	15842
877.418	15934
877.546	15918
877.674	15842
877.802	15865
877.93	15835
878.058	15907
878.185	15724
878.313	15884
878.441	15899
878.568	15861
878.696	15823
878.824	15945
878.951	16013
879.079	16059
879.206	16333
879.333	16040
879.461	15968
879.588	16074
879.715	16090
879.842	16268
879.97	16093
880.097	15759
880.224	15850
880.351	15816
880.478	15797
880.605	15831
880.732	15743
880.859	15964
880.986	15835
881.112	15831
881.239	15694
881.366	15580
881.493	15526
881.619	15469
881.746	15492
881.872	15443
881.999	15359
882.125	15397
882.252	15443
882.378	15462
882.505	15481
882.631	15351
882.757	15275
882.883	15294
883.01	15226
883.136	15207
883.262	15112
883.388	15146
883.514	15287
883.64	15291
883.766	15161
883.892	15062
884.018	15017
884.143	15363
884.269	15241
884.395	15047
884.52	14925
884.646	15036
884.772	14887
884.897	14933
885.023	14891
885.148	15127
885.274	15020
885.399	15085
885.524	14830
885.65	14956
885.775	15077
885.9	14929
886.025	15036
886.15	14975
886.275	14921
886.4	14807
886.525	14769
886.65	14781
886.775	14804
886.9	14982
887.025	15123
887.149	14849
887.274	14872
887.399	14701
887.523	14769
887.648	14727
887.773	14754
887.897	14807
888.021	14800
888.146	14644
888.27	14876
888.395	14906
888.519	14864
888.643	14807
888.767	14769
888.891	14636
889.015	14575
889.139	14606
889.263	14545
889.387	14670
889.511	14727
889.635	14819
889.759	14533
889.883	14674
890.006	14659
890.13	14727
890.254	14598
890.377	14560
890.501	14469
890.624	14305
890.748	14450
890.871	14256
890.995	14237
891.118	14210
891.241	14248
891.364	14343
891.488	14374
891.611	14210
891.734	14374
891.857	14336
891.98	14320
892.103	14431
892.226	14339
892.349	14248
892.471	14168
892.594	14317
892.717	14282
892.839	14317
892.962	14358
893.085	14351
893.207	14355
893.33	14119
893.452	14221
893.575	14305
893.697	14237
893.819	14484
893.941	14579
894.064	14488
894.186	14355
894.308	14244
894.43	14362
894.552	14499
894.674	14446
894.796	14202
894.918	14305
895.04	14317
895.161	14465
895.283	14423
895.405	14286
895.526	14404
895.648	14381
895.769	14427
895.891	14476
896.012	14518
896.134	14507
896.255	14374
896.376	14556
896.498	14511
896.619	14511
896.74	14541
896.861	14442
896.982	14823
897.103	15020
897.224	14781
897.345	14640
897.466	14606
897.587	14727
897.708	14838
897.828	14773
897.949	14762
898.07	14727
898.19	14727
898.311	14872
898.431	14667
898.552	14834
898.672	14876
898.792	14891
898.913	14853
899.033	14720
899.153	14674
899.273	14530
899.393	14625
899.513	14632
899.633	14663
899.753	14629
899.873	14651
899.993	14697
900.113	14602
900.232	14659
900.352	14602
900.472	14526
900.591	14511
900.711	14583
900.83	14484
900.95	14552
901.069	14610
901.189	14473
901.308	14164
901.427	14233
901.546	14252
901.665	14240
901.784	14233
901.904	14119
902.023	13970
902.141	13864
902.26	13795
902.379	13906
902.498	13704
902.617	13704
902.735	13917
902.854	13742
902.973	13681
903.091	13567
903.21	13483
903.328	13453
903.446	13453
903.565	13365
903.683	13445
903.801	13316
903.919	13377
904.038	13335
904.156	13202
904.274	13266
904.392	13057
904.51	13107
904.627	13156
904.745	13160
904.863	13251
904.981	12821
905.098	12837
905.216	12837
905.334	12890
905.451	12798
905.569	12802
905.686	12875
905.803	12863
905.921	12639
906.038	12700
906.155	12719
906.272	12513
906.389	12494
906.506	12418
906.623	12407
906.74	12407
906.857	12270
906.974	12350
907.091	12414
907.208	12612
907.324	12433
907.441	12338
907.557	12152
907.674	12076
907.79	12106
907.907	12159
908.023	12235
908.139	12216
908.256	12152
908.372	12019
908.488	12083
908.604	12015
908.72	11916
908.836	11935
908.952	11874
909.068	11901
909.184	12125
909.3	11939
909.415	11999
909.531	11893
909.647	11684
909.762	11695
909.878	11676
909.993	11760
910.108	11718
910.224	11592
910.339	11672
910.454	11634
910.57	11554
910.685	11512
910.8	11767
910.915	11608
911.03	11554
911.145	11368
911.259	11345
911.374	11417
911.489	11273
911.604	11261
911.718	11140
911.833	11151
911.947	11121
912.062	10946
912.176	11128
912.291	11064
912.405	11083
912.519	11406
912.633	11315
912.748	11258
912.862	11147
912.976	11056
913.09	10889
913.204	10953
913.318	11121
913.431	11067
913.545	11128
913.659	11170
913.772	10972
913.886	10930
914	10885
914.113	11022
914.226	10991
914.34	10991
914.453	10759
914.566	10915
914.68	10854
914.793	10778
914.906	10702
915.019	10554
915.132	10584
915.245	10622
915.358	10622
915.47	10637
915.583	10656
915.696	10687
915.809	10801
915.921	10835
916.034	10706
916.146	10599
916.259	10592
916.371	10664
916.483	10645
916.595	10550
916.708	10603
916.82	10542
916.932	10519
917.044	10542
917.156	10504
917.268	10455
917.38	10523
917.491	10432
917.603	10474
917.715	10577
917.826	10535
917.938	10428
918.049	10299
918.161	10421
918.272	10653
918.384	10668
918.495	10436
918.606	10318
918.717	10379
918.828	10272
918.939	10386
919.05	10257
919.161	10322
919.272	10105
919.383	10238
919.494	10421
919.604	10558
919.715	10348
919.826	10249
919.936	10394
920.047	10394
920.157	10363
920.267	10630
920.378	10405
920.488	10360
920.598	10527
920.708	10744
920.818	10588
920.928	10580
921.038	10717
921.148	10698
921.258	10367
921.368	10284
921.477	10188
921.587	10135
921.697	10055
921.806	10261
921.916	10105
922.025	9964
922.134	9941
922.244	9876
922.353	9937
922.462	9732
922.571	9728
922.68	9538
922.789	9599
922.898	9614
923.007	9530
923.116	9622
923.224	9572
923.333	9485
923.442	9515
923.55	9412
923.659	9450
923.767	9557
923.876	9447
923.984	9519
924.092	9382
924.201	9462
924.309	9492
924.417	9462
924.525	9450
924.633	9412
924.741	10413
924.849	9142
924.956	9340
925.064	9203
925.172	9165
925.279	9241
925.387	9157
925.494	9279
925.602	9386
925.709	9325
925.816	9131
925.924	9279
926.031	9321
926.138	9275
926.245	9294
926.352	9180
926.459	9279
926.566	9363
926.673	9188
926.779	9138
926.886	9024
926.993	8967
927.099	8975
927.206	8967
927.312	8967
927.419	9043
927.525	8956
927.631	8963
927.737	8819
927.843	8845
927.95	8724
928.056	8788
928.162	8948
928.267	8929
928.373	9458
928.479	8937
928.585	8739
928.69	8807
928.796	8941
928.901	8708
929.007	8625
929.112	8773
929.218	8727
929.323	8708
929.428	8697
929.533	8845
929.638	8590
929.743	8644
929.848	8701
929.953	8686
930.058	8556
930.163	8396
930.267	8511
930.372	8545
930.477	8419
930.581	8644
930.685	8556
930.79	8419
930.894	8461
930.998	8351
931.103	8583
931.207	8157
931.311	8096
931.415	8073
931.519	7993
931.623	7925
