Data from test_V78500241_2946.txt Node
Date: Fri Mar 25 14:54:13 CST 2022
User: usil
Spectrometer: V785-0024
Trigger mode: 0
Integration Time (sec): 4.000000E-1
Scans to average: 1
Nonlinearity correction enabled: false
Boxcar width: 0
Storing dark spectrum: false
XAxis mode: Wavelengths
Number of Pixels in Spectrum: 1024
>>>>>Begin Spectral Data<<<<<
801.071	22059
801.214	22006
801.356	21663
801.499	21682
801.641	21622
801.783	21488
801.926	21553
802.068	21389
802.211	21298
802.353	21336
802.496	21020
802.638	20914
802.78	20887
802.923	20937
803.065	20834
803.208	20682
803.35	20834
803.492	20933
803.635	20929
803.777	20834
803.919	20823
804.061	21142
804.204	20895
804.346	20648
804.488	20651
804.63	20781
804.773	20670
804.915	20670
805.057	20800
805.199	20735
805.341	20834
805.483	20880
805.626	20769
805.768	20682
805.91	20845
806.052	20693
806.194	20575
806.336	20845
806.478	20693
806.62	20705
806.762	20769
806.904	20891
807.046	21146
807.188	21043
807.33	21093
807.472	20982
807.614	21001
807.756	21028
807.898	20937
808.04	20788
808.182	20838
808.324	20899
808.465	20815
808.607	20967
808.749	21180
808.891	21203
809.033	21169
809.174	21188
809.316	21009
809.458	21055
809.6	20921
809.741	21028
809.883	21131
810.025	21256
810.166	21165
810.308	21180
810.45	21260
810.591	21180
810.733	20975
810.875	20826
811.016	20853
811.158	20762
811.299	20891
811.441	20937
811.582	20914
811.724	20868
811.865	20914
812.007	20845
812.148	20777
812.29	20826
812.431	20944
812.573	21104
812.714	21378
812.855	21340
812.997	21496
813.138	21462
813.279	21496
813.421	21424
813.562	21241
813.703	21203
813.845	21070
813.986	20727
814.127	20632
814.268	20625
814.41	20503
814.551	20309
814.692	20358
814.833	20259
814.974	20381
815.115	20404
815.256	20259
815.397	20191
815.539	20191
815.68	20206
815.821	20073
815.962	20206
816.103	20096
816.244	20012
816.385	19822
816.526	19818
816.666	19765
816.807	19521
816.948	19559
817.089	19662
817.23	19582
817.371	19422
817.512	19609
817.653	19468
817.793	19495
817.934	19548
818.075	19487
818.216	19567
818.356	19483
818.497	19422
818.638	19168
818.778	19270
818.919	19072
819.06	19053
819.2	19373
819.341	19312
819.481	19411
819.622	19457
819.762	19670
819.903	19613
820.043	19548
820.184	19460
820.324	19510
820.465	19594
820.605	19396
820.746	19559
820.886	19373
821.026	19480
821.167	19460
821.307	19464
821.447	19403
821.588	19183
821.728	19080
821.868	19072
822.008	18871
822.149	18875
822.289	18848
822.429	18673
822.569	18688
822.709	18574
822.849	18422
822.99	18372
823.13	18399
823.27	18369
823.41	18224
823.55	18155
823.69	18167
823.83	18136
823.97	18076
824.11	17999
824.25	17916
824.389	17980
824.529	18022
824.669	17813
824.809	17996
824.949	18079
825.089	18072
825.228	17973
825.368	17836
825.508	17809
825.648	17733
825.787	17695
825.927	17821
826.067	17676
826.206	17676
826.346	17756
826.485	17707
826.625	17733
826.765	17897
826.904	17741
827.044	17573
827.183	17589
827.323	17486
827.462	17429
827.601	17490
827.741	17383
827.88	17402
828.02	17349
828.159	17383
828.298	17452
828.437	17349
828.577	17395
828.716	17410
828.855	17345
828.994	17261
829.134	17170
829.273	17113
829.412	17140
829.551	17181
829.69	17239
829.829	17200
829.968	17261
830.107	17242
830.246	17223
830.385	17143
830.524	17010
830.663	16984
830.802	16824
830.941	16790
831.08	16725
831.219	16877
831.357	16908
831.496	17056
831.635	16740
831.774	16721
831.913	16618
832.051	16489
832.19	16519
832.329	16637
832.467	16542
832.606	16402
832.744	16325
832.883	16493
833.022	16436
833.16	16447
833.299	16508
833.437	16337
833.576	16542
833.714	16584
833.852	16592
833.991	16546
834.129	16622
834.267	16596
834.406	16508
834.544	16611
834.682	16622
834.821	16664
834.959	16672
835.097	16405
835.235	16535
835.373	16459
835.511	16577
835.65	16466
835.788	16538
835.926	16295
836.064	16284
836.202	16284
836.34	16436
836.478	16550
836.615	16394
836.753	16451
836.891	16462
837.029	16485
837.167	16386
837.305	16352
837.443	16204
837.58	16177
837.718	16390
837.856	16363
837.993	16242
838.131	16325
838.269	16185
838.406	16196
838.544	16112
838.681	16017
838.819	15960
838.956	15854
839.094	15884
839.231	15907
839.369	16029
839.506	16261
839.643	16055
839.781	15846
839.918	15869
840.055	15857
840.193	15884
840.33	15850
840.467	15732
840.604	15884
840.742	16162
840.879	15724
841.016	15762
841.153	15720
841.29	15895
841.427	15781
841.564	15918
841.701	15797
841.838	15808
841.975	15667
842.112	15743
842.249	15591
842.385	15622
842.522	15759
842.659	15644
842.796	15679
842.933	15606
843.069	15603
843.206	15622
843.343	15622
843.479	15637
843.616	15717
843.752	15519
843.889	15424
844.025	15515
844.162	15367
844.298	15431
844.435	15336
844.571	15363
844.708	15454
844.844	15523
844.98	15523
845.117	15412
845.253	15408
845.389	15173
845.525	15294
845.661	15260
845.798	15180
845.934	15169
846.07	15180
846.206	15249
846.342	15363
846.478	15218
846.614	15013
846.75	14925
846.886	14967
847.022	15077
847.158	15051
847.294	15043
847.429	15001
847.565	14941
847.701	15222
847.837	14727
847.972	14727
848.108	14724
848.244	14727
848.379	14602
848.515	14590
848.65	14568
848.786	14556
848.921	14564
849.057	14587
849.192	14708
849.328	14549
849.463	14598
849.598	14530
849.734	14533
849.869	14381
850.004	14305
850.14	14442
850.275	14370
850.41	14214
850.545	14347
850.68	14343
850.815	14396
850.95	14317
851.085	14492
851.22	14419
851.355	14396
851.49	14233
851.625	14286
851.76	14332
851.895	14263
852.03	14221
852.165	14290
852.299	14313
852.434	14408
852.569	14320
852.703	14263
852.838	14385
852.973	14400
853.107	14412
853.242	14317
853.376	14149
853.511	14046
853.645	14119
853.78	14324
853.914	14195
854.048	14161
854.183	14126
854.317	14282
854.451	14320
854.585	14210
854.72	14176
854.854	14210
854.988	14168
855.122	14233
855.256	14050
855.39	14142
855.524	14256
855.658	14183
855.792	14362
855.926	14210
856.06	14355
856.194	14366
856.327	14126
856.461	14126
856.595	14111
856.729	14176
856.862	14278
856.996	14210
857.13	14248
857.263	14286
857.397	14434
857.53	14199
857.664	14278
857.797	14278
857.931	14191
858.064	14248
858.197	14362
858.331	14244
858.464	14153
858.597	14123
858.731	14252
858.864	14138
858.997	14115
859.13	14332
859.263	14259
859.396	14244
859.529	14206
859.662	14157
859.795	14111
859.928	14320
860.061	14336
860.194	14381
860.327	14149
860.46	14210
860.592	14290
860.725	14294
860.858	14408
860.99	14107
861.123	14134
861.256	14046
861.388	14195
861.521	14731
861.653	14119
861.786	14020
861.918	14062
862.05	14168
862.183	14062
862.315	14100
862.447	14187
862.58	14180
862.712	13909
862.844	13928
862.976	14077
863.108	14027
863.24	14358
863.372	13951
863.504	13913
863.636	13906
863.768	14050
863.9	13947
864.032	13963
864.164	13955
864.296	14069
864.428	14081
864.559	14126
864.691	14081
864.823	14092
864.954	13982
865.086	14016
865.217	13947
865.349	13940
865.48	13925
865.612	13970
865.743	14164
865.875	13955
866.006	13906
866.137	13974
866.269	13928
866.4	13898
866.531	13917
866.662	13826
866.793	13898
866.924	13894
867.055	13921
867.186	13921
867.317	13932
867.448	13913
867.579	13894
867.71	13864
867.841	13890
867.972	14016
868.103	13947
868.233	13902
868.364	14069
868.495	14069
868.625	14157
868.756	14256
868.886	14096
869.017	14221
869.147	14309
869.278	14339
869.408	14233
869.539	14210
869.669	14339
869.799	14214
869.929	14324
870.06	14282
870.19	14545
870.32	14492
870.45	14575
870.58	14568
870.71	14758
870.84	14769
870.97	14659
871.1	14594
871.23	14819
871.36	14769
871.489	14708
871.619	14819
871.749	14743
871.879	14941
872.008	14918
872.138	14781
872.267	14773
872.397	14686
872.526	14667
872.656	14629
872.785	14636
872.915	14906
873.044	14921
873.173	14880
873.303	14941
873.432	14845
873.561	14899
873.69	14876
873.819	14727
873.948	14868
874.077	14876
874.206	14872
874.335	14857
874.464	15116
874.593	15051
874.722	15009
874.851	15154
874.979	15184
875.108	15150
875.237	15116
875.365	15013
875.494	15207
875.623	15214
875.751	15085
875.88	15176
876.008	15279
876.136	15435
876.265	15610
876.393	15675
876.521	15694
876.65	15618
876.778	15591
876.906	15561
877.034	15519
877.162	15511
877.29	15481
877.418	15576
877.546	15599
877.674	15599
877.802	15667
877.93	15572
878.058	15606
878.185	15492
878.313	15564
878.441	15557
878.568	15473
878.696	15481
878.824	15644
878.951	15641
879.079	15831
879.206	15949
879.333	15739
879.461	15618
879.588	15739
879.715	15800
879.842	15915
879.97	15618
880.097	15466
880.224	15370
880.351	15469
880.478	15485
880.605	15412
880.732	15485
880.859	15663
880.986	15447
881.112	15447
881.239	15374
881.366	15176
881.493	15127
881.619	15062
881.746	15062
881.872	15127
881.999	15077
882.125	15077
882.252	15207
882.378	15131
882.505	15294
882.631	14998
882.757	14895
882.883	14937
883.01	15009
883.136	14853
883.262	14735
883.388	14727
883.514	14902
883.64	14941
883.766	14845
883.892	14663
884.018	14826
884.143	14891
884.269	15081
884.395	14746
884.52	14598
884.646	14629
884.772	14533
884.897	14438
885.023	14530
885.148	14739
885.274	14872
885.399	14785
885.524	14610
885.65	14667
885.775	14587
885.9	14594
886.025	14689
886.15	14743
886.275	14632
886.4	14590
886.525	14507
886.65	14552
886.775	14484
886.9	14743
887.025	14785
887.149	14598
887.274	14438
887.399	14514
887.523	14457
887.648	14305
887.773	14404
887.897	14583
888.021	14594
888.146	14370
888.27	14511
888.395	14655
888.519	14480
888.643	14590
888.767	14511
888.891	14320
889.015	14320
889.139	14301
889.263	14317
889.387	14427
889.511	14579
889.635	14465
889.759	14396
889.883	14324
890.006	14381
890.13	14419
890.254	14248
890.377	14248
890.501	14134
890.624	14180
890.748	14183
890.871	14126
890.995	13963
891.118	13947
891.241	13997
891.364	14012
891.488	14084
891.611	14039
891.734	14096
891.857	14081
891.98	14024
892.103	14115
892.226	14073
892.349	14024
892.471	13852
892.594	13928
892.717	14130
892.839	13982
892.962	13989
893.085	14008
893.207	14096
893.33	13970
893.452	13947
893.575	14115
893.697	14012
893.819	14237
893.941	14187
894.064	14138
894.186	14024
894.308	13963
894.43	14176
894.552	14282
894.674	14115
894.796	13982
894.918	14107
895.04	14050
895.161	14126
895.283	14138
895.405	14058
895.526	14054
895.648	14164
895.769	14145
895.891	14244
896.012	14294
896.134	14298
896.255	14214
896.376	14229
896.498	14115
896.619	14259
896.74	14164
896.861	14206
896.982	14514
897.103	14697
897.224	14522
897.345	14324
897.466	14400
897.587	14400
897.708	14480
897.828	14549
897.949	14305
898.07	14267
898.19	14343
898.311	14670
898.431	14568
898.552	14545
898.672	14598
898.792	14617
898.913	14530
899.033	14473
899.153	14374
899.273	14313
899.393	14347
899.513	14438
899.633	14427
899.753	14415
899.873	14396
899.993	14518
900.113	14362
900.232	14434
900.352	14393
900.472	14328
900.591	14271
900.711	14263
900.83	14282
900.95	14362
901.069	14347
901.189	14092
901.308	13944
901.427	13902
901.546	13913
901.665	13925
901.784	13875
901.904	13837
902.023	13689
902.141	13548
902.26	13540
902.379	13643
902.498	13499
902.617	13495
902.735	13563
902.854	13487
902.973	13426
903.091	13251
903.21	13285
903.328	13236
903.446	13221
903.565	13099
903.683	13114
903.801	12954
903.919	13072
904.038	13042
904.156	12897
904.274	13038
904.392	12882
904.51	12954
904.627	12890
904.745	12913
904.863	12954
904.981	12654
905.098	12547
905.216	12597
905.334	12631
905.451	12616
905.569	12585
905.686	12753
905.803	12582
905.921	12418
906.038	12464
906.155	12330
906.272	12315
906.389	12369
906.506	12232
906.623	12235
906.74	12125
906.857	12019
906.974	12079
907.091	12270
907.208	12300
907.324	12197
907.441	12083
907.557	11950
907.674	11946
907.79	11908
907.907	11939
908.023	11988
908.139	11935
908.256	11882
908.372	11771
908.488	11790
908.604	11691
908.72	11691
908.836	11684
908.952	11600
909.068	11665
909.184	11824
909.3	11733
909.415	11817
909.531	11718
909.647	11516
909.762	11433
909.878	11440
909.993	11452
910.108	11417
910.224	11349
910.339	11436
910.454	11414
910.57	11303
910.685	11318
910.8	11509
910.915	11459
911.03	11406
911.145	11132
911.259	11235
911.374	11239
911.489	11117
911.604	11045
911.718	11041
911.833	10968
911.947	10889
912.062	10812
912.176	10957
912.291	10904
912.405	11025
912.519	11113
912.633	11170
912.748	10987
912.862	11003
912.976	10820
913.09	10801
913.204	10824
913.318	10850
913.431	10904
913.545	10881
913.659	11041
913.772	10843
913.886	10763
914	10660
914.113	10862
914.226	10892
914.34	10809
914.453	10630
914.566	10839
914.68	10634
914.793	10683
914.906	10516
915.019	10436
915.132	10421
915.245	10432
915.358	10474
915.47	10481
915.583	10443
915.696	10497
915.809	10603
915.921	10637
916.034	10462
916.146	10322
916.259	10462
916.371	10519
916.483	10481
916.595	10470
916.708	10398
916.82	10470
916.932	10348
917.044	10390
917.156	10341
917.268	10291
917.38	10261
917.491	10204
917.603	10325
917.715	10394
917.826	10413
917.938	10280
918.049	10124
918.161	10310
918.272	10493
918.384	10474
918.495	10341
918.606	10249
918.717	10158
918.828	10227
918.939	10215
919.05	10093
919.161	10177
919.272	10002
919.383	10013
919.494	10249
919.604	10356
919.715	10253
919.826	10124
919.936	10185
920.047	10207
920.157	10219
920.267	10409
920.378	10185
920.488	10173
920.598	10421
920.708	10546
920.818	10409
920.928	10394
921.038	10535
921.148	10535
921.258	10280
921.368	10131
921.477	10082
921.587	10036
921.697	9960
921.806	10078
921.916	9983
922.025	9759
922.134	9755
922.244	9770
922.353	9800
922.462	9618
922.571	9595
922.68	9496
922.789	9336
922.898	9481
923.007	9412
923.116	9515
923.224	9466
923.333	9473
923.442	9336
923.55	9302
923.659	9310
923.767	9412
923.876	9348
923.984	9374
924.092	9268
924.201	9363
924.309	9291
924.417	9249
924.525	9264
924.633	9275
924.741	10181
924.849	9100
924.956	9260
925.064	9055
925.172	9051
925.279	9154
925.387	9157
925.494	9154
925.602	9279
925.709	9272
925.816	9039
925.924	9138
926.031	9230
926.138	9184
926.245	9211
926.352	9097
926.459	9112
926.566	9233
926.673	9150
926.779	8952
926.886	9005
926.993	8872
927.099	8834
927.206	8746
927.312	8811
927.419	8819
927.525	8788
927.631	8895
927.737	8754
927.843	8731
927.95	8651
928.056	8682
928.162	8663
928.267	8758
928.373	9370
928.479	8819
928.585	8579
928.69	8746
928.796	8819
928.901	8640
929.007	8488
929.112	8648
929.218	8549
929.323	8514
929.428	8503
929.533	8670
929.638	8476
929.743	8488
929.848	8629
929.953	8610
930.058	8507
930.163	8324
930.267	8362
930.372	8476
930.477	8259
930.581	8541
930.685	8381
930.79	8248
930.894	8267
930.998	8229
931.103	8370
931.207	8100
931.311	8039
931.415	7967
931.519	7708
931.623	7742
