Data from test_V78500241_2256.txt Node
Date: Fri Mar 25 14:49:25 CST 2022
User: usil
Spectrometer: V785-0024
Trigger mode: 0
Integration Time (sec): 4.000000E-1
Scans to average: 1
Nonlinearity correction enabled: false
Boxcar width: 0
Storing dark spectrum: false
XAxis mode: Wavelengths
Number of Pixels in Spectrum: 1024
>>>>>Begin Spectral Data<<<<<
801.071	22249
801.214	21975
801.356	21739
801.499	21732
801.641	21667
801.783	21545
801.926	21599
802.068	21599
802.211	21344
802.353	21412
802.496	21176
802.638	21066
802.78	21112
802.923	20948
803.065	20868
803.208	20876
803.35	20971
803.492	21112
803.635	20906
803.777	20864
803.919	21017
804.061	21119
804.204	20937
804.346	20765
804.488	20842
804.63	20853
804.773	20785
804.915	20804
805.057	20883
805.199	20792
805.341	20941
805.483	20937
805.626	20933
805.768	20902
805.91	20807
806.052	20853
806.194	20758
806.336	20963
806.478	20788
806.62	20804
806.762	20804
806.904	21039
807.046	21176
807.188	21096
807.33	21043
807.472	21233
807.614	21089
807.756	21051
807.898	20967
808.04	20906
808.182	20838
808.324	20876
808.465	20849
808.607	21085
808.749	21165
808.891	21241
809.033	21367
809.174	21245
809.316	21108
809.458	21233
809.6	21123
809.741	21203
809.883	21154
810.025	21359
810.166	21279
810.308	21504
810.45	21340
810.591	21173
810.733	21123
810.875	21066
811.016	20914
811.158	20899
811.299	21074
811.441	21024
811.582	21119
811.724	20918
811.865	20944
812.007	20853
812.148	20883
812.29	20906
812.431	21165
812.573	21283
812.714	21279
812.855	21447
812.997	21538
813.138	21644
813.279	21553
813.421	21488
813.562	21355
813.703	21146
813.845	21001
813.986	20811
814.127	20667
814.268	20552
814.41	20518
814.551	20461
814.692	20602
814.833	20450
814.974	20438
815.115	20518
815.256	20412
815.397	20256
815.539	20351
815.68	20252
815.821	20206
815.962	20267
816.103	20180
816.244	20069
816.385	19955
816.526	19982
816.666	19818
816.807	19674
816.948	19803
817.089	19803
817.23	19719
817.371	19647
817.512	19727
817.653	19537
817.793	19491
817.934	19575
818.075	19662
818.216	19556
818.356	19624
818.497	19400
818.638	19179
818.778	19213
818.919	19282
819.06	19240
819.2	19346
819.341	19430
819.481	19381
819.622	19712
819.762	19845
819.903	19708
820.043	19708
820.184	19666
820.324	19613
820.465	19727
820.605	19529
820.746	19548
820.886	19537
821.026	19712
821.167	19590
821.307	19635
821.447	19639
821.588	19487
821.728	19343
821.868	19118
822.008	18973
822.149	19004
822.289	19023
822.429	18817
822.569	18673
822.709	18616
822.849	18502
822.99	18471
823.13	18563
823.27	18502
823.41	18399
823.55	18194
823.69	18403
823.83	18346
823.97	18205
824.11	18053
824.25	18053
824.389	18133
824.529	18087
824.669	17973
824.809	18102
824.949	18205
825.089	18121
825.228	18053
825.368	17832
825.508	17866
825.648	18026
825.787	17920
825.927	18003
826.067	17775
826.206	17916
826.346	17969
826.485	17843
826.625	17901
826.765	18057
826.904	17923
827.044	17676
827.183	17680
827.323	17589
827.462	17695
827.601	17581
827.741	17543
827.88	17566
828.02	17497
828.159	17490
828.298	17615
828.437	17577
828.577	17444
828.716	17665
828.855	17440
828.994	17349
829.134	17436
829.273	17444
829.412	17254
829.551	17204
829.69	17341
829.829	17376
829.968	17364
830.107	17345
830.246	17299
830.385	17299
830.524	17151
830.663	17185
830.802	17064
830.941	16976
831.08	16869
831.219	16930
831.357	17022
831.496	17185
831.635	16908
831.774	16854
831.913	16828
832.051	16809
832.19	16774
832.329	16702
832.467	16656
832.606	16512
832.744	16542
832.883	16611
833.022	16550
833.16	16592
833.299	16603
833.437	16717
833.576	16622
833.714	16634
833.852	16542
833.991	16660
834.129	16679
834.267	16729
834.406	16793
834.544	16668
834.682	16675
834.821	16588
834.959	16797
835.097	16611
835.235	16797
835.373	16698
835.511	16679
835.65	16481
835.788	16451
835.926	16390
836.064	16344
836.202	16382
836.34	16481
836.478	16561
836.615	16569
836.753	16618
836.891	16569
837.029	16584
837.167	16588
837.305	16478
837.443	16382
837.58	16280
837.718	16485
837.856	16447
837.993	16394
838.131	16402
838.269	16310
838.406	16318
838.544	16246
838.681	16097
838.819	16185
838.956	15964
839.094	16017
839.231	16029
839.369	16204
839.506	16287
839.643	16268
839.781	15922
839.918	15876
840.055	16002
840.193	15808
840.33	15979
840.467	15835
840.604	15987
840.742	16147
840.879	15785
841.016	15873
841.153	15854
841.29	16074
841.427	15975
841.564	15899
841.701	15953
841.838	15983
841.975	15857
842.112	15892
842.249	15732
842.385	15728
842.522	15934
842.659	15720
842.796	15747
842.933	15895
843.069	15713
843.206	15705
843.343	15793
843.479	15720
843.616	15743
843.752	15542
843.889	15496
844.025	15557
844.162	15545
844.298	15553
844.435	15576
844.571	15447
844.708	15492
844.844	15709
844.98	15625
845.117	15648
845.253	15405
845.389	15405
845.525	15549
845.661	15389
845.798	15340
845.934	15405
846.07	15173
846.206	15428
846.342	15507
846.478	15340
846.614	15142
846.75	15116
846.886	14994
847.022	15119
847.158	15085
847.294	15169
847.429	15108
847.565	15017
847.701	15374
847.837	14872
847.972	14746
848.108	14853
848.244	14868
848.379	14701
848.515	14746
848.65	14602
848.786	14613
848.921	14663
849.057	14701
849.192	14724
849.328	14781
849.463	14682
849.598	14716
849.734	14583
849.869	14621
850.004	14583
850.14	14518
850.275	14530
850.41	14385
850.545	14393
850.68	14317
850.815	14526
850.95	14400
851.085	14583
851.22	14568
851.355	14454
851.49	14446
851.625	14408
851.76	14476
851.895	14393
852.03	14305
852.165	14450
852.299	14564
852.434	14492
852.569	14537
852.703	14469
852.838	14518
852.973	14594
853.107	14549
853.242	14415
853.376	14332
853.511	14176
853.645	14229
853.78	14423
853.914	14343
854.048	14282
854.183	14267
854.317	14313
854.451	14480
854.585	14278
854.72	14309
854.854	14317
854.988	14282
855.122	14267
855.256	14172
855.39	14324
855.524	14396
855.658	14339
855.792	14309
855.926	14351
856.06	14419
856.194	14408
856.327	14393
856.461	14214
856.595	14225
856.729	14298
856.862	14427
856.996	14343
857.13	14461
857.263	14526
857.397	14484
857.53	14324
857.664	14358
857.797	14374
857.931	14377
858.064	14400
858.197	14457
858.331	14309
858.464	14202
858.597	14195
858.731	14328
858.864	14324
858.997	14278
859.13	14286
859.263	14370
859.396	14351
859.529	14320
859.662	14240
859.795	14377
859.928	14396
860.061	14404
860.194	14530
860.327	14347
860.46	14267
860.592	14355
860.725	14389
860.858	14465
860.99	14393
861.123	14225
861.256	14366
861.388	14377
861.521	14849
861.653	14244
861.786	14195
861.918	14123
862.05	14259
862.183	14324
862.315	14282
862.447	14298
862.58	14252
862.712	14016
862.844	14096
862.976	14153
863.108	14248
863.24	14419
863.372	13978
863.504	14058
863.636	14115
863.768	14073
863.9	14084
864.032	14043
864.164	14001
864.296	14225
864.428	14183
864.559	14282
864.691	14176
864.823	14206
864.954	14142
865.086	14073
865.217	14096
865.349	13997
865.48	14172
865.612	14016
865.743	14221
865.875	14046
866.006	14054
866.137	14115
866.269	14134
866.4	14050
866.531	14001
866.662	14024
866.793	13967
866.924	13936
867.055	14088
867.186	14012
867.317	14027
867.448	13993
867.579	14043
867.71	13986
867.841	13986
867.972	14176
868.103	14115
868.233	14069
868.364	14168
868.495	14115
868.625	14286
868.756	14362
868.886	14320
869.017	14240
869.147	14362
869.278	14374
869.408	14286
869.539	14309
869.669	14381
869.799	14389
869.929	14461
870.06	14461
870.19	14629
870.32	14674
870.45	14636
870.58	14724
870.71	14830
870.84	14769
870.97	14712
871.1	14716
871.23	14906
871.36	14918
871.489	14781
871.619	14883
871.749	14929
871.879	14914
872.008	15112
872.138	14952
872.267	14845
872.397	14727
872.526	14758
872.656	14648
872.785	14788
872.915	14910
873.044	15024
873.173	14891
873.303	15028
873.432	14975
873.561	15066
873.69	15043
873.819	14960
873.948	15009
874.077	14952
874.206	15017
874.335	14948
874.464	15157
874.593	15214
874.722	15199
874.851	15310
874.979	15268
875.108	15260
875.237	15264
875.365	15218
875.494	15264
875.623	15416
875.751	15291
875.88	15291
876.008	15492
876.136	15443
876.265	15713
876.393	15854
876.521	15789
876.65	15785
876.778	15739
876.906	15648
877.034	15682
877.162	15648
877.29	15587
877.418	15720
877.546	15739
877.674	15652
877.802	15739
877.93	15671
878.058	15644
878.185	15595
878.313	15717
878.441	15652
878.568	15584
878.696	15549
878.824	15679
878.951	15793
879.079	15895
879.206	15937
879.333	15854
879.461	15759
879.588	15766
879.715	15819
879.842	15987
879.97	15804
880.097	15454
880.224	15580
880.351	15568
880.478	15576
880.605	15545
880.732	15595
880.859	15831
880.986	15564
881.112	15519
881.239	15450
881.366	15386
881.493	15260
881.619	15150
881.746	15184
881.872	15260
881.999	15176
882.125	15135
882.252	15336
882.378	15192
882.505	15313
882.631	15146
882.757	15039
882.883	15051
883.01	15051
883.136	14963
883.262	14906
883.388	14819
883.514	15024
883.64	14998
883.766	14914
883.892	14819
884.018	14826
884.143	15009
884.269	15089
884.395	14826
884.52	14648
884.646	14621
884.772	14693
884.897	14590
885.023	14727
885.148	14807
885.274	14941
885.399	14823
885.524	14716
885.65	14640
885.775	14788
885.9	14724
886.025	14788
886.15	14830
886.275	14739
886.4	14667
886.525	14735
886.65	14667
886.775	14606
886.9	14887
887.025	14925
887.149	14663
887.274	14514
887.399	14461
887.523	14556
887.648	14438
887.773	14480
887.897	14560
888.021	14674
888.146	14549
888.27	14648
888.395	14602
888.519	14526
888.643	14632
888.767	14613
888.891	14446
889.015	14271
889.139	14514
889.263	14389
889.387	14431
889.511	14602
889.635	14522
889.759	14400
889.883	14355
890.006	14469
890.13	14541
890.254	14339
890.377	14305
890.501	14206
890.624	14214
890.748	14244
890.871	14168
890.995	13997
891.118	13989
891.241	14103
891.364	14145
891.488	14244
891.611	14096
891.734	14130
891.857	14107
891.98	14115
892.103	14180
892.226	14157
892.349	14100
892.471	13951
892.594	14077
892.717	14225
892.839	14050
892.962	14065
893.085	14199
893.207	14168
893.33	14039
893.452	14046
893.575	14149
893.697	14073
893.819	14218
893.941	14332
894.064	14278
894.186	14084
894.308	14031
894.43	14206
894.552	14343
894.674	14290
894.796	14103
894.918	14138
895.04	14206
895.161	14286
895.283	14233
895.405	14142
895.526	14263
895.648	14195
895.769	14202
895.891	14240
896.012	14347
896.134	14374
896.255	14244
896.376	14263
896.498	14294
896.619	14374
896.74	14271
896.861	14256
896.982	14655
897.103	14743
897.224	14507
897.345	14522
897.466	14442
897.587	14488
897.708	14655
897.828	14640
897.949	14530
898.07	14408
898.19	14457
898.311	14606
898.431	14507
898.552	14697
898.672	14762
898.792	14777
898.913	14659
899.033	14533
899.153	14454
899.273	14484
899.393	14537
899.513	14480
899.633	14552
899.753	14552
899.873	14492
899.993	14579
900.113	14454
900.232	14549
900.352	14503
900.472	14339
900.591	14400
900.711	14332
900.83	14240
900.95	14457
901.069	14423
901.189	14404
901.308	14054
901.427	14016
901.546	14107
901.665	14062
901.784	14084
901.904	13837
902.023	13906
902.141	13643
902.26	13582
902.379	13731
902.498	13696
902.617	13628
902.735	13689
902.854	13643
902.973	13537
903.091	13343
903.21	13373
903.328	13263
903.446	13278
903.565	13183
903.683	13164
903.801	13027
903.919	13213
904.038	13171
904.156	12951
904.274	13080
904.392	12970
904.51	12954
904.627	13038
904.745	13050
904.863	13069
904.981	12757
905.098	12692
905.216	12703
905.334	12658
905.451	12684
905.569	12582
905.686	12798
905.803	12677
905.921	12475
906.038	12544
906.155	12483
906.272	12353
906.389	12353
906.506	12403
906.623	12285
906.74	12163
906.857	12171
906.974	12178
907.091	12300
907.208	12327
907.324	12300
907.441	12152
907.557	11996
907.674	12034
907.79	11977
907.907	12019
908.023	12015
908.139	12076
908.256	11904
908.372	11961
908.488	11939
908.604	11821
908.72	11767
908.836	11733
908.952	11794
909.068	11764
909.184	11821
909.3	11790
909.415	11805
909.531	11745
909.647	11596
909.762	11532
909.878	11478
909.993	11551
910.108	11532
910.224	11573
910.339	11516
910.454	11448
910.57	11436
910.685	11376
910.8	11573
910.915	11482
911.03	11448
911.145	11204
911.259	11246
911.374	11193
911.489	11113
911.604	11094
911.718	10923
911.833	11003
911.947	10869
912.062	10805
912.176	11029
912.291	10999
912.405	10968
912.519	11128
912.633	11227
912.748	11090
912.862	10999
912.976	10843
913.09	10714
913.204	10816
913.318	10904
913.431	11033
913.545	10877
913.659	11022
913.772	10892
913.886	10755
914	10656
914.113	10790
914.226	10904
914.34	10885
914.453	10637
914.566	10828
914.68	10729
914.793	10672
914.906	10516
915.019	10519
915.132	10417
915.245	10550
915.358	10527
915.47	10527
915.583	10565
915.696	10561
915.809	10687
915.921	10675
916.034	10440
916.146	10398
916.259	10379
916.371	10531
916.483	10459
916.595	10375
916.708	10459
916.82	10421
916.932	10352
917.044	10409
917.156	10413
917.268	10295
917.38	10329
917.491	10329
917.603	10329
917.715	10390
917.826	10474
917.938	10333
918.049	10227
918.161	10306
918.272	10440
918.384	10428
918.495	10402
918.606	10268
918.717	10169
918.828	10204
918.939	10276
919.05	10074
919.161	10150
919.272	10021
919.383	10067
919.494	10291
919.604	10413
919.715	10158
919.826	10181
919.936	10135
920.047	10291
920.157	10211
920.267	10466
920.378	10253
920.488	10215
920.598	10447
920.708	10561
920.818	10356
920.928	10379
921.038	10618
921.148	10611
921.258	10310
921.368	10154
921.477	10177
921.587	10040
921.697	9979
921.806	10010
921.916	10025
922.025	9854
922.134	9797
922.244	9728
922.353	9865
922.462	9732
922.571	9530
922.68	9450
922.789	9420
922.898	9496
923.007	9424
923.116	9538
923.224	9485
923.333	9507
923.442	9363
923.55	9287
923.659	9363
923.767	9473
923.876	9272
923.984	9382
924.092	9332
924.201	9306
924.309	9374
924.417	9397
924.525	9272
924.633	9378
924.741	10238
924.849	9116
924.956	9325
925.064	9138
925.172	9070
925.279	9081
925.387	9161
925.494	9142
925.602	9264
925.709	9241
925.816	9123
925.924	9188
926.031	9230
926.138	9135
926.245	9154
926.352	9058
926.459	9127
926.566	9272
926.673	9058
926.779	8967
926.886	8956
926.993	8857
927.099	8887
927.206	8762
927.312	8815
927.419	8933
927.525	8902
927.631	8872
927.737	8727
927.843	8739
927.95	8644
928.056	8655
928.162	8800
928.267	8796
928.373	9355
928.479	8857
928.585	8617
928.69	8758
928.796	8804
928.901	8636
929.007	8503
929.112	8659
929.218	8606
929.323	8556
929.428	8560
929.533	8663
929.638	8499
929.743	8568
929.848	8594
929.953	8495
930.058	8442
930.163	8320
930.267	8404
930.372	8514
930.477	8256
930.581	8571
930.685	8400
930.79	8332
930.894	8347
930.998	8259
931.103	8351
931.207	8084
931.311	8046
931.415	7947
931.519	7799
931.623	7795
