Data from test_V78500241_3606.txt Node
Date: Fri Mar 25 14:58:49 CST 2022
User: usil
Spectrometer: V785-0024
Trigger mode: 0
Integration Time (sec): 4.000000E-1
Scans to average: 1
Nonlinearity correction enabled: false
Boxcar width: 0
Storing dark spectrum: false
XAxis mode: Wavelengths
Number of Pixels in Spectrum: 1024
>>>>>Begin Spectral Data<<<<<
801.071	21842
801.214	21762
801.356	21561
801.499	21504
801.641	21226
801.783	21207
801.926	21306
802.068	21249
802.211	21154
802.353	21138
802.496	20918
802.638	20708
802.78	20697
802.923	20590
803.065	20598
803.208	20526
803.35	20670
803.492	20765
803.635	20857
803.777	20499
803.919	20720
804.061	20853
804.204	20617
804.346	20625
804.488	20442
804.63	20514
804.773	20419
804.915	20495
805.057	20674
805.199	20495
805.341	20579
805.483	20640
805.626	20499
805.768	20480
805.91	20587
806.052	20632
806.194	20446
806.336	20644
806.478	20446
806.62	20476
806.762	20503
806.904	20560
807.046	20887
807.188	20944
807.33	20826
807.472	20792
807.614	20640
807.756	20743
807.898	20625
808.04	20560
808.182	20602
808.324	20583
808.465	20609
808.607	20891
808.749	20857
808.891	20967
809.033	20937
809.174	20944
809.316	20815
809.458	20872
809.6	20819
809.741	20815
809.883	20960
810.025	20982
810.166	21085
810.308	21017
810.45	20933
810.591	20937
810.733	20823
810.875	20621
811.016	20583
811.158	20495
811.299	20682
811.441	20918
811.582	20765
811.724	20636
811.865	20511
812.007	20571
812.148	20594
812.29	20807
812.431	20777
812.573	20956
812.714	20933
812.855	21077
812.997	21233
813.138	21428
813.279	21332
813.421	21176
813.562	21036
813.703	20800
813.845	20796
813.986	20499
814.127	20282
814.268	20134
814.41	20225
814.551	20081
814.692	20195
814.833	20050
814.974	20176
815.115	20126
815.256	20054
815.397	20012
815.539	20035
815.68	19944
815.821	19849
815.962	19940
816.103	19784
816.244	19791
816.385	19529
816.526	19647
816.666	19529
816.807	19301
816.948	19312
817.089	19392
817.23	19343
817.371	19263
817.512	19156
817.653	19259
817.793	19263
817.934	19301
818.075	19247
818.216	19194
818.356	19221
818.497	18996
818.638	19004
818.778	18962
818.919	18924
819.06	19057
819.2	19046
819.341	19152
819.481	19217
819.622	19346
819.762	19556
819.903	19514
820.043	19369
820.184	19209
820.324	19293
820.465	19282
820.605	19251
820.746	19244
820.886	19122
821.026	19221
821.167	19221
821.307	19221
821.447	19263
821.588	19141
821.728	18958
821.868	18867
822.008	18768
822.149	18688
822.289	18623
822.429	18448
822.569	18277
822.709	18369
822.849	18194
822.99	18201
823.13	18171
823.27	18152
823.41	17866
823.55	17863
823.69	17794
823.83	17969
823.97	17897
824.11	17695
824.25	17710
824.389	17760
824.529	17843
824.669	17783
824.809	17863
824.949	17764
825.089	17851
825.228	17729
825.368	17486
825.508	17459
825.648	17554
825.787	17627
825.927	17642
826.067	17474
826.206	17592
826.346	17562
826.485	17532
826.625	17532
826.765	17726
826.904	17509
827.044	17280
827.183	17383
827.323	17193
827.462	17280
827.601	17265
827.741	17151
827.88	17242
828.02	17151
828.159	17242
828.298	17208
828.437	17315
828.577	17235
828.716	17322
828.855	17189
828.994	16900
829.134	16919
829.273	16908
829.412	16949
829.551	16965
829.69	17033
829.829	16942
829.968	16972
830.107	16968
830.246	17037
830.385	16946
830.524	16942
830.663	16721
830.802	16744
830.941	16660
831.08	16618
831.219	16622
831.357	16683
831.496	16862
831.635	16565
831.774	16512
831.913	16565
832.051	16417
832.19	16413
832.329	16512
832.467	16394
832.606	16303
832.744	16234
832.883	16253
833.022	16242
833.16	16287
833.299	16382
833.437	16424
833.576	16360
833.714	16276
833.852	16428
833.991	16451
834.129	16424
834.267	16341
834.406	16356
834.544	16382
834.682	16428
834.821	16386
834.959	16554
835.097	16405
835.235	16459
835.373	16508
835.511	16310
835.65	16284
835.788	16303
835.926	16116
836.064	16002
836.202	16105
836.34	16265
836.478	16325
836.615	16200
836.753	16207
836.891	16367
837.029	16379
837.167	16188
837.305	16268
837.443	16261
837.58	16200
837.718	16230
837.856	16238
837.993	16147
838.131	16207
838.269	16109
838.406	16097
838.544	16025
838.681	15907
838.819	15827
838.956	15682
839.094	15656
839.231	15739
839.369	15899
839.506	16040
839.643	15964
839.781	15728
839.918	15641
840.055	15720
840.193	15759
840.33	15709
840.467	15747
840.604	15667
840.742	15892
840.879	15564
841.016	15629
841.153	15652
841.29	15937
841.427	15736
841.564	15728
841.701	15629
841.838	15603
841.975	15686
842.112	15701
842.249	15526
842.385	15515
842.522	15759
842.659	15549
842.796	15526
842.933	15504
843.069	15511
843.206	15481
843.343	15515
843.479	15564
843.616	15507
843.752	15374
843.889	15310
844.025	15393
844.162	15184
844.298	15313
844.435	15230
844.571	15249
844.708	15458
844.844	15420
844.98	15515
845.117	15428
845.253	15313
845.389	15180
845.525	15154
845.661	15123
845.798	15032
845.934	15131
846.07	15077
846.206	15138
846.342	15154
846.478	15058
846.614	14823
846.75	14712
846.886	14868
847.022	15013
847.158	14921
847.294	14925
847.429	14876
847.565	14746
847.701	15074
847.837	14644
847.972	14518
848.108	14693
848.244	14613
848.379	14469
848.515	14488
848.65	14442
848.786	14450
848.921	14461
849.057	14514
849.192	14556
849.328	14518
849.463	14469
849.598	14465
849.734	14404
849.869	14263
850.004	14351
850.14	14355
850.275	14244
850.41	14206
850.545	14142
850.68	14202
850.815	14275
850.95	14187
851.085	14450
851.22	14259
851.355	14320
851.49	14168
851.625	14168
851.76	14202
851.895	14138
852.03	14157
852.165	14180
852.299	14240
852.434	14431
852.569	14313
852.703	14324
852.838	14294
852.973	14336
853.107	14480
853.242	14328
853.376	14145
853.511	14054
853.645	14065
853.78	14301
853.914	14221
854.048	14077
854.183	14100
854.317	14206
854.451	14286
854.585	14195
854.72	14073
854.854	14180
854.988	14012
855.122	14046
855.256	14001
855.39	14096
855.524	14233
855.658	14157
855.792	14229
855.926	14157
856.06	14172
856.194	14317
856.327	14134
856.461	14161
856.595	14069
856.729	14145
856.862	14263
856.996	14210
857.13	14161
857.263	14271
857.397	14286
857.53	14157
857.664	14214
857.797	14221
857.931	14210
858.064	14290
858.197	14298
858.331	14210
858.464	14145
858.597	14065
858.731	14142
858.864	14161
858.997	14183
859.13	14164
859.263	14100
859.396	14252
859.529	14229
859.662	14107
859.795	14084
859.928	14168
860.061	14309
860.194	14301
860.327	14199
860.46	14134
860.592	14248
860.725	14294
860.858	14237
860.99	14069
861.123	14081
861.256	14088
861.388	14119
861.521	14952
861.653	13997
861.786	14043
861.918	14020
862.05	14054
862.183	14058
862.315	14180
862.447	14138
862.58	14088
862.712	13947
862.844	13833
862.976	13974
863.108	13936
863.24	14324
863.372	13894
863.504	13909
863.636	13955
863.768	13925
863.9	13951
864.032	13925
864.164	13875
864.296	14027
864.428	13974
864.559	13974
864.691	14054
864.823	13955
864.954	14005
865.086	14020
865.217	13951
865.349	13864
865.48	13803
865.612	13928
865.743	14043
865.875	13887
866.006	13830
866.137	13898
866.269	13807
866.4	13917
866.531	13879
866.662	13849
866.793	13822
866.924	13788
867.055	13989
867.186	13913
867.317	13837
867.448	13822
867.579	13875
867.71	13803
867.841	13852
867.972	13822
868.103	13868
868.233	13921
868.364	13830
868.495	13913
868.625	14111
868.756	14187
868.886	14062
869.017	14183
869.147	14320
869.278	14320
869.408	14123
869.539	14256
869.669	14214
869.799	14202
869.929	14290
870.06	14324
870.19	14495
870.32	14415
870.45	14503
870.58	14682
870.71	14697
870.84	14697
870.97	14617
871.1	14613
871.23	14788
871.36	14705
871.489	14712
871.619	14739
871.749	14807
871.879	14804
872.008	14895
872.138	14792
872.267	14663
872.397	14552
872.526	14598
872.656	14552
872.785	14678
872.915	14823
873.044	14815
873.173	14765
873.303	14906
873.432	14838
873.561	14914
873.69	14785
873.819	14815
873.948	15005
874.077	14952
874.206	14686
874.335	14868
874.464	14895
874.593	15085
874.722	15074
874.851	15169
874.979	15230
875.108	15188
875.237	15135
875.365	14990
875.494	15138
875.623	15211
875.751	15203
875.88	15100
876.008	15218
876.136	15401
876.265	15561
876.393	15614
876.521	15679
876.65	15698
876.778	15477
876.906	15580
877.034	15450
877.162	15507
877.29	15477
877.418	15538
877.546	15606
877.674	15526
877.802	15511
877.93	15519
878.058	15534
878.185	15420
878.313	15523
878.441	15526
878.568	15397
878.696	15420
878.824	15614
878.951	15603
879.079	15698
879.206	15842
879.333	15641
879.461	15534
879.588	15625
879.715	15690
879.842	15739
879.97	15606
880.097	15485
880.224	15317
880.351	15545
880.478	15443
880.605	15420
880.732	15405
880.859	15644
880.986	15359
881.112	15462
881.239	15245
881.366	15218
881.493	15169
881.619	15093
881.746	15017
881.872	15032
881.999	15085
882.125	14971
882.252	15100
882.378	15119
882.505	15237
882.631	15017
882.757	14861
882.883	14853
883.01	14876
883.136	14842
883.262	14667
883.388	14746
883.514	14906
883.64	14864
883.766	14800
883.892	14625
884.018	14727
884.143	14880
884.269	14864
884.395	14708
884.52	14507
884.646	14712
884.772	14484
884.897	14533
885.023	14625
885.148	14708
885.274	14697
885.399	14712
885.524	14552
885.65	14610
885.775	14640
885.9	14533
886.025	14746
886.15	14613
886.275	14590
886.4	14412
886.525	14537
886.65	14537
886.775	14469
886.9	14659
887.025	14674
887.149	14594
887.274	14415
887.399	14389
887.523	14522
887.648	14393
887.773	14278
887.897	14454
888.021	14381
888.146	14446
888.27	14450
888.395	14545
888.519	14522
888.643	14484
888.767	14423
888.891	14370
889.015	14256
889.139	14328
889.263	14275
889.387	14324
889.511	14488
889.635	14328
889.759	14256
889.883	14199
890.006	14271
890.13	14351
890.254	14145
890.377	14183
890.501	14103
890.624	14103
890.748	14145
890.871	13982
890.995	13974
891.118	13951
891.241	14024
891.364	13970
891.488	14050
891.611	13951
891.734	13986
891.857	14069
891.98	13906
892.103	14031
892.226	14024
892.349	13913
892.471	13932
892.594	13925
892.717	13982
892.839	13925
892.962	13940
893.085	14062
893.207	13978
893.33	13917
893.452	13898
893.575	14024
893.697	14073
893.819	14164
893.941	14145
894.064	14157
894.186	13898
894.308	13925
894.43	14123
894.552	14214
894.674	14111
894.796	13970
894.918	14081
895.04	13986
895.161	14100
895.283	14123
895.405	14062
895.526	14096
895.648	14149
895.769	14161
895.891	14157
896.012	14096
896.134	14164
896.255	14130
896.376	14092
896.498	14119
896.619	14180
896.74	14088
896.861	14233
896.982	14446
897.103	14594
897.224	14408
897.345	14469
897.466	14358
897.587	14389
897.708	14503
897.828	14552
897.949	14473
898.07	14351
898.19	14427
898.311	14518
898.431	14389
898.552	14461
898.672	14587
898.792	14549
898.913	14549
899.033	14393
899.153	14294
899.273	14275
899.393	14275
899.513	14355
899.633	14324
899.753	14450
899.873	14301
899.993	14522
900.113	14358
900.232	14400
900.352	14263
900.472	14218
900.591	14187
900.711	14237
900.83	14084
900.95	14305
901.069	14336
901.189	14176
901.308	13845
901.427	13902
901.546	13841
901.665	13875
901.784	13879
901.904	13841
902.023	13685
902.141	13506
902.26	13502
902.379	13537
902.498	13426
902.617	13384
902.735	13460
902.854	13381
902.973	13449
903.091	13187
903.21	13107
903.328	13206
903.446	13095
903.565	13053
903.683	13072
903.801	12939
903.919	12913
904.038	12989
904.156	12981
904.274	12985
904.392	12875
904.51	12791
904.627	12894
904.745	12954
904.863	12875
904.981	12589
905.098	12547
905.216	12585
905.334	12623
905.451	12623
905.569	12517
905.686	12574
905.803	12521
905.921	12357
906.038	12448
906.155	12422
906.272	12201
906.389	12323
906.506	12095
906.623	12182
906.74	12091
906.857	12041
906.974	12053
907.091	12247
907.208	12319
907.324	12110
907.441	12095
907.557	11870
907.674	11931
907.79	11798
907.907	11855
908.023	11893
908.139	11954
908.256	11836
908.372	11828
908.488	11790
908.604	11691
908.72	11634
908.836	11638
908.952	11604
909.068	11649
909.184	11722
909.3	11657
909.415	11798
909.531	11630
909.647	11490
909.762	11440
909.878	11474
909.993	11474
910.108	11474
910.224	11406
910.339	11455
910.454	11341
910.57	11231
910.685	11337
910.8	11417
910.915	11356
911.03	11189
911.145	11162
911.259	11174
911.374	11113
911.489	11094
911.604	10968
911.718	10919
911.833	10892
911.947	10809
912.062	10755
912.176	10831
912.291	10843
912.405	10900
912.519	11048
912.633	11090
912.748	10999
912.862	10839
912.976	10790
913.09	10710
913.204	10755
913.318	10755
913.431	10778
913.545	10862
913.659	10927
913.772	10820
913.886	10607
914	10596
914.113	10793
914.226	10771
914.34	10664
914.453	10493
914.566	10714
914.68	10683
914.793	10542
914.906	10443
915.019	10367
915.132	10325
915.245	10402
915.358	10440
915.47	10386
915.583	10428
915.696	10390
915.809	10558
915.921	10618
916.034	10386
916.146	10356
916.259	10284
916.371	10432
916.483	10341
916.595	10306
916.708	10386
916.82	10341
916.932	10348
917.044	10253
917.156	10295
917.268	10246
917.38	10181
917.491	10196
917.603	10295
917.715	10314
917.826	10402
917.938	10169
918.049	10150
918.161	10253
918.272	10333
918.384	10459
918.495	10276
918.606	10150
918.717	10006
918.828	10067
918.939	10101
919.05	10059
919.161	10128
919.272	9850
919.383	10013
919.494	10162
919.604	10344
919.715	10207
919.826	10040
919.936	10090
920.047	10211
920.157	10158
920.267	10367
920.378	10139
920.488	10169
920.598	10409
920.708	10500
920.818	10386
920.928	10356
921.038	10584
921.148	10523
921.258	10219
921.368	10158
921.477	10048
921.587	9968
921.697	9907
921.806	10040
921.916	9907
922.025	9778
922.134	9762
922.244	9629
922.353	9804
922.462	9572
922.571	9625
922.68	9447
922.789	9458
922.898	9492
923.007	9408
923.116	9462
923.224	9443
923.333	9447
923.442	9310
923.55	9351
923.659	9321
923.767	9389
923.876	9306
923.984	9306
924.092	9199
924.201	9294
924.309	9264
924.417	9329
924.525	9249
924.633	9195
924.741	9975
924.849	9112
924.956	9226
925.064	9024
925.172	9001
925.279	9097
925.387	9093
925.494	9043
925.602	9207
925.709	9093
925.816	9051
925.924	9138
926.031	9161
926.138	9108
926.245	9100
926.352	9036
926.459	9119
926.566	9131
926.673	8944
926.779	8979
926.886	8899
926.993	8891
927.099	8804
927.206	8689
927.312	8678
927.419	8819
927.525	8826
927.631	8826
927.737	8689
927.843	8648
927.95	8598
928.056	8705
928.162	8762
928.267	8781
928.373	9294
928.479	8800
928.585	8552
928.69	8735
928.796	8701
928.901	8632
929.007	8492
929.112	8571
929.218	8560
929.323	8469
929.428	8526
929.533	8682
929.638	8427
929.743	8446
929.848	8556
929.953	8442
930.058	8412
930.163	8248
930.267	8332
930.372	8514
930.477	8199
930.581	8438
930.685	8396
930.79	8183
930.894	8256
930.998	8191
931.103	8324
931.207	8024
931.311	7921
931.415	7879
931.519	7788
931.623	7712
