Data from test_V78500241_708.txt Node
Date: Fri Mar 25 14:38:38 CST 2022
User: usil
Spectrometer: V785-0024
Trigger mode: 0
Integration Time (sec): 4.000000E-1
Scans to average: 1
Nonlinearity correction enabled: false
Boxcar width: 0
Storing dark spectrum: false
XAxis mode: Wavelengths
Number of Pixels in Spectrum: 1024
>>>>>Begin Spectral Data<<<<<
801.071	27580
801.214	27637
801.356	27192
801.499	27260
801.641	27074
801.783	27199
801.926	27169
802.068	26929
802.211	26781
802.353	26625
802.496	26541
802.638	26587
802.78	26587
802.923	26678
803.065	26404
803.208	26495
803.35	26480
803.492	26606
803.635	26823
803.777	26537
803.919	26765
804.061	27051
804.204	26731
804.346	26769
804.488	26754
804.63	26708
804.773	26807
804.915	26857
805.057	27154
805.199	27024
805.341	27062
805.483	27241
805.626	27279
805.768	27298
805.91	27469
806.052	27576
806.194	27572
806.336	27956
806.478	28070
806.62	28154
806.762	28478
806.904	28949
807.046	29280
807.188	29786
807.33	30285
807.472	30802
807.614	31407
807.756	32453
807.898	33370
808.04	34854
808.182	37099
808.324	39663
808.465	42768
808.607	46002
808.749	48913
808.891	50686
809.033	50640
809.174	49247
809.316	46512
809.458	42966
809.6	39306
809.741	36551
809.883	34421
810.025	32975
810.166	31799
810.308	31091
810.45	30372
810.591	29927
810.733	29261
810.875	28900
811.016	28615
811.158	28261
811.299	28207
811.441	28284
811.582	28059
811.724	27766
811.865	27618
812.007	27724
812.148	27408
812.29	27534
812.431	27530
812.573	27485
812.714	27663
812.855	27709
812.997	27755
813.138	27854
813.279	27709
813.421	27504
813.562	27374
813.703	27260
813.845	26982
813.986	26777
814.127	26511
814.268	26446
814.41	26370
814.551	26339
814.692	26453
814.833	26149
814.974	26084
815.115	26183
815.256	26035
815.397	26073
815.539	25887
815.68	25955
815.821	25715
815.962	25879
816.103	25864
816.244	25753
816.385	25521
816.526	25521
816.666	25384
816.807	25042
816.948	25175
817.089	25282
817.23	25141
817.371	24985
817.512	25034
817.653	25004
817.793	24996
817.934	25027
818.075	25053
818.216	25088
818.356	24970
818.497	24943
818.638	24601
818.778	24654
818.919	24844
819.06	24856
819.2	24897
819.341	24878
819.481	24924
819.622	25057
819.762	25354
819.903	25129
820.043	25027
820.184	24989
820.324	24829
820.465	25076
820.605	24833
820.746	24886
820.886	24779
821.026	24821
821.167	24730
821.307	24882
821.447	24730
821.588	24730
821.728	24521
821.868	24277
822.008	24201
822.149	24133
822.289	24129
822.429	23817
822.569	23889
822.709	23821
822.849	23642
822.99	23566
823.13	23459
823.27	23516
823.41	23349
823.55	23193
823.69	23512
823.83	23395
823.97	23402
824.11	23124
824.25	23155
824.389	23102
824.529	23345
824.669	23288
824.809	23212
824.949	23216
825.089	23212
825.228	23121
825.368	22911
825.508	22919
825.648	22976
825.787	22961
825.927	22999
826.067	23022
826.206	22984
826.346	23071
826.485	22942
826.625	22999
826.765	23048
826.904	22896
827.044	22694
827.183	22748
827.323	22706
827.462	22782
827.601	22656
827.741	22592
827.88	22554
828.02	22440
828.159	22443
828.298	22664
828.437	22500
828.577	22497
828.716	22592
828.855	22538
828.994	22382
829.134	22375
829.273	22299
829.412	22162
829.551	22246
829.69	22268
829.829	22177
829.968	22333
830.107	22341
830.246	22322
830.385	22268
830.524	22128
830.663	22177
830.802	22021
830.941	21956
831.08	21930
831.219	22097
831.357	21934
831.496	21975
831.635	21892
831.774	21739
831.913	21823
832.051	21755
832.19	21690
832.329	21778
832.467	21759
832.606	21671
832.744	21720
832.883	21778
833.022	21812
833.16	22048
833.299	22238
833.437	22162
833.576	22360
833.714	22337
833.852	22744
833.991	22873
834.129	22854
834.267	22908
834.406	22725
834.544	22824
834.682	22660
834.821	22516
834.959	22611
835.097	22211
835.235	22166
835.373	22116
835.511	21998
835.65	21827
835.788	21667
835.926	21595
836.064	21553
836.202	21340
836.34	21656
836.478	21591
836.615	21481
836.753	21393
836.891	21401
837.029	21336
837.167	21336
837.305	21302
837.443	21272
837.58	21256
837.718	21207
837.856	21252
837.993	21222
838.131	21131
838.269	21142
838.406	20990
838.544	21024
838.681	20971
838.819	20838
838.956	20526
839.094	20678
839.231	20693
839.369	20830
839.506	21104
839.643	20895
839.781	20693
839.918	20583
840.055	20659
840.193	20545
840.33	20644
840.467	20507
840.604	20526
840.742	20849
840.879	20438
841.016	20511
841.153	20571
841.29	20602
841.427	20629
841.564	20731
841.701	20640
841.838	20488
841.975	20492
842.112	20511
842.249	20442
842.385	20362
842.522	20655
842.659	20377
842.796	20438
842.933	20530
843.069	20358
843.206	20431
843.343	20480
843.479	20499
843.616	20590
843.752	20339
843.889	20442
844.025	20606
844.162	20552
844.298	20849
844.435	20864
844.571	21032
844.708	21355
844.844	21641
844.98	22261
845.117	22847
845.253	23752
845.389	25708
845.525	29471
845.661	35368
845.798	42163
845.934	47364
846.07	49301
846.206	47570
846.342	42932
846.478	35984
846.614	30121
846.75	26263
846.886	24007
847.022	22546
847.158	21690
847.294	21142
847.429	20769
847.565	20488
847.701	20537
847.837	19944
847.972	19830
848.108	19970
848.244	19746
848.379	19674
848.515	19510
848.65	19426
848.786	19392
848.921	19381
849.057	19468
849.192	19430
849.328	19411
849.463	19282
849.598	19293
849.734	19145
849.869	19171
850.004	18924
850.14	18989
850.275	18970
850.41	18943
850.545	19069
850.68	19046
850.815	19053
850.95	18901
851.085	19225
851.22	19118
851.355	19023
851.49	18924
851.625	18954
851.76	18977
851.895	18932
852.03	18932
852.165	19050
852.299	18985
852.434	19031
852.569	19145
852.703	19152
852.838	19213
852.973	19160
853.107	19236
853.242	19107
853.376	18989
853.511	19099
853.645	19091
853.78	19198
853.914	19213
854.048	19190
854.183	19175
854.317	19331
854.451	19403
854.585	19312
854.72	19202
854.854	19156
854.988	18958
855.122	19164
855.256	18996
855.39	18996
855.524	19038
855.658	18962
855.792	19000
855.926	19015
856.06	19000
856.194	18958
856.327	18966
856.461	18734
856.595	18688
856.729	18798
856.862	18894
856.996	18882
857.13	18913
857.263	18935
857.397	18905
857.53	18741
857.664	18738
857.797	18741
857.931	18894
858.064	18753
858.197	18924
858.331	18806
858.464	18608
858.597	18696
858.731	18665
858.864	18688
858.997	18692
859.13	18730
859.263	18738
859.396	18764
859.529	18711
859.662	18483
859.795	18597
859.928	18711
860.061	18734
860.194	18741
860.327	18627
860.46	18608
860.592	18673
860.725	18719
860.858	18616
860.99	18574
861.123	18490
861.256	18620
861.388	18760
861.521	19282
861.653	18498
861.786	18437
861.918	18403
862.05	18574
862.183	18475
862.315	18532
862.447	18764
862.58	18570
862.712	18384
862.844	18308
862.976	18357
863.108	18407
863.24	18700
863.372	18232
863.504	18251
863.636	18384
863.768	18334
863.9	18353
864.032	18239
864.164	18273
864.296	18289
864.428	18445
864.559	18239
864.691	18384
864.823	18410
864.954	18232
865.086	18403
865.217	18281
865.349	18171
865.48	18220
865.612	18266
865.743	18315
865.875	18357
866.006	18201
866.137	18182
866.269	18235
866.4	18190
866.531	18171
866.662	18079
866.793	18110
866.924	18068
867.055	18140
867.186	18110
867.317	18041
867.448	18064
867.579	18114
867.71	18121
867.841	18022
867.972	18125
868.103	18228
868.233	18140
868.364	18228
868.495	18353
868.625	18308
868.756	18585
868.886	18365
869.017	18372
869.147	18601
869.278	18642
869.408	18395
869.539	18369
869.669	18585
869.799	18540
869.929	18585
870.06	18570
870.19	18840
870.32	18779
870.45	18749
870.58	18935
870.71	19012
870.84	18954
870.97	18909
871.1	18939
871.23	19088
871.36	19133
871.489	19190
871.619	19095
871.749	19031
871.879	19175
872.008	19255
872.138	19183
872.267	19076
872.397	19053
872.526	19072
872.656	19031
872.785	19190
872.915	19278
873.044	19491
873.173	19312
873.303	19324
873.432	19335
873.561	19445
873.69	19335
873.819	19400
873.948	19453
874.077	19483
874.206	19533
874.335	19578
874.464	19616
874.593	19826
874.722	19883
874.851	19925
874.979	20058
875.108	20027
875.237	19875
875.365	20119
875.494	19989
875.623	20153
875.751	20210
875.88	20134
876.008	20366
876.136	20568
876.265	20731
876.393	20975
876.521	21062
876.65	21043
876.778	20967
876.906	20937
877.034	21070
877.162	21173
877.29	21135
877.418	21306
877.546	21256
877.674	21477
877.802	21652
877.93	21770
878.058	21831
878.185	21960
878.313	22421
878.441	22554
878.568	22987
878.696	23611
878.824	24429
878.951	25571
879.079	27237
879.206	29216
879.333	31327
879.461	32952
879.588	34173
879.715	34135
879.842	33332
879.97	31396
880.097	29105
880.224	27340
880.351	26267
880.478	25506
880.605	24966
880.732	24566
880.859	24429
880.986	24194
881.112	24148
881.239	23786
881.366	23695
881.493	23414
881.619	23512
881.746	23634
881.872	23718
881.999	23611
882.125	23710
882.252	23684
882.378	23687
882.505	23916
882.631	23684
882.757	23649
882.883	23764
883.01	23585
883.136	23657
883.262	23398
883.388	23353
883.514	23547
883.64	23596
883.766	23463
883.892	23387
884.018	23421
884.143	23512
884.269	23615
884.395	23334
884.52	23254
884.646	23379
884.772	23379
884.897	23258
885.023	23189
885.148	23303
885.274	23326
885.399	23269
885.524	23022
885.65	22881
885.775	22778
885.9	22725
886.025	22542
886.15	22440
886.275	22147
886.4	22013
886.525	21991
886.65	21705
886.775	21717
886.9	21717
887.025	21652
887.149	21348
887.274	21176
887.399	20990
887.523	20982
887.648	20781
887.773	20701
887.897	20769
888.021	20731
888.146	20507
888.27	20686
888.395	20629
888.519	20503
888.643	20370
888.767	20358
888.891	20115
889.015	20115
889.139	20035
889.263	19932
889.387	20035
889.511	20096
889.635	20027
889.759	19932
889.883	19830
890.006	19693
890.13	19780
890.254	19655
890.377	19601
890.501	19384
890.624	19358
890.748	19430
890.871	19308
890.995	19103
891.118	19122
891.241	19137
891.364	19027
891.488	19133
891.611	19050
891.734	18981
891.857	18989
891.98	18993
892.103	18916
892.226	18897
892.349	18810
892.471	18703
892.594	18711
892.717	18654
892.839	18631
892.962	18760
893.085	18696
893.207	18563
893.33	18448
893.452	18494
893.575	18604
893.697	18365
893.819	18566
893.941	18642
894.064	18559
894.186	18353
894.308	18334
894.43	18403
894.552	18456
894.674	18418
894.796	18224
894.918	18235
895.04	18308
895.161	18315
895.283	18300
895.405	18106
895.526	18281
895.648	18152
895.769	18213
895.891	18174
896.012	18243
896.134	18201
896.255	18163
896.376	18098
896.498	18296
896.619	18224
896.74	18266
896.861	18300
896.982	18502
897.103	18540
897.224	18391
897.345	18361
897.466	18304
897.587	18304
897.708	18369
897.828	18426
897.949	18289
898.07	18087
898.19	18114
898.311	18456
898.431	18182
898.552	18315
898.672	18433
898.792	18395
898.913	18338
899.033	18136
899.153	18148
899.273	18087
899.393	18030
899.513	18110
899.633	18079
899.753	18174
899.873	17988
899.993	18159
900.113	17973
900.232	17923
900.352	17954
900.472	17912
900.591	17992
900.711	17893
900.83	17836
900.95	17832
901.069	17916
901.189	17748
901.308	17661
901.427	17398
901.546	17421
901.665	17459
901.784	17444
901.904	17292
902.023	17216
902.141	17048
902.26	16965
902.379	16923
902.498	16938
902.617	16862
902.735	16847
902.854	16877
902.973	16771
903.091	16538
903.21	16588
903.328	16580
903.446	16394
903.565	16329
903.683	16265
903.801	16177
903.919	16261
904.038	16299
904.156	16128
904.274	16185
904.392	15975
904.51	15968
904.627	16032
904.745	16116
904.863	16147
904.981	15876
905.098	15739
905.216	15709
905.334	15778
905.451	15682
905.569	15667
905.686	15652
905.803	15663
905.921	15466
906.038	15561
906.155	15466
906.272	15329
906.389	15420
906.506	15393
906.623	15195
906.74	15180
906.857	15028
906.974	15123
907.091	15351
907.208	15355
907.324	15131
907.441	15097
907.557	14868
907.674	15001
907.79	14880
907.907	14826
908.023	14902
908.139	14952
908.256	14872
908.372	14727
908.488	14804
908.604	14670
908.72	14640
908.836	14689
908.952	14507
909.068	14629
909.184	14735
909.3	14625
909.415	14560
909.531	14746
909.647	14450
909.762	14351
909.878	14317
909.993	14461
910.108	14438
910.224	14305
910.339	14400
910.454	14248
910.57	14172
910.685	14130
910.8	14434
910.915	14396
911.03	14164
911.145	14050
911.259	13989
911.374	14046
911.489	14020
911.604	13849
911.718	13833
911.833	13772
911.947	13674
912.062	13601
912.176	13647
912.291	13742
912.405	13727
912.519	13909
912.633	13917
912.748	13712
912.862	13780
912.976	13575
913.09	13430
913.204	13476
913.318	13495
913.431	13590
913.545	13734
913.659	13700
913.772	13529
913.886	13453
914	13339
914.113	13514
914.226	13624
914.34	13556
914.453	13407
914.566	13514
914.68	13362
914.793	13362
914.906	13194
915.019	13061
915.132	13091
915.245	13084
915.358	13179
915.47	13164
915.583	13095
915.696	13160
915.809	13247
915.921	13301
916.034	13099
916.146	13050
916.259	13053
916.371	13129
916.483	13141
916.595	13019
916.708	13053
916.82	13076
916.932	13061
917.044	13034
917.156	12981
917.268	12916
917.38	12798
917.491	12924
917.603	12935
917.715	12920
917.826	12985
917.938	12852
918.049	12681
918.161	12852
918.272	12920
918.384	13053
918.495	12779
918.606	12673
918.717	12639
918.828	12700
918.939	12684
919.05	12585
919.161	12677
919.272	12410
919.383	12502
919.494	12631
919.604	12840
919.715	12631
919.826	12623
919.936	12509
920.047	12631
920.157	12616
920.267	12745
920.378	12669
920.488	12623
920.598	12730
920.708	12905
920.818	12719
920.928	12730
921.038	12806
921.148	12810
921.258	12623
921.368	12433
921.477	12357
921.587	12384
921.697	12197
921.806	12376
921.916	12270
922.025	12087
922.134	12049
922.244	12011
922.353	12057
922.462	11912
922.571	11923
922.68	11608
922.789	11726
922.898	11710
923.007	11699
923.116	11752
923.224	11634
923.333	11608
923.442	11532
923.55	11490
923.659	11497
923.767	11497
923.876	11474
923.984	11562
924.092	11501
924.201	11486
924.309	11406
924.417	11535
924.525	11425
924.633	11482
924.741	12399
924.849	11258
924.956	11364
925.064	11174
925.172	11159
925.279	11178
925.387	11284
925.494	11151
925.602	11391
925.709	11330
925.816	11197
925.924	11193
926.031	11273
926.138	11162
926.245	11254
926.352	11090
926.459	11193
926.566	11299
926.673	11067
926.779	11025
926.886	10980
926.993	10812
927.099	10839
927.206	10721
927.312	10805
927.419	10915
927.525	10812
927.631	10866
927.737	10687
927.843	10694
927.95	10527
928.056	10653
928.162	10668
928.267	10839
928.373	11258
928.479	10774
928.585	10611
928.69	10656
928.796	10649
928.901	10516
929.007	10462
929.112	10607
929.218	10523
929.323	10504
929.428	10424
929.533	10637
929.638	10306
929.743	10519
929.848	10443
929.953	10417
930.058	10329
930.163	10200
930.267	10227
930.372	10261
930.477	10131
930.581	10447
930.685	10177
930.79	10105
930.894	10196
930.998	10036
931.103	10287
931.207	9808
931.311	9785
931.415	9747
931.519	9538
931.623	9515
