Data from test_V78500241_328.txt Node
Date: Fri Mar 25 14:36:00 CST 2022
User: usil
Spectrometer: V785-0024
Trigger mode: 0
Integration Time (sec): 4.000000E-1
Scans to average: 1
Nonlinearity correction enabled: false
Boxcar width: 0
Storing dark spectrum: false
XAxis mode: Wavelengths
Number of Pixels in Spectrum: 1024
>>>>>Begin Spectral Data<<<<<
801.071	26990
801.214	26887
801.356	26716
801.499	26644
801.641	26374
801.783	26427
801.926	26339
802.068	26419
802.211	26237
802.353	26400
802.496	26081
802.638	25951
802.78	25913
802.923	25887
803.065	25883
803.208	25776
803.35	25928
803.492	25906
803.635	26153
803.777	25959
803.919	26164
804.061	26138
804.204	26088
804.346	25959
804.488	25769
804.63	25963
804.773	25734
804.915	25871
805.057	26111
805.199	25986
805.341	26050
805.483	26024
805.626	26001
805.768	25898
805.91	25978
806.052	25883
806.194	25849
806.336	26153
806.478	26005
806.62	25951
806.762	26054
806.904	26122
807.046	26423
807.188	26309
807.33	26431
807.472	26412
807.614	26248
807.756	26202
807.898	26180
808.04	26149
808.182	26115
808.324	26202
808.465	26214
808.607	26434
808.749	26473
808.891	26659
809.033	26762
809.174	26537
809.316	26511
809.458	26632
809.6	26438
809.741	26583
809.883	26571
810.025	26708
810.166	26826
810.308	26697
810.45	26708
810.591	26678
810.733	26431
810.875	26195
811.016	26111
811.158	26180
811.299	26465
811.441	26461
811.582	26495
811.724	26400
811.865	26317
812.007	26404
812.148	26366
812.29	26396
812.431	26457
812.573	26568
812.714	26644
812.855	26781
812.997	26819
813.138	27104
813.279	26864
813.421	26876
813.562	26815
813.703	26648
813.845	26492
813.986	26084
814.127	26115
814.268	26035
814.41	25852
814.551	25780
814.692	26073
814.833	25898
814.974	25890
815.115	25841
815.256	25750
815.397	25772
815.539	25655
815.68	25647
815.821	25609
815.962	25643
816.103	25776
816.244	25525
816.385	25324
816.526	25362
816.666	25145
816.807	25019
816.948	25160
817.089	25091
817.23	25034
817.371	25046
817.512	24973
817.653	24932
817.793	25000
817.934	24989
818.075	25095
818.216	25076
818.356	24867
818.497	24734
818.638	24882
818.778	24703
818.919	24707
819.06	24734
819.2	24646
819.341	24764
819.481	24863
819.622	25084
819.762	25255
819.903	25187
820.043	24992
820.184	25000
820.324	24951
820.465	25000
820.605	24947
820.746	24977
820.886	24814
821.026	25015
821.167	24943
821.307	25141
821.447	24909
821.588	24814
821.728	24585
821.868	24471
822.008	24380
822.149	24342
822.289	24350
822.429	24136
822.569	24053
822.709	24098
822.849	23790
822.99	23889
823.13	23813
823.27	23691
823.41	23668
823.55	23619
823.69	23497
823.83	23611
823.97	23463
824.11	23292
824.25	23406
824.389	23414
824.529	23425
824.669	23261
824.809	23459
824.949	23417
825.089	23414
825.228	23471
825.368	23200
825.508	23166
825.648	23117
825.787	23121
825.927	23273
826.067	22976
826.206	23147
826.346	23208
826.485	23155
826.625	23121
826.765	23090
826.904	23166
827.044	22949
827.183	22915
827.323	22812
827.462	22862
827.601	22873
827.741	22801
827.88	22854
828.02	22717
828.159	22839
828.298	22801
828.437	22782
828.577	22755
828.716	22820
828.855	22782
828.994	22436
829.134	22580
829.273	22508
829.412	22557
829.551	22310
829.69	22497
829.829	22527
829.968	22580
830.107	22474
830.246	22550
830.385	22306
830.524	22409
830.663	22371
830.802	22169
830.941	22067
831.08	22105
831.219	22086
831.357	22090
831.496	22329
831.635	21991
831.774	21960
831.913	22036
832.051	21747
832.19	21899
832.329	21903
832.467	21641
832.606	21819
832.744	21766
832.883	21698
833.022	21663
833.16	21686
833.299	21686
833.437	21770
833.576	21850
833.714	21797
833.852	21819
833.991	21797
834.129	21869
834.267	21739
834.406	21835
834.544	21713
834.682	21667
834.821	21682
834.959	21861
835.097	21667
835.235	21717
835.373	21717
835.511	21652
835.65	21469
835.788	21610
835.926	21458
836.064	21393
836.202	21412
836.34	21553
836.478	21663
836.615	21553
836.753	21523
836.891	21622
837.029	21485
837.167	21515
837.305	21424
837.443	21504
837.58	21329
837.718	21447
837.856	21363
837.993	21287
838.131	21416
838.269	21306
838.406	21386
838.544	21252
838.681	21100
838.819	21089
838.956	20800
839.094	20811
839.231	20842
839.369	20948
839.506	21329
839.643	21096
839.781	20891
839.918	20796
840.055	20857
840.193	20602
840.33	20754
840.467	20815
840.604	20785
840.742	20857
840.879	20640
841.016	20708
841.153	20648
841.29	20906
841.427	20762
841.564	20648
841.701	20716
841.838	20564
841.975	20606
842.112	20682
842.249	20431
842.385	20450
842.522	20693
842.659	20560
842.796	20503
842.933	20476
843.069	20415
843.206	20362
843.343	20495
843.479	20530
843.616	20511
843.752	20309
843.889	20233
844.025	20499
844.162	20263
844.298	20320
844.435	20332
844.571	20153
844.708	20256
844.844	20450
844.98	20404
845.117	20275
845.253	20221
845.389	20111
845.525	20107
845.661	20180
845.798	19967
845.934	20088
846.07	20065
846.206	20092
846.342	20233
846.478	19978
846.614	19761
846.75	19590
846.886	19662
847.022	19906
847.158	19723
847.294	19750
847.429	19734
847.565	19632
847.701	19925
847.837	19388
847.972	19381
848.108	19362
848.244	19502
848.379	19339
848.515	19324
848.65	19259
848.786	19198
848.921	19278
849.057	19499
849.192	19350
849.328	19343
849.463	19225
849.598	19179
849.734	19194
849.869	19069
850.004	19004
850.14	19031
850.275	18951
850.41	18859
850.545	18913
850.68	18977
850.815	19137
850.95	18989
851.085	19095
851.22	19156
851.355	19050
851.49	18943
851.625	18867
851.76	18909
851.895	18939
852.03	18875
852.165	18943
852.299	18962
852.434	19050
852.569	18981
852.703	18962
852.838	18985
852.973	19000
853.107	19137
853.242	18859
853.376	18738
853.511	18700
853.645	18772
853.78	18928
853.914	18890
854.048	18821
854.183	18802
854.317	18863
854.451	18871
854.585	18776
854.72	18757
854.854	18863
854.988	18696
855.122	18802
855.256	18616
855.39	18681
855.524	18882
855.658	18852
855.792	18776
855.926	18814
856.06	18905
856.194	18829
856.327	18810
856.461	18673
856.595	18741
856.729	18760
856.862	18913
856.996	18856
857.13	18817
857.263	18863
857.397	18798
857.53	18753
857.664	18783
857.797	18848
857.931	18913
858.064	18757
858.197	18920
858.331	18821
858.464	18802
858.597	18715
858.731	18779
858.864	18764
858.997	18650
859.13	18734
859.263	18753
859.396	18730
859.529	18738
859.662	18612
859.795	18719
859.928	18840
860.061	18859
860.194	18909
860.327	18802
860.46	18646
860.592	18829
860.725	18886
860.858	18840
860.99	18654
861.123	18578
861.256	18604
861.388	18570
861.521	19400
861.653	18681
861.786	18570
861.918	18448
862.05	18639
862.183	18719
862.315	18802
862.447	18810
862.58	18753
862.712	18566
862.844	18486
862.976	18593
863.108	18521
863.24	18802
863.372	18456
863.504	18338
863.636	18445
863.768	18517
863.9	18536
864.032	18395
864.164	18483
864.296	18544
864.428	18555
864.559	18467
864.691	18532
864.823	18536
864.954	18437
865.086	18391
865.217	18418
865.349	18376
865.48	18334
865.612	18384
865.743	18384
865.875	18254
866.006	18342
866.137	18395
866.269	18357
866.4	18376
866.531	18270
866.662	18323
866.793	18228
866.924	18342
867.055	18258
867.186	18353
867.317	18369
867.448	18270
867.579	18319
867.71	18273
867.841	18266
867.972	18346
868.103	18323
868.233	18281
868.364	18350
868.495	18414
868.625	18585
868.756	18574
868.886	18494
869.017	18578
869.147	18547
869.278	18578
869.408	18570
869.539	18532
869.669	18623
869.799	18650
869.929	18627
870.06	18597
870.19	18897
870.32	18791
870.45	18840
870.58	18993
870.71	19050
870.84	19099
870.97	18848
871.1	18821
871.23	19107
871.36	19110
871.489	19114
871.619	19076
871.749	19019
871.879	19175
872.008	19270
872.138	19240
872.267	19168
872.397	19072
872.526	18954
872.656	18928
872.785	19027
872.915	19133
873.044	19171
873.173	19175
873.303	19122
873.432	19118
873.561	19244
873.69	19301
873.819	19156
873.948	19266
874.077	19255
874.206	19194
874.335	19156
874.464	19297
874.593	19388
874.722	19388
874.851	19324
874.979	19365
875.108	19388
875.237	19388
875.365	19343
875.494	19521
875.623	19430
875.751	19316
875.88	19445
876.008	19624
876.136	19651
876.265	19921
876.393	20008
876.521	19932
876.65	19951
876.778	19841
876.906	19632
877.034	19784
877.162	19818
877.29	19757
877.418	19776
877.546	19871
877.674	19963
877.802	19822
877.93	19845
878.058	19761
878.185	19795
878.313	19746
878.441	19814
878.568	19799
878.696	19765
878.824	19868
878.951	19887
879.079	19986
879.206	20043
879.333	20012
879.461	19841
879.588	19989
879.715	20024
879.842	20183
879.97	20012
880.097	19693
880.224	19643
880.351	19704
880.478	19723
880.605	19658
880.732	19799
880.859	19860
880.986	19727
881.112	19693
881.239	19499
881.366	19362
881.493	19297
881.619	19255
881.746	19419
881.872	19251
881.999	19308
882.125	19221
882.252	19293
882.378	19221
882.505	19457
882.631	19152
882.757	19012
882.883	19194
883.01	19012
883.136	18966
883.262	18757
883.388	18844
883.514	19008
883.64	19091
883.766	18973
883.892	18791
884.018	18863
884.143	19046
884.269	19103
884.395	18833
884.52	18688
884.646	18772
884.772	18658
884.897	18620
885.023	18661
885.148	18871
885.274	18821
885.399	18696
885.524	18783
885.65	18738
885.775	18768
885.9	18703
886.025	18753
886.15	18719
886.275	18589
886.4	18525
886.525	18635
886.65	18642
886.775	18604
886.9	18726
887.025	18913
887.149	18783
887.274	18471
887.399	18365
887.523	18437
887.648	18384
887.773	18365
887.897	18479
888.021	18532
888.146	18414
888.27	18570
888.395	18521
888.519	18479
888.643	18559
888.767	18532
888.891	18388
889.015	18167
889.139	18384
889.263	18213
889.387	18330
889.511	18498
889.635	18429
889.759	18239
889.883	18319
890.006	18361
890.13	18327
890.254	18121
890.377	18239
890.501	18076
890.624	17988
890.748	18148
890.871	17999
890.995	17821
891.118	17821
891.241	17904
891.364	17939
891.488	18045
891.611	17866
891.734	17908
891.857	17923
891.98	17897
892.103	17882
892.226	17832
892.349	17798
892.471	17703
892.594	17779
892.717	17824
892.839	17790
892.962	17798
893.085	17897
893.207	17817
893.33	17798
893.452	17596
893.575	17885
893.697	17847
893.819	17965
893.941	17855
894.064	17916
894.186	17672
894.308	17779
894.43	17965
894.552	18076
894.674	17923
894.796	17756
894.918	17775
895.04	17843
895.161	17920
895.283	17851
895.405	17786
895.526	17840
895.648	17950
895.769	17779
895.891	17897
896.012	17958
896.134	17965
896.255	17870
896.376	17988
896.498	17996
896.619	18049
896.74	17946
896.861	18011
896.982	18338
897.103	18452
897.224	18254
897.345	18110
897.466	18117
897.587	18140
897.708	18232
897.828	18163
897.949	18041
898.07	18076
898.19	18155
898.311	18178
898.431	18060
898.552	18197
898.672	18258
898.792	18266
898.913	18224
899.033	18129
899.153	17855
899.273	17805
899.393	17988
899.513	17961
899.633	17882
899.753	17977
899.873	17908
899.993	17958
900.113	17802
900.232	17927
900.352	17859
900.472	17821
900.591	17695
900.711	17714
900.83	17611
900.95	17748
901.069	17824
901.189	17737
901.308	17410
901.427	17284
901.546	17379
901.665	17376
901.784	17337
901.904	17147
902.023	17128
902.141	16927
902.26	16828
902.379	17014
902.498	16957
902.617	16812
902.735	16904
902.854	16809
902.973	16831
903.091	16607
903.21	16508
903.328	16478
903.446	16500
903.565	16219
903.683	16405
903.801	16162
903.919	16314
904.038	16382
904.156	16147
904.274	16223
904.392	16253
904.51	16211
904.627	16002
904.745	16177
904.863	16310
904.981	15930
905.098	15854
905.216	15804
905.334	15827
905.451	15827
905.569	15816
905.686	15804
905.803	15835
905.921	15553
906.038	15736
906.155	15614
906.272	15515
906.389	15447
906.506	15408
906.623	15393
906.74	15298
906.857	15245
906.974	15302
907.091	15408
907.208	15504
907.324	15306
907.441	15218
907.557	15058
907.674	15081
907.79	15066
907.907	14990
908.023	15150
908.139	15043
908.256	14998
908.372	15028
908.488	14925
908.604	14731
908.72	14777
908.836	14792
908.952	14857
909.068	14842
909.184	14929
909.3	14670
909.415	14785
909.531	14682
909.647	14613
909.762	14556
909.878	14408
909.993	14495
910.108	14423
910.224	14518
910.339	14492
910.454	14320
910.57	14343
910.685	14199
910.8	14552
910.915	14423
911.03	14328
911.145	14149
911.259	14088
911.374	14062
911.489	14046
911.604	13951
911.718	13765
911.833	13936
911.947	13742
912.062	13666
912.176	13807
912.291	13890
912.405	13791
912.519	13944
912.633	14088
912.748	13932
912.862	13814
912.976	13712
913.09	13628
913.204	13639
913.318	13666
913.431	13791
913.545	13734
913.659	13757
913.772	13628
913.886	13525
914	13472
914.113	13559
914.226	13628
914.34	13540
914.453	13419
914.566	13594
914.68	13422
914.793	13441
914.906	13175
915.019	13240
915.132	13198
915.245	13149
915.358	13255
915.47	13187
915.583	13266
915.696	13183
915.809	13373
915.921	13388
916.034	13175
916.146	13126
916.259	13099
916.371	13217
916.483	13190
916.595	12993
916.708	13103
916.82	13141
916.932	13004
917.044	13050
917.156	12985
917.268	12901
917.38	12951
917.491	12867
917.603	12871
917.715	13042
917.826	12943
917.938	12905
918.049	12844
918.161	12856
918.272	13004
918.384	12977
918.495	12894
918.606	12760
918.717	12658
918.828	12719
918.939	12730
919.05	12578
919.161	12700
919.272	12448
919.383	12547
919.494	12745
919.604	12810
919.715	12696
919.826	12597
919.936	12662
920.047	12764
920.157	12631
920.267	12825
920.378	12711
920.488	12738
920.598	12859
920.708	12962
920.818	12867
920.928	12738
921.038	12985
921.148	12890
921.258	12673
921.368	12517
921.477	12483
921.587	12369
921.697	12300
921.806	12532
921.916	12319
922.025	12125
922.134	12148
922.244	12034
922.353	12205
922.462	11988
922.571	11946
922.68	11828
922.789	11672
922.898	11764
923.007	11729
923.116	11821
923.224	11653
923.333	11695
923.442	11733
923.55	11577
923.659	11699
923.767	11638
923.876	11532
923.984	11554
924.092	11524
924.201	11539
924.309	11532
924.417	11539
924.525	11478
924.633	11478
924.741	12235
924.849	11337
924.956	11448
925.064	11277
925.172	11208
925.279	11242
925.387	11254
925.494	11292
925.602	11414
925.709	11307
925.816	11151
925.924	11227
926.031	11318
926.138	11181
926.245	11212
926.352	11132
926.459	11189
926.566	11410
926.673	11181
926.779	11102
926.886	11117
926.993	10946
927.099	10942
927.206	10866
927.312	10816
927.419	10877
927.525	10927
927.631	10873
927.737	10858
927.843	10767
927.95	10615
928.056	10702
928.162	10774
928.267	10805
928.373	11383
928.479	10809
928.585	10573
928.69	10729
928.796	10740
928.901	10653
929.007	10478
929.112	10599
929.218	10622
929.323	10611
929.428	10580
929.533	10603
929.638	10474
929.743	10440
929.848	10516
929.953	10493
930.058	10394
930.163	10177
930.267	10253
930.372	10417
930.477	10200
930.581	10466
930.685	10291
930.79	10268
930.894	10188
930.998	10131
931.103	10268
931.207	9899
931.311	9850
931.415	9732
931.519	9614
931.623	9500
