Data from test_V78500241_3406.txt Node
Date: Fri Mar 25 14:57:25 CST 2022
User: usil
Spectrometer: V785-0024
Trigger mode: 0
Integration Time (sec): 4.000000E-1
Scans to average: 1
Nonlinearity correction enabled: false
Boxcar width: 0
Storing dark spectrum: false
XAxis mode: Wavelengths
Number of Pixels in Spectrum: 1024
>>>>>Begin Spectral Data<<<<<
801.071	21903
801.214	21865
801.356	21595
801.499	21572
801.641	21233
801.783	21298
801.926	21256
802.068	21169
802.211	21077
802.353	21157
802.496	20826
802.638	20705
802.78	20785
802.923	20705
803.065	20606
803.208	20602
803.35	20583
803.492	20792
803.635	20724
803.777	20625
803.919	20773
804.061	21001
804.204	20651
804.346	20583
804.488	20518
804.63	20552
804.773	20518
804.915	20549
805.057	20537
805.199	20492
805.341	20651
805.483	20708
805.626	20575
805.768	20537
805.91	20492
806.052	20537
806.194	20427
806.336	20644
806.478	20442
806.62	20446
806.762	20484
806.904	20693
807.046	20899
807.188	20800
807.33	20773
807.472	20773
807.614	20716
807.756	20918
807.898	20777
808.04	20541
808.182	20598
808.324	20560
808.465	20621
808.607	20720
808.749	20845
808.891	21001
809.033	20960
809.174	21001
809.316	20849
809.458	20883
809.6	20788
809.741	20887
809.883	20979
810.025	21058
810.166	20899
810.308	21093
810.45	20941
810.591	20796
810.733	20743
810.875	20689
811.016	20499
811.158	20617
811.299	20674
811.441	20735
811.582	20705
811.724	20587
811.865	20556
812.007	20613
812.148	20594
812.29	20621
812.431	20796
812.573	20834
812.714	21043
812.855	21108
812.997	21252
813.138	21302
813.279	21188
813.421	21180
813.562	21066
813.703	20880
813.845	20819
813.986	20461
814.127	20377
814.268	20317
814.41	20210
814.551	20240
814.692	20218
814.833	20214
814.974	20168
815.115	20130
815.256	20001
815.397	19989
815.539	20119
815.68	20001
815.821	19879
815.962	19997
816.103	19860
816.244	19799
816.385	19571
816.526	19624
816.666	19430
816.807	19221
816.948	19324
817.089	19499
817.23	19453
817.371	19282
817.512	19384
817.653	19289
817.793	19221
817.934	19308
818.075	19331
818.216	19365
818.356	19263
818.497	19190
818.638	19114
818.778	19057
818.919	19069
819.06	19091
819.2	19110
819.341	19187
819.481	19301
819.622	19266
819.762	19472
819.903	19350
820.043	19358
820.184	19304
820.324	19228
820.465	19362
820.605	19320
820.746	19282
820.886	19110
821.026	19270
821.167	19213
821.307	19285
821.447	19164
821.588	19118
821.728	18928
821.868	18791
822.008	18623
822.149	18741
822.289	18582
822.429	18513
822.569	18456
822.709	18369
822.849	18174
822.99	18148
823.13	18098
823.27	18174
823.41	17916
823.55	17942
823.69	17973
823.83	18030
823.97	17904
824.11	17779
824.25	17718
824.389	17855
824.529	17790
824.669	17737
824.809	17775
824.949	17817
825.089	17813
825.228	17859
825.368	17562
825.508	17452
825.648	17512
825.787	17592
825.927	17600
826.067	17421
826.206	17634
826.346	17551
826.485	17600
826.625	17535
826.765	17665
826.904	17509
827.044	17387
827.183	17326
827.323	17086
827.462	17406
827.601	17296
827.741	17204
827.88	17273
828.02	17090
828.159	17181
828.298	17277
828.437	17395
828.577	17265
828.716	17467
828.855	17200
828.994	17071
829.134	16942
829.273	17018
829.412	17003
829.551	16915
829.69	17037
829.829	17208
829.968	17052
830.107	17022
830.246	16991
830.385	17022
830.524	16873
830.663	16820
830.802	16744
830.941	16615
831.08	16611
831.219	16828
831.357	16683
831.496	16885
831.635	16660
831.774	16630
831.913	16577
832.051	16481
832.19	16447
832.329	16573
832.467	16462
832.606	16375
832.744	16333
832.883	16348
833.022	16375
833.16	16417
833.299	16382
833.437	16421
833.576	16386
833.714	16478
833.852	16440
833.991	16447
834.129	16558
834.267	16523
834.406	16421
834.544	16424
834.682	16386
834.821	16436
834.959	16611
835.097	16344
835.235	16508
835.373	16424
835.511	16512
835.65	16310
835.788	16318
835.926	16147
836.064	16181
836.202	16211
836.34	16299
836.478	16375
836.615	16341
836.753	16341
836.891	16405
837.029	16371
837.167	16318
837.305	16295
837.443	16257
837.58	16211
837.718	16314
837.856	16329
837.993	16128
838.131	16158
838.269	16185
838.406	16226
838.544	16131
838.681	15804
838.819	15956
838.956	15797
839.094	15781
839.231	15838
839.369	15918
839.506	16154
839.643	16063
839.781	15785
839.918	15713
840.055	15675
840.193	15797
840.33	15690
840.467	15793
840.604	15888
840.742	15972
840.879	15656
841.016	15652
841.153	15686
841.29	15861
841.427	15846
841.564	15838
841.701	15720
841.838	15755
841.975	15679
842.112	15641
842.249	15564
842.385	15515
842.522	15778
842.659	15561
842.796	15477
842.933	15542
843.069	15576
843.206	15492
843.343	15698
843.479	15553
843.616	15603
843.752	15443
843.889	15397
844.025	15477
844.162	15393
844.298	15462
844.435	15355
844.571	15264
844.708	15469
844.844	15538
844.98	15469
845.117	15424
845.253	15241
845.389	15199
845.525	15241
845.661	15233
845.798	15074
845.934	15268
846.07	15123
846.206	15165
846.342	15275
846.478	15100
846.614	15013
846.75	14960
846.886	14868
847.022	15142
847.158	14902
847.294	14967
847.429	14910
847.565	14891
847.701	15119
847.837	14667
847.972	14579
848.108	14693
848.244	14807
848.379	14610
848.515	14400
848.65	14461
848.786	14594
848.921	14541
849.057	14541
849.192	14644
849.328	14568
849.463	14590
849.598	14427
849.734	14389
849.869	14434
850.004	14240
850.14	14294
850.275	14347
850.41	14237
850.545	14153
850.68	14377
850.815	14202
850.95	14355
851.085	14465
851.22	14396
851.355	14278
851.49	14237
851.625	14301
851.76	14240
851.895	14130
852.03	14161
852.165	14271
852.299	14259
852.434	14377
852.569	14256
852.703	14214
852.838	14355
852.973	14434
853.107	14434
853.242	14286
853.376	14221
853.511	14126
853.645	14119
853.78	14267
853.914	14240
854.048	14123
854.183	14088
854.317	14138
854.451	14309
854.585	14206
854.72	14199
854.854	14195
854.988	14103
855.122	14180
855.256	14020
855.39	14054
855.524	14275
855.658	14252
855.792	14111
855.926	14267
856.06	14214
856.194	14252
856.327	14199
856.461	14058
856.595	14088
856.729	14062
856.862	14267
856.996	14130
857.13	14221
857.263	14271
857.397	14305
857.53	14088
857.664	14237
857.797	14256
857.931	14362
858.064	14187
858.197	14347
858.331	14161
858.464	14096
858.597	13913
858.731	14145
858.864	14187
858.997	14077
859.13	14138
859.263	14111
859.396	14271
859.529	14134
859.662	14073
859.795	14107
859.928	14107
860.061	14290
860.194	14282
860.327	14305
860.46	14210
860.592	14294
860.725	14355
860.858	14237
860.99	14153
861.123	14050
861.256	14092
861.388	14115
861.521	14883
861.653	14024
861.786	13951
861.918	14077
862.05	14092
862.183	14145
862.315	14119
862.447	14248
862.58	14115
862.712	14012
862.844	13928
862.976	13970
863.108	14016
863.24	14317
863.372	13871
863.504	13887
863.636	13921
863.768	14058
863.9	13955
864.032	13772
864.164	13974
864.296	13959
864.428	14046
864.559	14046
864.691	14050
864.823	14043
864.954	13925
865.086	13997
865.217	13993
865.349	13894
865.48	14005
865.612	14016
865.743	14062
865.875	13883
866.006	13791
866.137	13947
866.269	13932
866.4	13913
866.531	13993
866.662	13826
866.793	13917
866.924	13902
867.055	14008
867.186	13936
867.317	13928
867.448	13860
867.579	13784
867.71	13841
867.841	13830
867.972	13951
868.103	13913
868.233	13936
868.364	13909
868.495	14138
868.625	14161
868.756	14267
868.886	14062
869.017	14145
869.147	14389
869.278	14237
869.408	14218
869.539	14126
869.669	14320
869.799	14210
869.929	14362
870.06	14282
870.19	14518
870.32	14480
870.45	14549
870.58	14518
870.71	14670
870.84	14640
870.97	14526
871.1	14602
871.23	14853
871.36	14727
871.489	14610
871.619	14773
871.749	14811
871.879	14773
872.008	14937
872.138	14739
872.267	14724
872.397	14625
872.526	14560
872.656	14571
872.785	14689
872.915	14838
873.044	14872
873.173	14815
873.303	14861
873.432	14876
873.561	14872
873.69	14891
873.819	14815
873.948	14887
874.077	14861
874.206	14826
874.335	14826
874.464	14963
874.593	15123
874.722	15074
874.851	15226
874.979	15150
875.108	15203
875.237	15097
875.365	15127
875.494	15165
875.623	15211
875.751	15157
875.88	15211
876.008	15302
876.136	15283
876.265	15500
876.393	15641
876.521	15618
876.65	15648
876.778	15686
876.906	15538
877.034	15466
877.162	15549
877.29	15504
877.418	15549
877.546	15545
877.674	15523
877.802	15519
877.93	15526
878.058	15561
878.185	15496
878.313	15469
878.441	15526
878.568	15363
878.696	15538
878.824	15515
878.951	15603
879.079	15739
879.206	15873
879.333	15625
879.461	15492
879.588	15675
879.715	15686
879.842	15880
879.97	15606
880.097	15382
880.224	15382
880.351	15397
880.478	15454
880.605	15454
880.732	15424
880.859	15690
880.986	15367
881.112	15466
881.239	15264
881.366	15199
881.493	14994
881.619	15032
881.746	15085
881.872	15123
881.999	14963
882.125	15066
882.252	15195
882.378	15066
882.505	15180
882.631	15020
882.757	14929
882.883	14872
883.01	14895
883.136	14842
883.262	14758
883.388	14804
883.514	14902
883.64	15001
883.766	14887
883.892	14735
884.018	14754
884.143	14861
884.269	14994
884.395	14670
884.52	14598
884.646	14499
884.772	14610
884.897	14450
885.023	14617
885.148	14640
885.274	14716
885.399	14598
885.524	14514
885.65	14587
885.775	14670
885.9	14583
886.025	14739
886.15	14712
886.275	14587
886.4	14590
886.525	14530
886.65	14522
886.775	14518
886.9	14834
887.025	14864
887.149	14617
887.274	14476
887.399	14343
887.523	14328
887.648	14332
887.773	14358
887.897	14636
888.021	14393
888.146	14469
888.27	14526
888.395	14473
888.519	14469
888.643	14545
888.767	14537
888.891	14347
889.015	14339
889.139	14233
889.263	14244
889.387	14351
889.511	14564
889.635	14438
889.759	14202
889.883	14256
890.006	14301
890.13	14366
890.254	14248
890.377	14248
890.501	14092
890.624	14001
890.748	14153
890.871	13978
890.995	13936
891.118	13799
891.241	13959
891.364	13909
891.488	14111
891.611	13997
891.734	13925
891.857	14081
891.98	14001
892.103	14073
892.226	14035
892.349	14050
892.471	13856
892.594	13871
892.717	13955
892.839	13928
892.962	13986
893.085	14103
893.207	14054
893.33	13841
893.452	13890
893.575	14039
893.697	13967
893.819	14138
893.941	14221
894.064	14157
894.186	13963
894.308	13989
894.43	14092
894.552	14172
894.674	14111
894.796	13947
894.918	14001
895.04	14012
895.161	14096
895.283	14103
895.405	14058
895.526	14100
895.648	14103
895.769	14065
895.891	14183
896.012	14202
896.134	14123
896.255	14176
896.376	14084
896.498	14111
896.619	14275
896.74	14168
896.861	14221
896.982	14564
897.103	14655
897.224	14469
897.345	14324
897.466	14400
897.587	14400
897.708	14568
897.828	14469
897.949	14362
898.07	14309
898.19	14419
898.311	14613
898.431	14393
898.552	14465
898.672	14625
898.792	14507
898.913	14533
899.033	14381
899.153	14385
899.273	14377
899.393	14317
899.513	14328
899.633	14358
899.753	14336
899.873	14370
899.993	14381
900.113	14396
900.232	14427
900.352	14400
900.472	14358
900.591	14073
900.711	14240
900.83	14142
900.95	14381
901.069	14377
901.189	14168
901.308	13868
901.427	13845
901.546	13974
901.665	13959
901.784	13955
901.904	13830
902.023	13639
902.141	13499
902.26	13495
902.379	13559
902.498	13499
902.617	13415
902.735	13605
902.854	13483
902.973	13407
903.091	13217
903.21	13160
903.328	13137
903.446	13122
903.565	13080
903.683	13042
903.801	12840
903.919	13042
904.038	13160
904.156	12897
904.274	12913
904.392	12966
904.51	12859
904.627	12875
904.745	12894
904.863	12901
904.981	12722
905.098	12578
905.216	12578
905.334	12635
905.451	12711
905.569	12528
905.686	12612
905.803	12601
905.921	12338
906.038	12513
906.155	12426
906.272	12304
906.389	12350
906.506	12152
906.623	12201
906.74	12175
906.857	12045
906.974	12034
907.091	12292
907.208	12311
907.324	12254
907.441	12030
907.557	11901
907.674	11927
907.79	11901
907.907	11916
908.023	12007
908.139	12015
908.256	11958
908.372	11885
908.488	11870
908.604	11729
908.72	11638
908.836	11718
908.952	11649
909.068	11703
909.184	11821
909.3	11707
909.415	11710
909.531	11623
909.647	11497
909.762	11512
909.878	11455
909.993	11493
910.108	11414
910.224	11433
910.339	11448
910.454	11444
910.57	11395
910.685	11258
910.8	11486
910.915	11452
911.03	11421
911.145	11204
911.259	11216
911.374	11140
911.489	11102
911.604	11037
911.718	10957
911.833	11014
911.947	10843
912.062	10755
912.176	10923
912.291	10919
912.405	10938
912.519	11052
912.633	11090
912.748	10976
912.862	10953
912.976	10812
913.09	10653
913.204	10816
913.318	10755
913.431	10946
913.545	10896
913.659	10919
913.772	10858
913.886	10774
914	10691
914.113	10782
914.226	10801
914.34	10790
914.453	10679
914.566	10774
914.68	10603
914.793	10683
914.906	10478
915.019	10424
915.132	10371
915.245	10409
915.358	10504
915.47	10398
915.583	10424
915.696	10565
915.809	10603
915.921	10588
916.034	10424
916.146	10348
916.259	10390
916.371	10409
916.483	10443
916.595	10413
916.708	10344
916.82	10390
916.932	10363
917.044	10352
917.156	10306
917.268	10276
917.38	10356
917.491	10238
917.603	10284
917.715	10291
917.826	10337
917.938	10280
918.049	10181
918.161	10318
918.272	10402
918.384	10413
918.495	10295
918.606	10128
918.717	10078
918.828	10173
918.939	10276
919.05	10051
919.161	10048
919.272	9926
919.383	9945
919.494	10215
919.604	10329
919.715	10192
919.826	10173
919.936	10090
920.047	10268
920.157	10181
920.267	10341
920.378	10242
920.488	10223
920.598	10382
920.708	10474
920.818	10390
920.928	10295
921.038	10504
921.148	10550
921.258	10242
921.368	10101
921.477	10067
921.587	9975
921.697	9876
921.806	10059
921.916	9972
922.025	9709
922.134	9751
922.244	9720
922.353	9724
922.462	9656
922.571	9603
922.68	9462
922.789	9428
922.898	9469
923.007	9386
923.116	9492
923.224	9416
923.333	9340
923.442	9306
923.55	9253
923.659	9310
923.767	9386
923.876	9275
923.984	9344
924.092	9268
924.201	9336
924.309	9310
924.417	9313
924.525	9245
924.633	9207
924.741	10154
924.849	9051
924.956	9260
925.064	9081
925.172	9123
925.279	9089
925.387	9131
925.494	9131
925.602	9112
925.709	9173
925.816	9062
925.924	9066
926.031	9154
926.138	9173
926.245	9127
926.352	9013
926.459	9165
926.566	9104
926.673	9100
926.779	8960
926.886	8914
926.993	8864
927.099	8792
927.206	8731
927.312	8785
927.419	8895
927.525	8800
927.631	8823
927.737	8678
927.843	8674
927.95	8625
928.056	8716
928.162	8705
928.267	8697
928.373	9367
928.479	8785
928.585	8552
928.69	8689
928.796	8686
928.901	8621
929.007	8476
929.112	8670
929.218	8644
929.323	8560
929.428	8530
929.533	8674
929.638	8514
929.743	8587
929.848	8514
929.953	8568
930.058	8419
930.163	8313
930.267	8252
930.372	8461
930.477	8237
930.581	8492
930.685	8332
930.79	8218
930.894	8210
930.998	8221
931.103	8366
931.207	8107
931.311	7936
931.415	7978
931.519	7769
931.623	7723
