Data from test_V78500241_1058.txt Node
Date: Fri Mar 25 14:41:05 CST 2022
User: usil
Spectrometer: V785-0024
Trigger mode: 0
Integration Time (sec): 4.000000E-1
Scans to average: 1
Nonlinearity correction enabled: false
Boxcar width: 0
Storing dark spectrum: false
XAxis mode: Wavelengths
Number of Pixels in Spectrum: 1024
>>>>>Begin Spectral Data<<<<<
801.071	22668
801.214	22672
801.356	22481
801.499	22344
801.641	22219
801.783	22139
801.926	22158
802.068	21972
802.211	22013
802.353	21911
802.496	21892
802.638	21705
802.78	21610
802.923	21538
803.065	21515
803.208	21405
803.35	21595
803.492	21606
803.635	21675
803.777	21504
803.919	21717
804.061	21937
804.204	21595
804.346	21344
804.488	21378
804.63	21488
804.773	21504
804.915	21603
805.057	21701
805.199	21526
805.341	21496
805.483	21526
805.626	21705
805.768	21462
805.91	21500
806.052	21633
806.194	21408
806.336	21599
806.478	21370
806.62	21443
806.762	21523
806.904	21660
807.046	21888
807.188	21926
807.33	21850
807.472	21857
807.614	21934
807.756	21907
807.898	21861
808.04	21823
808.182	21728
808.324	21968
808.465	21941
808.607	22375
808.749	22432
808.891	22550
809.033	22694
809.174	22451
809.316	22329
809.458	22226
809.6	22147
809.741	22181
809.883	22051
810.025	22257
810.166	22143
810.308	22166
810.45	22055
810.591	21930
810.733	21873
810.875	21747
811.016	21504
811.158	21720
811.299	21838
811.441	21850
811.582	21808
811.724	21785
811.865	21629
812.007	21720
812.148	21728
812.29	21739
812.431	21895
812.573	21975
812.714	22055
812.855	22200
812.997	22177
813.138	22474
813.279	22185
813.421	22215
813.562	22055
813.703	22074
813.845	21804
813.986	21557
814.127	21435
814.268	21329
814.41	21317
814.551	21237
814.692	21382
814.833	21317
814.974	21214
815.115	21184
815.256	20998
815.397	20960
815.539	21142
815.68	20925
815.821	20914
815.962	20857
816.103	21024
816.244	20758
816.385	20693
816.526	20754
816.666	20606
816.807	20278
816.948	20533
817.089	20598
817.23	20533
817.371	20324
817.512	20355
817.653	20343
817.793	20286
817.934	20400
818.075	20511
818.216	20457
818.356	20244
818.497	20115
818.638	20020
818.778	20088
818.919	20142
819.06	20050
819.2	20187
819.341	20180
819.481	20244
819.622	20305
819.762	20488
819.903	20587
820.043	20514
820.184	20434
820.324	20366
820.465	20358
820.605	20355
820.746	20290
820.886	20320
821.026	20366
821.167	20324
821.307	20389
821.447	20187
821.588	20195
821.728	20050
821.868	19898
822.008	19731
822.149	19791
822.289	19620
822.429	19445
822.569	19453
822.709	19415
822.849	19289
822.99	19179
823.13	19175
823.27	19304
823.41	19084
823.55	18970
823.69	19088
823.83	19015
823.97	18966
824.11	18837
824.25	18684
824.389	18795
824.529	18852
824.669	18894
824.809	18947
824.949	18909
825.089	18920
825.228	18791
825.368	18696
825.508	18582
825.648	18631
825.787	18673
825.927	18654
826.067	18578
826.206	18574
826.346	18566
826.485	18719
826.625	18570
826.765	18658
826.904	18593
827.044	18296
827.183	18448
827.323	18190
827.462	18266
827.601	18342
827.741	18270
827.88	18254
828.02	18106
828.159	18270
828.298	18266
828.437	18334
828.577	18327
828.716	18414
828.855	18300
828.994	18030
829.134	18003
829.273	18053
829.412	17992
829.551	18026
829.69	18045
829.829	18060
829.968	18091
830.107	18110
830.246	17984
830.385	18079
830.524	17984
830.663	17874
830.802	17855
830.941	17642
831.08	17760
831.219	17687
831.357	17703
831.496	17821
831.635	17638
831.774	17474
831.913	17444
832.051	17398
832.19	17474
832.329	17532
832.467	17444
832.606	17174
832.744	17200
832.883	17455
833.022	17402
833.16	17425
833.299	17417
833.437	17425
833.576	17417
833.714	17474
833.852	17444
833.991	17478
834.129	17554
834.267	17497
834.406	17505
834.544	17444
834.682	17478
834.821	17395
834.959	17501
835.097	17398
835.235	17459
835.373	17417
835.511	17509
835.65	17383
835.788	17326
835.926	17200
836.064	17162
836.202	16991
836.34	17288
836.478	17486
836.615	17269
836.753	17402
836.891	17334
837.029	17315
837.167	17307
837.305	17254
837.443	17162
837.58	17113
837.718	17345
837.856	17220
837.993	17128
838.131	17128
838.269	17155
838.406	17045
838.544	17071
838.681	16923
838.819	16850
838.956	16725
839.094	16672
839.231	16694
839.369	16782
839.506	17128
839.643	16991
839.781	16656
839.918	16691
840.055	16744
840.193	16603
840.33	16656
840.467	16675
840.604	16767
840.742	16942
840.879	16611
841.016	16653
841.153	16588
841.29	16835
841.427	16767
841.564	16774
841.701	16668
841.838	16611
841.975	16637
842.112	16656
842.249	16481
842.385	16462
842.522	16554
842.659	16443
842.796	16417
842.933	16462
843.069	16344
843.206	16443
843.343	16573
843.479	16535
843.616	16580
843.752	16363
843.889	16402
844.025	16371
844.162	16116
844.298	16443
844.435	16375
844.571	16280
844.708	16436
844.844	16443
844.98	16341
845.117	16386
845.253	16382
845.389	16226
845.525	16424
845.661	16508
845.798	16512
845.934	16752
846.07	16786
846.206	16793
846.342	16839
846.478	16489
846.614	16166
846.75	15873
846.886	15876
847.022	15945
847.158	15869
847.294	15953
847.429	15922
847.565	15789
847.701	16109
847.837	15568
847.972	15519
848.108	15637
848.244	15584
848.379	15473
848.515	15424
848.65	15351
848.786	15382
848.921	15485
849.057	15469
849.192	15477
849.328	15485
849.463	15389
849.598	15359
849.734	15302
849.869	15256
850.004	15161
850.14	15173
850.275	15176
850.41	15013
850.545	15173
850.68	15195
850.815	15188
850.95	15123
851.085	15329
851.22	15180
851.355	15233
851.49	15226
851.625	15135
851.76	15077
851.895	15058
852.03	14963
852.165	15192
852.299	15222
852.434	15252
852.569	15195
852.703	15142
852.838	15302
852.973	15329
853.107	15310
853.242	15108
853.376	15066
853.511	14933
853.645	15070
853.78	15089
853.914	15199
854.048	15032
854.183	15039
854.317	15093
854.451	15180
854.585	14944
854.72	15001
854.854	15032
854.988	15024
855.122	14929
855.256	14971
855.39	14933
855.524	15051
855.658	15138
855.792	15176
855.926	15100
856.06	15112
856.194	15093
856.327	15100
856.461	14952
856.595	14819
856.729	15013
856.862	15226
856.996	15097
857.13	15123
857.263	15192
857.397	15112
857.53	15043
857.664	15135
857.797	15058
857.931	15157
858.064	15093
858.197	15161
858.331	15051
858.464	15051
858.597	14956
858.731	15028
858.864	15009
858.997	14883
859.13	15051
859.263	15013
859.396	15127
859.529	14975
859.662	15077
859.795	15013
859.928	15058
860.061	15222
860.194	15218
860.327	15112
860.46	14979
860.592	15135
860.725	15093
860.858	15108
860.99	15020
861.123	14914
861.256	14944
861.388	15036
861.521	15759
861.653	14868
861.786	14830
861.918	14849
862.05	14933
862.183	14956
862.315	14990
862.447	15123
862.58	14982
862.712	14788
862.844	14765
862.976	14838
863.108	14910
863.24	15245
863.372	14659
863.504	14769
863.636	14743
863.768	14731
863.9	14807
864.032	14705
864.164	14739
864.296	14811
864.428	14857
864.559	14925
864.691	14925
864.823	14963
864.954	14826
865.086	14807
865.217	14811
865.349	14800
865.48	14788
865.612	14834
865.743	14925
865.875	14765
866.006	14720
866.137	14899
866.269	14819
866.4	14758
866.531	14819
866.662	14693
866.793	14716
866.924	14807
867.055	14887
867.186	14701
867.317	14640
867.448	14689
867.579	14693
867.71	14720
867.841	14773
867.972	14781
868.103	14807
868.233	14826
868.364	14796
868.495	14823
868.625	14929
868.756	15024
868.886	14899
869.017	14971
869.147	15154
869.278	15154
869.408	15058
869.539	15119
869.669	15123
869.799	15081
869.929	15100
870.06	15104
870.19	15317
870.32	15260
870.45	15329
870.58	15485
870.71	15515
870.84	15504
870.97	15462
871.1	15462
871.23	15564
871.36	15561
871.489	15481
871.619	15477
871.749	15625
871.879	15603
872.008	15736
872.138	15603
872.267	15477
872.397	15412
872.526	15397
872.656	15348
872.785	15374
872.915	15614
873.044	15808
873.173	15633
873.303	15682
873.432	15625
873.561	15736
873.69	15720
873.819	15576
873.948	15720
874.077	15701
874.206	15713
874.335	15698
874.464	15854
874.593	15911
874.722	15895
874.851	15949
874.979	15983
875.108	16040
875.237	15926
875.365	15793
875.494	15915
875.623	16097
875.751	15941
875.88	16010
876.008	16185
876.136	16131
876.265	16318
876.393	16421
876.521	16440
876.65	16462
876.778	16386
876.906	16242
877.034	16325
877.162	16459
877.29	16325
877.418	16390
877.546	16402
877.674	16409
877.802	16402
877.93	16489
878.058	16367
878.185	16341
878.313	16402
878.441	16455
878.568	16310
878.696	16489
878.824	16493
878.951	16538
879.079	16740
879.206	16938
879.333	16877
879.461	16847
879.588	16896
879.715	16961
879.842	17014
879.97	16748
880.097	16409
880.224	16409
880.351	16398
880.478	16246
880.605	16287
880.732	16299
880.859	16588
880.986	16424
881.112	16337
881.239	16215
881.366	16055
881.493	15972
881.619	15869
881.746	16025
881.872	15888
881.999	15987
882.125	15846
882.252	16082
882.378	16082
882.505	16169
882.631	15926
882.757	15774
882.883	15800
883.01	15797
883.136	15778
883.262	15705
883.388	15663
883.514	15819
883.64	15888
883.766	15679
883.892	15591
884.018	15682
884.143	15751
884.269	15869
884.395	15618
884.52	15519
884.646	15576
884.772	15439
884.897	15321
885.023	15473
885.148	15644
885.274	15705
885.399	15549
885.524	15561
885.65	15500
885.775	15507
885.9	15488
886.025	15584
886.15	15564
886.275	15534
886.4	15351
886.525	15500
886.65	15443
886.775	15408
886.9	15629
887.025	15774
887.149	15511
887.274	15351
887.399	15302
887.523	15325
887.648	15245
887.773	15188
887.897	15420
888.021	15230
888.146	15287
888.27	15382
888.395	15454
888.519	15218
888.643	15348
888.767	15325
888.891	15222
889.015	15097
889.139	15195
889.263	15131
889.387	15260
889.511	15329
889.635	15329
889.759	15161
889.883	15119
890.006	15176
890.13	15340
890.254	15039
890.377	15203
890.501	14921
890.624	14952
890.748	14998
890.871	14929
890.995	14792
891.118	14777
891.241	14853
891.364	14811
891.488	14918
891.611	14899
891.734	14800
891.857	14921
891.98	14849
892.103	14933
892.226	14929
892.349	14842
892.471	14617
892.594	14811
892.717	14891
892.839	14739
892.962	14769
893.085	14777
893.207	14796
893.33	14667
893.452	14682
893.575	14868
893.697	14796
893.819	14963
893.941	14982
894.064	14975
894.186	14773
894.308	14716
894.43	14929
894.552	14986
894.674	14872
894.796	14777
894.918	14834
895.04	14716
895.161	14895
895.283	14883
895.405	14716
895.526	14921
895.648	14857
895.769	14963
895.891	14895
896.012	14982
896.134	14967
896.255	14895
896.376	14937
896.498	14872
896.619	14914
896.74	15070
896.861	14971
896.982	15237
897.103	15348
897.224	15268
897.345	15237
897.466	15165
897.587	15214
897.708	15359
897.828	15329
897.949	15104
898.07	15051
898.19	15169
898.311	15367
898.431	15306
898.552	15226
898.672	15256
898.792	15340
898.913	15332
899.033	15180
899.153	15112
899.273	14937
899.393	15131
899.513	15112
899.633	15173
899.753	15237
899.873	15051
899.993	15104
900.113	15077
900.232	15157
900.352	15097
900.472	15123
900.591	14956
900.711	15036
900.83	14960
900.95	15039
901.069	15077
901.189	14891
901.308	14610
901.427	14606
901.546	14629
901.665	14765
901.784	14670
901.904	14568
902.023	14343
902.141	14301
902.26	14317
902.379	14298
902.498	14210
902.617	14142
902.735	14183
902.854	14164
902.973	14138
903.091	13887
903.21	13898
903.328	13890
903.446	13852
903.565	13845
903.683	13788
903.801	13597
903.919	13662
904.038	13708
904.156	13575
904.274	13597
904.392	13483
904.51	13510
904.627	13480
904.745	13578
904.863	13655
904.981	13343
905.098	13187
905.216	13259
905.334	13278
905.451	13187
905.569	13206
905.686	13324
905.803	13209
905.921	13095
906.038	13122
906.155	13065
906.272	12878
906.389	13023
906.506	12760
906.623	12920
906.74	12840
906.857	12768
906.974	12795
907.091	12878
907.208	12996
907.324	12837
907.441	12722
907.557	12551
907.674	12597
907.79	12494
907.907	12563
908.023	12639
908.139	12570
908.256	12471
908.372	12517
908.488	12418
908.604	12220
908.72	12315
908.836	12330
908.952	12129
909.068	12342
909.184	12342
909.3	12410
909.415	12327
909.531	12319
909.647	12136
909.762	12007
909.878	12015
909.993	12121
910.108	12053
910.224	12060
910.339	12019
910.454	11999
910.57	11931
910.685	11798
910.8	12140
910.915	12060
911.03	11969
911.145	11843
911.259	11752
911.374	11760
911.489	11703
911.604	11680
911.718	11509
911.833	11505
911.947	11467
912.062	11334
912.176	11490
912.291	11547
912.405	11554
912.519	11737
912.633	11680
912.748	11562
912.862	11516
912.976	11444
913.09	11296
913.204	11349
913.318	11406
913.431	11398
913.545	11455
913.659	11505
913.772	11349
913.886	11296
914	11254
914.113	11425
914.226	11356
914.34	11395
914.453	11162
914.566	11326
914.68	11250
914.793	11208
914.906	10953
915.019	10953
915.132	10949
915.245	10972
915.358	11113
915.47	10991
915.583	10968
915.696	11090
915.809	11117
915.921	11143
916.034	10881
916.146	10911
916.259	10847
916.371	10946
916.483	10930
916.595	10828
916.708	10961
916.82	10965
916.932	10965
917.044	10850
917.156	10862
917.268	10797
917.38	10839
917.491	10812
917.603	10801
917.715	10885
917.826	11029
917.938	10797
918.049	10714
918.161	10793
918.272	10968
918.384	10873
918.495	10812
918.606	10672
918.717	10580
918.828	10714
918.939	10706
919.05	10611
919.161	10649
919.272	10489
919.383	10538
919.494	10774
919.604	10885
919.715	10687
919.826	10691
919.936	10618
920.047	10805
920.157	10634
920.267	10911
920.378	10767
920.488	10687
920.598	10862
920.708	11045
920.818	10877
920.928	10873
921.038	11018
921.148	11018
921.258	10721
921.368	10641
921.477	10561
921.587	10493
921.697	10360
921.806	10546
921.916	10417
922.025	10128
922.134	10169
922.244	10162
922.353	10211
922.462	10074
922.571	10071
922.68	9895
922.789	9835
922.898	9941
923.007	9850
923.116	9907
923.224	9876
923.333	9888
923.442	9709
923.55	9778
923.659	9808
923.767	9869
923.876	9690
923.984	9895
924.092	9675
924.201	9747
924.309	9842
924.417	9774
924.525	9755
924.633	9675
924.741	10569
924.849	9595
924.956	9679
925.064	9511
925.172	9492
925.279	9523
925.387	9466
925.494	9584
925.602	9618
925.709	9633
925.816	9424
925.924	9481
926.031	9625
926.138	9542
926.245	9492
926.352	9454
926.459	9603
926.566	9686
926.673	9435
926.779	9428
926.886	9336
926.993	9272
927.099	9253
927.206	9203
927.312	9184
927.419	9233
927.525	9218
927.631	9329
927.737	9142
927.843	9161
927.95	9047
928.056	9036
928.162	9135
928.267	9161
928.373	9740
928.479	9245
928.585	8975
928.69	9199
928.796	9062
928.901	8998
929.007	8849
929.112	9032
929.218	9032
929.323	9001
929.428	8963
929.533	9051
929.638	8906
929.743	8925
929.848	9005
929.953	8941
930.058	8853
930.163	8739
930.267	8857
930.372	8838
930.477	8697
930.581	8868
930.685	8746
930.79	8613
930.894	8594
930.998	8602
931.103	8739
931.207	8415
931.311	8419
931.415	8290
931.519	8096
931.623	8149
