Data from test_V78500241_283.txt Node
Date: Fri Mar 25 14:35:41 CST 2022
User: usil
Spectrometer: V785-0024
Trigger mode: 0
Integration Time (sec): 4.000000E-1
Scans to average: 1
Nonlinearity correction enabled: false
Boxcar width: 0
Storing dark spectrum: false
XAxis mode: Wavelengths
Number of Pixels in Spectrum: 1024
>>>>>Begin Spectral Data<<<<<
801.071	27386
801.214	27306
801.356	26940
801.499	26944
801.641	26750
801.783	26731
801.926	26895
802.068	26773
802.211	26507
802.353	26450
802.496	26313
802.638	26328
802.78	26362
802.923	26237
803.065	26180
803.208	26187
803.35	26237
803.492	26317
803.635	26313
803.777	26286
803.919	26278
804.061	26606
804.204	26393
804.346	26119
804.488	26100
804.63	26233
804.773	26218
804.915	26062
805.057	26351
805.199	26183
805.341	26191
805.483	26358
805.626	26214
805.768	26187
805.91	26362
806.052	26172
806.194	26237
806.336	26396
806.478	26313
806.62	26164
806.762	26309
806.904	26415
807.046	26674
807.188	26689
807.33	26625
807.472	26697
807.614	26575
807.756	26689
807.898	26450
808.04	26389
808.182	26446
808.324	26404
808.465	26427
808.607	26758
808.749	26876
808.891	26975
809.033	26902
809.174	26853
809.316	26807
809.458	26800
809.6	26838
809.741	26914
809.883	26940
810.025	26952
810.166	27005
810.308	26948
810.45	26880
810.591	26811
810.733	26807
810.875	26613
811.016	26632
811.158	26549
811.299	26606
811.441	26727
811.582	26667
811.724	26587
811.865	26686
812.007	26549
812.148	26541
812.29	26644
812.431	26819
812.573	26918
812.714	26918
812.855	27020
812.997	27138
813.138	27370
813.279	27169
813.421	27051
813.562	27081
813.703	26918
813.845	26777
813.986	26545
814.127	26324
814.268	26221
814.41	26256
814.551	26119
814.692	26362
814.833	26351
814.974	26100
815.115	26214
815.256	25947
815.397	26031
815.539	25887
815.68	26001
815.821	25909
815.962	25917
816.103	25864
816.244	25727
816.385	25609
816.526	25616
816.666	25415
816.807	25263
816.948	25377
817.089	25445
817.23	25384
817.371	25362
817.512	25301
817.653	25377
817.793	25206
817.934	25266
818.075	25236
818.216	25346
818.356	25244
818.497	25019
818.638	24924
818.778	24966
818.919	25004
819.06	25091
819.2	25160
819.341	25274
819.481	25103
819.622	25441
819.762	25476
819.903	25426
820.043	25415
820.184	25308
820.324	25335
820.465	25320
820.605	25369
820.746	25251
820.886	25251
821.026	25217
821.167	25187
821.307	25213
821.447	25137
821.588	25076
821.728	24966
821.868	24757
822.008	24707
822.149	24798
822.289	24669
822.429	24441
822.569	24285
822.709	24277
822.849	24201
822.99	24190
823.13	23965
823.27	24079
823.41	23843
823.55	23748
823.69	23942
823.83	23912
823.97	23836
824.11	23745
824.25	23615
824.389	23710
824.529	23714
824.669	23684
824.809	23775
824.949	23733
825.089	23722
825.228	23615
825.368	23509
825.508	23486
825.648	23478
825.787	23501
825.927	23619
826.067	23402
826.206	23471
826.346	23455
826.485	23581
826.625	23322
826.765	23638
826.904	23406
827.044	23170
827.183	23098
827.323	23143
827.462	23090
827.601	23052
827.741	23071
827.88	23227
828.02	23075
828.159	23025
828.298	23109
828.437	23170
828.577	23018
828.716	23193
828.855	23090
828.994	22885
829.134	22824
829.273	22900
829.412	22710
829.551	22771
829.69	22790
829.829	22873
829.968	22930
830.107	22908
830.246	22687
830.385	22824
830.524	22778
830.663	22615
830.802	22485
830.941	22333
831.08	22390
831.219	22455
831.357	22440
831.496	22645
831.635	22394
831.774	22223
831.913	22185
832.051	22101
832.19	22154
832.329	22162
832.467	22017
832.606	22029
832.744	22067
832.883	22131
833.022	21975
833.16	21998
833.299	22017
833.437	21854
833.576	22044
833.714	22036
833.852	22158
833.991	22070
834.129	22112
834.267	22226
834.406	21846
834.544	22093
834.682	21983
834.821	22048
834.959	22204
835.097	21926
835.235	22101
835.373	22097
835.511	21972
835.65	21831
835.788	21869
835.926	21641
836.064	21660
836.202	21766
836.34	21987
836.478	22013
836.615	21915
836.753	21895
836.891	21922
837.029	21781
837.167	21937
837.305	21751
837.443	21717
837.58	21736
837.718	21732
837.856	21652
837.993	21675
838.131	21660
838.269	21610
838.406	21542
838.544	21420
838.681	21447
838.819	21298
838.956	21089
839.094	21233
839.231	21306
839.369	21340
839.506	21599
839.643	21397
839.781	21096
839.918	21051
840.055	21096
840.193	21104
840.33	21100
840.467	21089
840.604	21070
840.742	21321
840.879	20834
841.016	21055
841.153	20941
841.29	21104
841.427	20960
841.564	21017
841.701	21032
841.838	20998
841.975	20914
842.112	20906
842.249	20777
842.385	20876
842.522	20982
842.659	20724
842.796	20651
842.933	20826
843.069	20731
843.206	20655
843.343	20804
843.479	20697
843.616	20727
843.752	20552
843.889	20530
844.025	20663
844.162	20571
844.298	20644
844.435	20495
844.571	20465
844.708	20465
844.844	20579
844.98	20484
845.117	20511
845.253	20484
845.389	20271
845.525	20522
845.661	20442
845.798	20309
845.934	20457
846.07	20473
846.206	20252
846.342	20556
846.478	20366
846.614	20103
846.75	19944
846.886	20096
847.022	20210
847.158	20024
847.294	20062
847.429	20088
847.565	19795
847.701	20092
847.837	19685
847.972	19681
848.108	19852
848.244	19712
848.379	19609
848.515	19525
848.65	19563
848.786	19609
848.921	19552
849.057	19563
849.192	19609
849.328	19548
849.463	19609
849.598	19476
849.734	19324
849.869	19487
850.004	19331
850.14	19274
850.275	19358
850.41	19335
850.545	19301
850.68	19187
850.815	19259
850.95	19304
851.085	19491
851.22	19411
851.355	19263
851.49	19285
851.625	19164
851.76	19278
851.895	19160
852.03	19088
852.165	19266
852.299	19282
852.434	19244
852.569	19320
852.703	19240
852.838	19266
852.973	19270
853.107	19297
853.242	19251
853.376	19148
853.511	19072
853.645	18993
853.78	19179
853.914	19148
854.048	19076
854.183	19057
854.317	19046
854.451	19141
854.585	19004
854.72	18954
854.854	19152
854.988	19072
855.122	19183
855.256	18977
855.39	19114
855.524	19213
855.658	19069
855.792	19091
855.926	19023
856.06	19137
856.194	19152
856.327	19034
856.461	18970
856.595	19008
856.729	19027
856.862	19171
856.996	19027
857.13	19152
857.263	19259
857.397	19118
857.53	19031
857.664	19133
857.797	19183
857.931	19129
858.064	19091
858.197	19095
858.331	19088
858.464	19072
858.597	18821
858.731	19038
858.864	19069
858.997	18867
859.13	19000
859.263	19103
859.396	19027
859.529	18977
859.662	18996
859.795	18939
859.928	18962
860.061	19198
860.194	19194
860.327	19015
860.46	18886
860.592	19065
860.725	19103
860.858	19118
860.99	18989
861.123	18871
861.256	18977
861.388	18954
861.521	19597
861.653	18894
861.786	18913
861.918	18977
862.05	19160
862.183	18985
862.315	19034
862.447	18966
862.58	19000
862.712	18772
862.844	18760
862.976	18814
863.108	18878
863.24	19088
863.372	18578
863.504	18688
863.636	18684
863.768	18715
863.9	18779
864.032	18665
864.164	18734
864.296	18772
864.428	18741
864.559	18741
864.691	18802
864.823	18726
864.954	18703
865.086	18798
865.217	18646
865.349	18570
865.48	18631
865.612	18578
865.743	18738
865.875	18673
866.006	18589
866.137	18681
866.269	18623
866.4	18563
866.531	18525
866.662	18566
866.793	18448
866.924	18547
867.055	18623
867.186	18513
867.317	18513
867.448	18528
867.579	18536
867.71	18452
867.841	18502
867.972	18559
868.103	18650
868.233	18601
868.364	18479
868.495	18650
868.625	18722
868.756	18833
868.886	18658
869.017	18791
869.147	18932
869.278	18966
869.408	18760
869.539	18798
869.669	18913
869.799	18954
869.929	18920
870.06	18802
870.19	19031
870.32	19015
870.45	19187
870.58	19198
870.71	19274
870.84	19217
870.97	19103
871.1	19118
871.23	19285
871.36	19396
871.489	19282
871.619	19339
871.749	19358
871.879	19400
872.008	19415
872.138	19422
872.267	19491
872.397	19221
872.526	19282
872.656	19213
872.785	19179
872.915	19453
873.044	19373
873.173	19430
873.303	19537
873.432	19510
873.561	19480
873.69	19441
873.819	19396
873.948	19472
874.077	19384
874.206	19384
874.335	19308
874.464	19514
874.593	19658
874.722	19708
874.851	19670
874.979	19860
875.108	19704
875.237	19742
875.365	19597
875.494	19681
875.623	19826
875.751	19658
875.88	19795
876.008	19875
876.136	19902
876.265	20024
876.393	20206
876.521	20153
876.65	20107
876.778	20115
876.906	20088
877.034	20065
877.162	20020
877.29	20046
877.418	20039
877.546	20054
877.674	19955
877.802	20039
877.93	20012
878.058	20035
878.185	19913
878.313	20062
878.441	20081
878.568	19917
878.696	20031
878.824	20126
878.951	20214
879.079	20248
879.206	20537
879.333	20282
879.461	20210
879.588	20206
879.715	20431
879.842	20454
879.97	20336
880.097	19936
880.224	19906
880.351	19925
880.478	19936
880.605	19833
880.732	19902
880.859	20195
880.986	19780
881.112	20058
881.239	19875
881.366	19666
881.493	19529
881.619	19514
881.746	19651
881.872	19571
881.999	19350
882.125	19480
882.252	19468
882.378	19655
882.505	19719
882.631	19403
882.757	19384
882.883	19358
883.01	19369
883.136	19244
883.262	19255
883.388	19091
883.514	19316
883.64	19373
883.766	19213
883.892	19053
884.018	19107
884.143	19301
884.269	19411
884.395	19069
884.52	19008
884.646	18954
884.772	18916
884.897	18894
885.023	18890
885.148	19129
885.274	19012
885.399	19069
885.524	18966
885.65	18962
885.775	18920
885.9	18810
886.025	19053
886.15	19088
886.275	18821
886.4	18802
886.525	18856
886.65	18894
886.775	18795
886.9	18993
887.025	18996
887.149	18875
887.274	18711
887.399	18726
887.523	18715
887.648	18639
887.773	18612
887.897	18745
888.021	18707
888.146	18593
888.27	18802
888.395	18719
888.519	18738
888.643	18776
888.767	18738
888.891	18597
889.015	18483
889.139	18570
889.263	18528
889.387	18635
889.511	18608
889.635	18658
889.759	18483
889.883	18426
890.006	18445
890.13	18635
890.254	18357
890.377	18479
890.501	18213
890.624	18232
890.748	18357
890.871	18140
890.995	18148
891.118	18034
891.241	18098
891.364	18121
891.488	18281
891.611	18079
891.734	18057
891.857	18163
891.98	18194
892.103	18194
892.226	18053
892.349	17980
892.471	17874
892.594	17923
892.717	18171
892.839	17950
892.962	17996
893.085	18091
893.207	18117
893.33	17969
893.452	17950
893.575	18270
893.697	18011
893.819	18247
893.941	18186
894.064	18159
894.186	17950
894.308	17939
894.43	18190
894.552	18182
894.674	18178
894.796	18015
894.918	18007
895.04	18098
895.161	18167
895.283	18178
895.405	17992
895.526	18083
895.648	18057
895.769	18155
895.891	18019
896.012	18159
896.134	18190
896.255	18060
896.376	18102
896.498	18102
896.619	18140
896.74	18083
896.861	18197
896.982	18479
897.103	18593
897.224	18460
897.345	18429
897.466	18262
897.587	18384
897.708	18494
897.828	18467
897.949	18372
898.07	18220
898.19	18270
898.311	18388
898.431	18350
898.552	18391
898.672	18433
898.792	18452
898.913	18429
899.033	18262
899.153	18110
899.273	18060
899.393	18186
899.513	18148
899.633	18091
899.753	18095
899.873	18011
899.993	18163
900.113	17988
900.232	18102
900.352	18022
900.472	17901
900.591	17980
900.711	17927
900.83	17824
900.95	17965
901.069	17973
901.189	17916
901.308	17627
901.427	17509
901.546	17653
901.665	17589
901.784	17505
901.904	17433
902.023	17448
902.141	17094
902.26	17060
902.379	17178
902.498	17083
902.617	16957
902.735	17140
902.854	17071
902.973	17045
903.091	16774
903.21	16729
903.328	16748
903.446	16713
903.565	16626
903.683	16630
903.801	16535
903.919	16512
904.038	16519
904.156	16386
904.274	16432
904.392	16272
904.51	16348
904.627	16337
904.745	16242
904.863	16402
904.981	16082
905.098	16010
905.216	16006
905.334	16051
905.451	16071
905.569	15934
905.686	16055
905.803	15964
905.921	15857
906.038	15918
906.155	15793
906.272	15770
906.389	15728
906.506	15530
906.623	15534
906.74	15523
906.857	15462
906.974	15462
907.091	15755
907.208	15641
907.324	15542
907.441	15428
907.557	15256
907.674	15291
907.79	15256
907.907	15222
908.023	15321
908.139	15306
908.256	15192
908.372	15131
908.488	15100
908.604	14929
908.72	14956
908.836	14937
908.952	14887
909.068	14883
909.184	14956
909.3	14929
909.415	15009
909.531	14975
909.647	14754
909.762	14644
909.878	14598
909.993	14610
910.108	14632
910.224	14663
910.339	14587
910.454	14518
910.57	14503
910.685	14412
910.8	14731
910.915	14583
911.03	14461
911.145	14237
911.259	14305
911.374	14294
911.489	14240
911.604	14214
911.718	13986
911.833	14062
911.947	14020
912.062	13822
912.176	13928
912.291	14103
912.405	14058
912.519	14206
912.633	14176
912.748	13970
912.862	13925
912.976	13841
913.09	13750
913.204	13837
913.318	13879
913.431	13852
913.545	13890
913.659	13890
913.772	13837
913.886	13681
914	13582
914.113	13807
914.226	13856
914.34	13719
914.453	13620
914.566	13696
914.68	13666
914.793	13594
914.906	13388
915.019	13434
915.132	13259
915.245	13331
915.358	13373
915.47	13419
915.583	13426
915.696	13316
915.809	13529
915.921	13460
916.034	13350
916.146	13209
916.259	13164
916.371	13346
916.483	13331
916.595	13217
916.708	13088
916.82	13156
916.932	13145
917.044	13187
917.156	13206
917.268	13118
917.38	13038
917.491	12985
917.603	13050
917.715	13091
917.826	13080
917.938	13015
918.049	12970
918.161	13000
918.272	13160
918.384	13126
918.495	12951
918.606	12890
918.717	12859
918.828	12825
918.939	12943
919.05	12745
919.161	12806
919.272	12669
919.383	12776
919.494	12901
919.604	12966
919.715	12814
919.826	12757
919.936	12734
920.047	12840
920.157	12856
920.267	13038
920.378	12821
920.488	12863
920.598	12993
920.708	13053
920.818	12920
920.928	12913
921.038	13091
921.148	13004
921.258	12749
921.368	12719
921.477	12544
921.587	12612
921.697	12414
921.806	12555
921.916	12452
922.025	12258
922.134	12258
922.244	12117
922.353	12323
922.462	12133
922.571	12095
922.68	11992
922.789	11874
922.898	11942
923.007	11794
923.116	11984
923.224	11920
923.333	11931
923.442	11764
923.55	11756
923.659	11786
923.767	11840
923.876	11688
923.984	11802
924.092	11710
924.201	11695
924.309	11649
924.417	11684
924.525	11699
924.633	11653
924.741	12479
924.849	11459
924.956	11573
925.064	11455
925.172	11315
925.279	11356
925.387	11448
925.494	11326
925.602	11463
925.709	11474
925.816	11326
925.924	11322
926.031	11410
926.138	11391
926.245	11493
926.352	11364
926.459	11421
926.566	11414
926.673	11265
926.779	11227
926.886	11235
926.993	11056
927.099	10995
927.206	11003
927.312	11010
927.419	11090
927.525	11025
927.631	11067
927.737	10942
927.843	10900
927.95	10793
928.056	10919
928.162	10801
928.267	10957
928.373	11467
928.479	10987
928.585	10771
928.69	10866
928.796	10900
928.901	10748
929.007	10694
929.112	10771
929.218	10767
929.323	10653
929.428	10634
929.533	10801
929.638	10607
929.743	10565
929.848	10675
929.953	10573
930.058	10497
930.163	10318
930.267	10352
930.372	10538
930.477	10280
930.581	10516
930.685	10436
930.79	10227
930.894	10204
930.998	10169
931.103	10398
931.207	9998
931.311	9903
931.415	9922
931.519	9644
931.623	9599
