Data from test_V78500241_2148.txt Node
Date: Fri Mar 25 14:48:40 CST 2022
User: usil
Spectrometer: V785-0024
Trigger mode: 0
Integration Time (sec): 4.000000E-1
Scans to average: 1
Nonlinearity correction enabled: false
Boxcar width: 0
Storing dark spectrum: false
XAxis mode: Wavelengths
Number of Pixels in Spectrum: 1024
>>>>>Begin Spectral Data<<<<<
801.071	22105
801.214	22173
801.356	21884
801.499	21724
801.641	21759
801.783	21519
801.926	21656
802.068	21382
802.211	21515
802.353	21302
802.496	21188
802.638	21192
802.78	21100
802.923	21032
803.065	20891
803.208	20872
803.35	21058
803.492	20994
803.635	21036
803.777	20902
803.919	21081
804.061	21306
804.204	21039
804.346	20830
804.488	20804
804.63	20918
804.773	20842
804.915	20868
805.057	20925
805.199	20933
805.341	20899
805.483	20982
805.626	21032
805.768	20842
805.91	20849
806.052	20864
806.194	20849
806.336	21081
806.478	20963
806.62	20796
806.762	21017
806.904	21070
807.046	21207
807.188	21260
807.33	21233
807.472	21321
807.614	21093
807.756	21093
807.898	21013
808.04	20929
808.182	20876
808.324	20937
808.465	21001
808.607	21230
808.749	21321
808.891	21378
809.033	21397
809.174	21230
809.316	21256
809.458	21252
809.6	21188
809.741	21294
809.883	21367
810.025	21386
810.166	21359
810.308	21332
810.45	21317
810.591	21287
810.733	21009
810.875	21077
811.016	20963
811.158	20956
811.299	21058
811.441	21165
811.582	21066
811.724	20967
811.865	21009
812.007	20967
812.148	20914
812.29	20941
812.431	21043
812.573	21359
812.714	21485
812.855	21507
812.997	21625
813.138	21663
813.279	21652
813.421	21526
813.562	21568
813.703	21389
813.845	21096
813.986	20948
814.127	20625
814.268	20560
814.41	20651
814.551	20457
814.692	20651
814.833	20465
814.974	20518
815.115	20598
815.256	20377
815.397	20518
815.539	20438
815.68	20351
815.821	20218
815.962	20309
816.103	20237
816.244	20111
816.385	20134
816.526	19936
816.666	19936
816.807	19681
816.948	19746
817.089	19887
817.23	19704
817.371	19734
817.512	19616
817.653	19689
817.793	19689
817.934	19666
818.075	19681
818.216	19761
818.356	19704
818.497	19567
818.638	19434
818.778	19384
818.919	19480
819.06	19350
819.2	19537
819.341	19529
819.481	19556
819.622	19708
819.762	19913
819.903	19814
820.043	19689
820.184	19666
820.324	19681
820.465	19807
820.605	19723
820.746	19693
820.886	19472
821.026	19689
821.167	19609
821.307	19685
821.447	19567
821.588	19430
821.728	19339
821.868	19061
822.008	19072
822.149	19053
822.289	18951
822.429	18798
822.569	18829
822.709	18833
822.849	18631
822.99	18509
823.13	18642
823.27	18483
823.41	18372
823.55	18273
823.69	18350
823.83	18407
823.97	18391
824.11	18125
824.25	18121
824.389	18159
824.529	18220
824.669	18091
824.809	18182
824.949	18072
825.089	18270
825.228	18159
825.368	17908
825.508	17859
825.648	17996
825.787	17954
825.927	17984
826.067	17863
826.206	17836
826.346	17988
826.485	17961
826.625	17851
826.765	18038
826.904	17946
827.044	17699
827.183	17684
827.323	17638
827.462	17687
827.601	17638
827.741	17535
827.88	17551
828.02	17581
828.159	17665
828.298	17665
828.437	17611
828.577	17520
828.716	17756
828.855	17551
828.994	17436
829.134	17482
829.273	17402
829.412	17227
829.551	17242
829.69	17318
829.829	17326
829.968	17501
830.107	17417
830.246	17349
830.385	17334
830.524	17341
830.663	17299
830.802	17025
830.941	16980
831.08	17022
831.219	17105
831.357	17090
831.496	17121
831.635	16976
831.774	16877
831.913	16850
832.051	16881
832.19	16869
832.329	16850
832.467	16637
832.606	16645
832.744	16580
832.883	16687
833.022	16622
833.16	16706
833.299	16752
833.437	16611
833.576	16740
833.714	16668
833.852	16721
833.991	16862
834.129	16816
834.267	16812
834.406	16729
834.544	16790
834.682	16649
834.821	16622
834.959	16999
835.097	16599
835.235	16763
835.373	16725
835.511	16752
835.65	16615
835.788	16645
835.926	16500
836.064	16417
836.202	16413
836.34	16702
836.478	16752
836.615	16615
836.753	16622
836.891	16641
837.029	16641
837.167	16584
837.305	16554
837.443	16535
837.58	16459
837.718	16542
837.856	16497
837.993	16398
838.131	16561
838.269	16390
838.406	16344
838.544	16337
838.681	16200
838.819	16223
838.956	16025
839.094	16017
839.231	16128
839.369	16246
839.506	16432
839.643	16169
839.781	16097
839.918	15945
840.055	15987
840.193	15994
840.33	16021
840.467	16006
840.604	16101
840.742	16341
840.879	15873
841.016	15865
841.153	15899
841.29	16086
841.427	16010
841.564	16120
841.701	16074
841.838	15979
841.975	15972
842.112	15892
842.249	15835
842.385	15724
842.522	15934
842.659	15781
842.796	15705
842.933	15918
843.069	15819
843.206	15781
843.343	15797
843.479	15778
843.616	15827
843.752	15584
843.889	15530
844.025	15743
844.162	15652
844.298	15675
844.435	15580
844.571	15572
844.708	15762
844.844	15747
844.98	15800
845.117	15690
845.253	15526
845.389	15488
845.525	15584
845.661	15428
845.798	15313
845.934	15549
846.07	15412
846.206	15370
846.342	15420
846.478	15340
846.614	15222
846.75	15085
846.886	15104
847.022	15207
847.158	15154
847.294	15214
847.429	15116
847.565	15203
847.701	15454
847.837	14925
847.972	14914
848.108	14880
848.244	15028
848.379	14796
848.515	14838
848.65	14765
848.786	14701
848.921	14697
849.057	14845
849.192	14876
849.328	14724
849.463	14826
849.598	14640
849.734	14655
849.869	14579
850.004	14594
850.14	14610
850.275	14682
850.41	14454
850.545	14431
850.68	14514
850.815	14457
850.95	14427
851.085	14621
851.22	14629
851.355	14617
851.49	14434
851.625	14587
851.76	14476
851.895	14377
852.03	14393
852.165	14560
852.299	14651
852.434	14644
852.569	14571
852.703	14446
852.838	14674
852.973	14674
853.107	14575
853.242	14465
853.376	14377
853.511	14294
853.645	14374
853.78	14488
853.914	14427
854.048	14282
854.183	14427
854.317	14336
854.451	14522
854.585	14317
854.72	14377
854.854	14336
854.988	14320
855.122	14377
855.256	14275
855.39	14396
855.524	14355
855.658	14404
855.792	14438
855.926	14347
856.06	14427
856.194	14499
856.327	14355
856.461	14305
856.595	14320
856.729	14396
856.862	14583
856.996	14389
857.13	14446
857.263	14495
857.397	14533
857.53	14423
857.664	14419
857.797	14518
857.931	14537
858.064	14469
858.197	14473
858.331	14473
858.464	14389
858.597	14290
858.731	14427
858.864	14408
858.997	14336
859.13	14351
859.263	14431
859.396	14457
859.529	14374
859.662	14396
859.795	14351
859.928	14408
860.061	14476
860.194	14533
860.327	14393
860.46	14438
860.592	14526
860.725	14537
860.858	14473
860.99	14385
861.123	14336
861.256	14305
861.388	14446
861.521	15108
861.653	14214
861.786	14195
861.918	14244
862.05	14271
862.183	14412
862.315	14393
862.447	14400
862.58	14313
862.712	14195
862.844	14187
862.976	14142
863.108	14259
863.24	14575
863.372	14130
863.504	14134
863.636	14225
863.768	14183
863.9	14138
864.032	14138
864.164	14195
864.296	14180
864.428	14343
864.559	14328
864.691	14256
864.823	14142
864.954	14267
865.086	14259
865.217	14187
865.349	14195
865.48	14221
865.612	14237
865.743	14332
865.875	14142
866.006	14073
866.137	14199
866.269	14259
866.4	14187
866.531	14206
866.662	14183
866.793	14100
866.924	14138
867.055	14210
867.186	14088
867.317	14020
867.448	14096
867.579	14130
867.71	13997
867.841	14073
867.972	14134
868.103	14168
868.233	14130
868.364	14126
868.495	14149
868.625	14332
868.756	14465
868.886	14282
869.017	14347
869.147	14522
869.278	14419
869.408	14434
869.539	14427
869.669	14415
869.799	14438
869.929	14434
870.06	14594
870.19	14807
870.32	14739
870.45	14800
870.58	14864
870.71	14899
870.84	14914
870.97	14857
871.1	14861
871.23	14982
871.36	15112
871.489	14834
871.619	14963
871.749	15112
871.879	15074
872.008	15043
872.138	14994
872.267	15028
872.397	14853
872.526	14777
872.656	14842
872.785	14830
872.915	15051
873.044	15066
873.173	15062
873.303	15112
873.432	15180
873.561	15047
873.69	15070
873.819	15085
873.948	15135
874.077	15093
874.206	14933
874.335	15070
874.464	15169
874.593	15313
874.722	15252
874.851	15386
874.979	15481
875.108	15370
875.237	15329
875.365	15245
875.494	15302
875.623	15370
875.751	15359
875.88	15485
876.008	15408
876.136	15564
876.265	15827
876.393	15960
876.521	15835
876.65	15880
876.778	15766
876.906	15694
877.034	15827
877.162	15865
877.29	15656
877.418	15861
877.546	15816
877.674	15800
877.802	15808
877.93	15743
878.058	15720
878.185	15652
878.313	15739
878.441	15739
878.568	15663
878.696	15766
878.824	15865
878.951	15873
879.079	16040
879.206	16013
879.333	15857
879.461	15873
879.588	15960
879.715	15983
879.842	16204
879.97	15827
880.097	15580
880.224	15690
880.351	15679
880.478	15698
880.605	15595
880.732	15637
880.859	15945
880.986	15709
881.112	15652
881.239	15469
881.366	15351
881.493	15340
881.619	15256
881.746	15283
881.872	15291
881.999	15264
882.125	15192
882.252	15325
882.378	15302
882.505	15344
882.631	15268
882.757	15188
882.883	15127
883.01	15184
883.136	15058
883.262	15013
883.388	14895
883.514	15116
883.64	15135
883.766	14998
883.892	14891
884.018	15028
884.143	15081
884.269	15127
884.395	14887
884.52	14773
884.646	14845
884.772	14670
884.897	14705
885.023	14804
885.148	14910
885.274	14952
885.399	14941
885.524	14864
885.65	14887
885.775	14887
885.9	14754
886.025	14853
886.15	14880
886.275	14727
886.4	14727
886.525	14746
886.65	14701
886.775	14765
886.9	14937
887.025	15032
887.149	14823
887.274	14724
887.399	14606
887.523	14549
887.648	14571
887.773	14549
887.897	14659
888.021	14629
888.146	14503
888.27	14739
888.395	14705
888.519	14712
888.643	14640
888.767	14800
888.891	14556
889.015	14446
889.139	14632
889.263	14492
889.387	14590
889.511	14587
889.635	14659
889.759	14476
889.883	14541
890.006	14560
890.13	14621
890.254	14545
890.377	14385
890.501	14294
890.624	14278
890.748	14347
890.871	14244
890.995	14153
891.118	14130
891.241	14210
891.364	14145
891.488	14366
891.611	14362
891.734	14176
891.857	14301
891.98	14191
892.103	14229
892.226	14214
892.349	14103
892.471	14092
892.594	14240
892.717	14172
892.839	14054
892.962	14206
893.085	14267
893.207	14172
893.33	14008
893.452	14062
893.575	14214
893.697	14252
893.819	14362
893.941	14374
894.064	14374
894.186	14119
894.308	14164
894.43	14309
894.552	14461
894.674	14271
894.796	14164
894.918	14358
895.04	14161
895.161	14309
895.283	14332
895.405	14183
895.526	14248
895.648	14324
895.769	14404
895.891	14374
896.012	14488
896.134	14434
896.255	14324
896.376	14332
896.498	14320
896.619	14431
896.74	14343
896.861	14442
896.982	14712
897.103	14762
897.224	14716
897.345	14560
897.466	14552
897.587	14629
897.708	14727
897.828	14663
897.949	14598
898.07	14545
898.19	14636
898.311	14762
898.431	14613
898.552	14693
898.672	14697
898.792	14883
898.913	14792
899.033	14598
899.153	14583
899.273	14415
899.393	14518
899.513	14648
899.633	14575
899.753	14545
899.873	14431
899.993	14674
900.113	14488
900.232	14663
900.352	14469
900.472	14465
900.591	14427
900.711	14446
900.83	14389
900.95	14518
901.069	14682
901.189	14434
901.308	14107
901.427	14077
901.546	14043
901.665	14058
901.784	14168
901.904	13936
902.023	13921
902.141	13731
902.26	13681
902.379	13708
902.498	13597
902.617	13636
902.735	13742
902.854	13578
902.973	13632
903.091	13373
903.21	13377
903.328	13365
903.446	13304
903.565	13278
903.683	13377
903.801	13042
903.919	13251
904.038	13179
904.156	13046
904.274	13080
904.392	12993
904.51	13023
904.627	13004
904.745	13118
904.863	13152
904.981	12848
905.098	12825
905.216	12688
905.334	12753
905.451	12779
905.569	12681
905.686	12806
905.803	12734
905.921	12555
906.038	12662
906.155	12582
906.272	12475
906.389	12422
906.506	12342
906.623	12315
906.74	12384
906.857	12213
906.974	12213
907.091	12376
907.208	12376
907.324	12300
907.441	12243
907.557	12098
907.674	12117
907.79	12038
907.907	12019
908.023	12125
908.139	12057
908.256	12007
908.372	11980
908.488	11912
908.604	11775
908.72	11745
908.836	11813
908.952	11821
909.068	11809
909.184	11946
909.3	11889
909.415	11821
909.531	11813
909.647	11665
909.762	11573
909.878	11646
909.993	11562
910.108	11543
910.224	11581
910.339	11623
910.454	11429
910.57	11486
910.685	11440
910.8	11611
910.915	11623
911.03	11520
911.145	11303
911.259	11174
911.374	11284
911.489	11284
911.604	11220
911.718	11098
911.833	11162
911.947	10919
912.062	10831
912.176	11006
912.291	11102
912.405	11064
912.519	11178
912.633	11258
912.748	11143
912.862	11128
912.976	10930
913.09	10793
913.204	10866
913.318	10930
913.431	10976
913.545	11018
913.659	11067
913.772	11014
913.886	10816
914	10805
914.113	10892
914.226	10915
914.34	10923
914.453	10748
914.566	10854
914.68	10721
914.793	10748
914.906	10592
915.019	10550
915.132	10519
915.245	10504
915.358	10611
915.47	10554
915.583	10527
915.696	10542
915.809	10702
915.921	10748
916.034	10504
916.146	10527
916.259	10481
916.371	10508
916.483	10592
916.595	10531
916.708	10470
916.82	10489
916.932	10459
917.044	10516
917.156	10470
917.268	10295
917.38	10428
917.491	10356
917.603	10466
917.715	10504
917.826	10497
917.938	10318
918.049	10276
918.161	10371
918.272	10504
918.384	10519
918.495	10341
918.606	10325
918.717	10192
918.828	10223
918.939	10352
919.05	10223
919.161	10306
919.272	10010
919.383	10124
919.494	10257
919.604	10561
919.715	10337
919.826	10158
919.936	10272
920.047	10356
920.157	10246
920.267	10512
920.378	10333
920.488	10299
920.598	10443
920.708	10656
920.818	10519
920.928	10466
921.038	10618
921.148	10573
921.258	10325
921.368	10192
921.477	10086
921.587	10124
921.697	10101
921.806	10192
921.916	9998
922.025	9895
922.134	9838
922.244	9778
922.353	9861
922.462	9755
922.571	9717
922.68	9492
922.789	9431
922.898	9538
923.007	9450
923.116	9557
923.224	9545
923.333	9618
923.442	9450
923.55	9393
923.659	9439
923.767	9481
923.876	9325
923.984	9545
924.092	9268
924.201	9344
924.309	9450
924.417	9363
924.525	9317
924.633	9272
924.741	10071
924.849	9184
924.956	9393
925.064	9097
925.172	9104
925.279	9154
925.387	9249
925.494	9237
925.602	9291
925.709	9230
925.816	9104
925.924	9214
926.031	9268
926.138	9154
926.245	9226
926.352	9169
926.459	9241
926.566	9355
926.673	9131
926.779	9043
926.886	9020
926.993	8925
927.099	8895
927.206	8895
927.312	8792
927.419	8975
927.525	8823
927.631	8948
927.737	8830
927.843	8777
927.95	8720
928.056	8743
928.162	8788
928.267	8815
928.373	9329
928.479	8849
928.585	8625
928.69	8769
928.796	8796
928.901	8701
929.007	8610
929.112	8720
929.218	8655
929.323	8590
929.428	8583
929.533	8705
929.638	8549
929.743	8514
929.848	8621
929.953	8598
930.058	8450
930.163	8366
930.267	8385
930.372	8537
930.477	8362
930.581	8583
930.685	8431
930.79	8328
930.894	8320
930.998	8328
931.103	8446
931.207	8164
931.311	7989
931.415	7982
931.519	7814
931.623	7837
