Data from test_V78500241_1704.txt Node
Date: Fri Mar 25 14:45:34 CST 2022
User: usil
Spectrometer: V785-0024
Trigger mode: 0
Integration Time (sec): 4.000000E-1
Scans to average: 1
Nonlinearity correction enabled: false
Boxcar width: 0
Storing dark spectrum: false
XAxis mode: Wavelengths
Number of Pixels in Spectrum: 1024
>>>>>Begin Spectral Data<<<<<
801.071	22341
801.214	22188
801.356	21907
801.499	21732
801.641	21606
801.783	21675
801.926	21652
802.068	21504
802.211	21462
802.353	21310
802.496	21123
802.638	21150
802.78	20948
802.923	21013
803.065	20864
803.208	20842
803.35	21058
803.492	21085
803.635	21127
803.777	20986
803.919	20979
804.061	21260
804.204	21100
804.346	20937
804.488	20895
804.63	20994
804.773	20895
804.915	20933
805.057	20975
805.199	20910
805.341	20868
805.483	20952
805.626	21089
805.768	20823
805.91	20849
806.052	20941
806.194	20800
806.336	21005
806.478	20807
806.62	20838
806.762	20941
806.904	21154
807.046	21317
807.188	21249
807.33	21287
807.472	21222
807.614	21093
807.756	21207
807.898	21077
808.04	20880
808.182	20998
808.324	20967
808.465	20986
808.607	21302
808.749	21332
808.891	21447
809.033	21488
809.174	21355
809.316	21192
809.458	21275
809.6	21279
809.741	21401
809.883	21313
810.025	21523
810.166	21408
810.308	21424
810.45	21412
810.591	21374
810.733	21291
810.875	21154
811.016	21032
811.158	20952
811.299	21131
811.441	21313
811.582	21207
811.724	21036
811.865	21062
812.007	20986
812.148	21077
812.29	21108
812.431	21325
812.573	21408
812.714	21488
812.855	21454
812.997	21557
813.138	21690
813.279	21743
813.421	21576
813.562	21477
813.703	21363
813.845	21199
813.986	20998
814.127	20689
814.268	20754
814.41	20724
814.551	20697
814.692	20739
814.833	20511
814.974	20503
815.115	20583
815.256	20571
815.397	20499
815.539	20385
815.68	20400
815.821	20240
815.962	20343
816.103	20400
816.244	20103
816.385	20054
816.526	20126
816.666	19932
816.807	19700
816.948	19868
817.089	19917
817.23	19761
817.371	19712
817.512	19826
817.653	19761
817.793	19803
817.934	19769
818.075	19799
818.216	19704
818.356	19635
818.497	19556
818.638	19434
818.778	19449
818.919	19514
819.06	19537
819.2	19605
819.341	19696
819.481	19537
819.622	19681
819.762	19898
819.903	19849
820.043	19776
820.184	19807
820.324	19700
820.465	19795
820.605	19731
820.746	19746
820.886	19609
821.026	19788
821.167	19681
821.307	19685
821.447	19635
821.588	19521
821.728	19400
821.868	19236
822.008	19202
822.149	19206
822.289	19053
822.429	18825
822.569	18779
822.709	18829
822.849	18677
822.99	18654
823.13	18612
823.27	18483
823.41	18502
823.55	18361
823.69	18452
823.83	18361
823.97	18315
824.11	18251
824.25	18148
824.389	18228
824.529	18277
824.669	18201
824.809	18308
824.949	18311
825.089	18353
825.228	18232
825.368	18053
825.508	17980
825.648	18003
825.787	18049
825.927	17969
826.067	17939
826.206	17904
826.346	17897
826.485	17912
826.625	17965
826.765	17977
826.904	18083
827.044	17870
827.183	17733
827.323	17566
827.462	17771
827.601	17619
827.741	17596
827.88	17668
828.02	17455
828.159	17623
828.298	17764
828.437	17680
828.577	17703
828.716	17741
828.855	17649
828.994	17284
829.134	17364
829.273	17410
829.412	17376
829.551	17406
829.69	17383
829.829	17509
829.968	17433
830.107	17490
830.246	17417
830.385	17414
830.524	17376
830.663	17231
830.802	17136
830.941	16930
831.08	16961
831.219	17121
831.357	17014
831.496	17299
831.635	16987
831.774	17067
831.913	16927
832.051	16843
832.19	16786
832.329	16809
832.467	16733
832.606	16660
832.744	16702
832.883	16790
833.022	16729
833.16	16786
833.299	16774
833.437	16706
833.576	16820
833.714	16778
833.852	16740
833.991	16774
834.129	16774
834.267	16740
834.406	16771
834.544	16862
834.682	16774
834.821	16744
834.959	16984
835.097	16755
835.235	16831
835.373	16809
835.511	16824
835.65	16717
835.788	16790
835.926	16516
836.064	16360
836.202	16485
836.34	16611
836.478	16691
836.615	16577
836.753	16675
836.891	16790
837.029	16664
837.167	16546
837.305	16504
837.443	16550
837.58	16447
837.718	16615
837.856	16603
837.993	16470
838.131	16455
838.269	16538
838.406	16489
838.544	16504
838.681	16249
838.819	16200
838.956	16025
839.094	16071
839.231	16059
839.369	16242
839.506	16500
839.643	16257
839.781	16101
839.918	16147
840.055	16261
840.193	16048
840.33	16128
840.467	16059
840.604	16139
840.742	16367
840.879	15979
841.016	15987
841.153	15983
841.29	16135
841.427	16131
841.564	16128
841.701	16044
841.838	16051
841.975	16051
842.112	16055
842.249	15861
842.385	15808
842.522	15991
842.659	15907
842.796	15884
842.933	15800
843.069	15861
843.206	15922
843.343	15812
843.479	15888
843.616	15911
843.752	15572
843.889	15595
844.025	15705
844.162	15625
844.298	15778
844.435	15713
844.571	15564
844.708	15720
844.844	15831
844.98	15808
845.117	15720
845.253	15603
845.389	15496
845.525	15523
845.661	15519
845.798	15450
845.934	15561
846.07	15382
846.206	15420
846.342	15576
846.478	15496
846.614	15359
846.75	15123
846.886	15199
847.022	15367
847.158	15135
847.294	15226
847.429	15245
847.565	15188
847.701	15389
847.837	14906
847.972	14830
848.108	15017
848.244	15055
848.379	14765
848.515	14807
848.65	14823
848.786	14872
848.921	14792
849.057	14887
849.192	14864
849.328	14842
849.463	14823
849.598	14804
849.734	14705
849.869	14636
850.004	14533
850.14	14613
850.275	14552
850.41	14488
850.545	14590
850.68	14549
850.815	14590
850.95	14644
851.085	14727
851.22	14613
851.355	14625
851.49	14560
851.625	14499
851.76	14598
851.895	14469
852.03	14454
852.165	14408
852.299	14648
852.434	14708
852.569	14636
852.703	14644
852.838	14629
852.973	14606
853.107	14705
853.242	14564
853.376	14488
853.511	14355
853.645	14370
853.78	14560
853.914	14442
854.048	14438
854.183	14332
854.317	14366
854.451	14606
854.585	14415
854.72	14351
854.854	14606
854.988	14301
855.122	14377
855.256	14256
855.39	14423
855.524	14522
855.658	14533
855.792	14362
855.926	14400
856.06	14617
856.194	14495
856.327	14484
856.461	14377
856.595	14389
856.729	14461
856.862	14495
856.996	14511
857.13	14442
857.263	14640
857.397	14598
857.53	14495
857.664	14476
857.797	14492
857.931	14480
858.064	14431
858.197	14495
858.331	14381
858.464	14389
858.597	14415
858.731	14541
858.864	14427
858.997	14412
859.13	14495
859.263	14537
859.396	14530
859.529	14431
859.662	14446
859.795	14484
859.928	14442
860.061	14655
860.194	14648
860.327	14556
860.46	14454
860.592	14499
860.725	14587
860.858	14552
860.99	14366
861.123	14358
861.256	14408
861.388	14499
861.521	14941
861.653	14393
861.786	14225
861.918	14305
862.05	14275
862.183	14351
862.315	14400
862.447	14465
862.58	14377
862.712	14229
862.844	14111
862.976	14339
863.108	14290
863.24	14598
863.372	14172
863.504	14176
863.636	14187
863.768	14290
863.9	14206
864.032	14214
864.164	14126
864.296	14263
864.428	14324
864.559	14377
864.691	14313
864.823	14298
864.954	14275
865.086	14244
865.217	14237
865.349	14065
865.48	14183
865.612	14161
865.743	14298
865.875	14191
866.006	14237
866.137	14180
866.269	14126
866.4	14183
866.531	14282
866.662	14142
866.793	14183
866.924	14088
867.055	14195
867.186	14157
867.317	14168
867.448	14058
867.579	14210
867.71	14073
867.841	14054
867.972	14244
868.103	14286
868.233	14191
868.364	14107
868.495	14248
868.625	14446
868.756	14457
868.886	14396
869.017	14415
869.147	14587
869.278	14606
869.408	14457
869.539	14370
869.669	14556
869.799	14465
869.929	14621
870.06	14507
870.19	14743
870.32	14739
870.45	14807
870.58	14830
870.71	15013
870.84	14929
870.97	14735
871.1	14686
871.23	15013
871.36	15017
871.489	14914
871.619	15024
871.749	15051
871.879	15047
872.008	15214
872.138	15089
872.267	14990
872.397	14902
872.526	14811
872.656	14864
872.785	14925
872.915	15070
873.044	15154
873.173	15085
873.303	15138
873.432	15138
873.561	15116
873.69	15146
873.819	15081
873.948	15188
874.077	15161
874.206	15024
874.335	15074
874.464	15203
874.593	15473
874.722	15298
874.851	15382
874.979	15431
875.108	15439
875.237	15317
875.365	15386
875.494	15439
875.623	15405
875.751	15363
875.88	15595
876.008	15481
876.136	15686
876.265	15865
876.393	15903
876.521	15857
876.65	15846
876.778	15903
876.906	15781
877.034	15842
877.162	15755
877.29	15713
877.418	15884
877.546	15766
877.674	15755
877.802	15819
877.93	15861
878.058	15831
878.185	15675
878.313	15732
878.441	15842
878.568	15648
878.696	15720
878.824	15816
878.951	15846
879.079	15918
879.206	16139
879.333	15994
879.461	15835
879.588	15987
879.715	16124
879.842	16131
879.97	15857
880.097	15675
880.224	15679
880.351	15713
880.478	15671
880.605	15637
880.732	15648
880.859	15873
880.986	15694
881.112	15759
881.239	15523
881.366	15435
881.493	15428
881.619	15237
881.746	15393
881.872	15351
881.999	15386
882.125	15310
882.252	15382
882.378	15389
882.505	15450
882.631	15291
882.757	15165
882.883	15214
883.01	15131
883.136	15032
883.262	14994
883.388	14956
883.514	15264
883.64	15062
883.766	15036
883.892	15001
884.018	15020
884.143	15051
884.269	15241
884.395	14857
884.52	14823
884.646	14792
884.772	14743
884.897	14716
885.023	14887
885.148	14960
885.274	14982
885.399	14921
885.524	14853
885.65	14807
885.775	14872
885.9	14914
886.025	14891
886.15	14880
886.275	14777
886.4	14697
886.525	14826
886.65	14750
886.775	14815
886.9	14971
887.025	15081
887.149	14899
887.274	14655
887.399	14610
887.523	14587
887.648	14583
887.773	14583
887.897	14765
888.021	14746
888.146	14583
888.27	14823
888.395	14773
888.519	14754
888.643	14750
888.767	14743
888.891	14560
889.015	14393
889.139	14526
889.263	14431
889.387	14648
889.511	14644
889.635	14625
889.759	14503
889.883	14541
890.006	14610
890.13	14598
890.254	14434
890.377	14412
890.501	14438
890.624	14317
890.748	14305
890.871	14328
890.995	14126
891.118	14138
891.241	14225
891.364	14248
891.488	14301
891.611	14164
891.734	14221
891.857	14324
891.98	14339
892.103	14301
892.226	14180
892.349	14225
892.471	14123
892.594	14176
892.717	14343
892.839	14187
892.962	14225
893.085	14305
893.207	14218
893.33	14138
893.452	14123
893.575	14298
893.697	14176
893.819	14434
893.941	14469
894.064	14328
894.186	14225
894.308	14176
894.43	14355
894.552	14488
894.674	14298
894.796	14191
894.918	14256
895.04	14240
895.161	14393
895.283	14347
895.405	14328
895.526	14355
895.648	14275
895.769	14377
895.891	14393
896.012	14377
896.134	14518
896.255	14446
896.376	14362
896.498	14419
896.619	14358
896.74	14355
896.861	14374
896.982	14804
897.103	14895
897.224	14686
897.345	14655
897.466	14583
897.587	14712
897.708	14785
897.828	14758
897.949	14648
898.07	14556
898.19	14552
898.311	14762
898.431	14636
898.552	14796
898.672	14914
898.792	14902
898.913	14811
899.033	14731
899.153	14564
899.273	14518
899.393	14518
899.513	14629
899.633	14621
899.753	14697
899.873	14594
899.993	14697
900.113	14629
900.232	14583
900.352	14465
900.472	14518
900.591	14450
900.711	14484
900.83	14415
900.95	14530
901.069	14587
901.189	14442
901.308	14225
901.427	14134
901.546	14142
901.665	14195
901.784	14240
901.904	13978
902.023	13997
902.141	13799
902.26	13715
902.379	13727
902.498	13708
902.617	13670
902.735	13643
902.854	13639
902.973	13689
903.091	13422
903.21	13434
903.328	13434
903.446	13373
903.565	13278
903.683	13255
903.801	13171
903.919	13270
904.038	13221
904.156	13046
904.274	13133
904.392	12962
904.51	13053
904.627	13107
904.745	13118
904.863	13118
904.981	12871
905.098	12848
905.216	12772
905.334	12791
905.451	12810
905.569	12798
905.686	12741
905.803	12681
905.921	12578
906.038	12681
906.155	12612
906.272	12521
906.389	12494
906.506	12311
906.623	12353
906.74	12254
906.857	12235
906.974	12239
907.091	12433
907.208	12551
907.324	12380
907.441	12262
907.557	12133
907.674	12049
907.79	11973
907.907	12026
908.023	12159
908.139	12171
908.256	12079
908.372	11992
908.488	11954
908.604	11863
908.72	11767
908.836	11840
908.952	11718
909.068	11935
909.184	12038
909.3	11901
909.415	11882
909.531	11889
909.647	11676
909.762	11592
909.878	11600
909.993	11642
910.108	11592
910.224	11600
910.339	11630
910.454	11562
910.57	11520
910.685	11436
910.8	11684
910.915	11672
911.03	11596
911.145	11341
911.259	11258
911.374	11307
911.489	11220
911.604	11193
911.718	11067
911.833	11117
911.947	10927
912.062	10919
912.176	11014
912.291	11071
912.405	11174
912.519	11220
912.633	11284
912.748	11140
912.862	11064
912.976	11037
913.09	10858
913.204	10869
913.318	10965
913.431	11045
913.545	10980
913.659	11064
913.772	10923
913.886	10767
914	10847
914.113	10896
914.226	11010
914.34	10881
914.453	10702
914.566	10900
914.68	10854
914.793	10774
914.906	10637
915.019	10592
915.132	10519
915.245	10660
915.358	10558
915.47	10615
915.583	10580
915.696	10588
915.809	10706
915.921	10797
916.034	10554
916.146	10561
916.259	10588
916.371	10611
916.483	10603
916.595	10462
916.708	10500
916.82	10459
916.932	10538
917.044	10523
917.156	10436
917.268	10382
917.38	10440
917.491	10371
917.603	10409
917.715	10504
917.826	10565
917.938	10417
918.049	10246
918.161	10459
918.272	10653
918.384	10542
918.495	10424
918.606	10306
918.717	10223
918.828	10348
918.939	10295
919.05	10265
919.161	10257
919.272	10074
919.383	10116
919.494	10314
919.604	10485
919.715	10310
919.826	10215
919.936	10261
920.047	10375
920.157	10310
920.267	10413
920.378	10386
920.488	10295
920.598	10413
920.708	10649
920.818	10462
920.928	10504
921.038	10729
921.148	10675
921.258	10265
921.368	10295
921.477	10268
921.587	10158
921.697	10040
921.806	10147
921.916	10135
922.025	9911
922.134	9880
922.244	9857
922.353	9861
922.462	9747
922.571	9679
922.68	9606
922.789	9557
922.898	9553
923.007	9534
923.116	9603
923.224	9576
923.333	9504
923.442	9405
923.55	9447
923.659	9431
923.767	9511
923.876	9424
923.984	9492
924.092	9344
924.201	9450
924.309	9386
924.417	9485
924.525	9397
924.633	9416
924.741	10360
924.849	9173
924.956	9287
925.064	9195
925.172	9135
925.279	9188
925.387	9146
925.494	9226
925.602	9321
925.709	9230
925.816	9131
925.924	9272
926.031	9317
926.138	9165
926.245	9214
926.352	9157
926.459	9184
926.566	9275
926.673	9256
926.779	9032
926.886	9104
926.993	8933
927.099	8899
927.206	8883
927.312	8864
927.419	8956
927.525	8902
927.631	8982
927.737	8891
927.843	8754
927.95	8697
928.056	8811
928.162	8830
928.267	8876
928.373	9488
928.479	8925
928.585	8655
928.69	8800
928.796	8739
928.901	8750
929.007	8583
929.112	8750
929.218	8674
929.323	8686
929.428	8602
929.533	8785
929.638	8571
929.743	8613
929.848	8689
929.953	8571
930.058	8499
930.163	8374
930.267	8385
930.372	8571
930.477	8355
930.581	8636
930.685	8488
930.79	8301
930.894	8374
930.998	8301
931.103	8438
931.207	8107
931.311	8077
931.415	8001
931.519	7864
931.623	7890
