Data from test_V78500241_2511.txt Node
Date: Fri Mar 25 14:51:11 CST 2022
User: usil
Spectrometer: V785-0024
Trigger mode: 0
Integration Time (sec): 4.000000E-1
Scans to average: 1
Nonlinearity correction enabled: false
Boxcar width: 0
Storing dark spectrum: false
XAxis mode: Wavelengths
Number of Pixels in Spectrum: 1024
>>>>>Begin Spectral Data<<<<<
801.071	22044
801.214	21941
801.356	21701
801.499	21603
801.641	21458
801.783	21386
801.926	21450
802.068	21397
802.211	21313
802.353	21256
802.496	21036
802.638	21001
802.78	20906
802.923	20887
803.065	20712
803.208	20800
803.35	20686
803.492	20811
803.635	20929
803.777	20678
803.919	20750
804.061	21066
804.204	20906
804.346	20651
804.488	20583
804.63	20674
804.773	20743
804.915	20807
805.057	20811
805.199	20594
805.341	20823
805.483	20800
805.626	20796
805.768	20575
805.91	20693
806.052	20720
806.194	20705
806.336	20842
806.478	20636
806.62	20587
806.762	20750
806.904	20941
807.046	21077
807.188	20952
807.33	20960
807.472	21070
807.614	20918
807.756	20910
807.898	20785
808.04	20651
808.182	20792
808.324	20804
808.465	20838
808.607	20834
808.749	21028
808.891	21066
809.033	21108
809.174	21085
809.316	21020
809.458	21051
809.6	20906
809.741	21085
809.883	21142
810.025	21188
810.166	21142
810.308	21169
810.45	21062
810.591	21085
810.733	20982
810.875	20796
811.016	20670
811.158	20579
811.299	20956
811.441	21024
811.582	21028
811.724	20826
811.865	20667
812.007	20800
812.148	20773
812.29	20777
812.431	20914
812.573	21119
812.714	21249
812.855	21279
812.997	21355
813.138	21580
813.279	21443
813.421	21340
813.562	21150
813.703	21066
813.845	20891
813.986	20686
814.127	20408
814.268	20480
814.41	20412
814.551	20415
814.692	20571
814.833	20259
814.974	20237
815.115	20275
815.256	20275
815.397	20225
815.539	20187
815.68	20043
815.821	20050
815.962	20096
816.103	20130
816.244	19841
816.385	19795
816.526	19830
816.666	19742
816.807	19468
816.948	19495
817.089	19525
817.23	19502
817.371	19480
817.512	19430
817.653	19434
817.793	19415
817.934	19540
818.075	19419
818.216	19571
818.356	19495
818.497	19304
818.638	19198
818.778	19225
818.919	19232
819.06	19270
819.2	19460
819.341	19403
819.481	19388
819.622	19590
819.762	19715
819.903	19578
820.043	19495
820.184	19544
820.324	19575
820.465	19594
820.605	19369
820.746	19499
820.886	19373
821.026	19506
821.167	19327
821.307	19521
821.447	19480
821.588	19274
821.728	19187
821.868	18989
822.008	18856
822.149	19004
822.289	18886
822.429	18585
822.569	18559
822.709	18578
822.849	18330
822.99	18372
823.13	18391
823.27	18365
823.41	18136
823.55	18076
823.69	18239
823.83	18190
823.97	18106
824.11	17908
824.25	18019
824.389	17927
824.529	17999
824.669	18034
824.809	18045
824.949	17961
825.089	18034
825.228	17920
825.368	17737
825.508	17794
825.648	17699
825.787	17687
825.927	17733
826.067	17630
826.206	17726
826.346	17737
826.485	17687
826.625	17745
826.765	17790
826.904	17802
827.044	17543
827.183	17596
827.323	17383
827.462	17410
827.601	17421
827.741	17349
827.88	17383
828.02	17395
828.159	17372
828.298	17467
828.437	17463
828.577	17433
828.716	17566
828.855	17436
828.994	17197
829.134	17166
829.273	17200
829.412	17178
829.551	17090
829.69	17185
829.829	17143
829.968	17204
830.107	17227
830.246	17181
830.385	17105
830.524	17025
830.663	16949
830.802	16862
830.941	16797
831.08	16645
831.219	16816
831.357	16862
831.496	16942
831.635	16687
831.774	16736
831.913	16706
832.051	16683
832.19	16558
832.329	16577
832.467	16417
832.606	16402
832.744	16531
832.883	16470
833.022	16421
833.16	16542
833.299	16481
833.437	16382
833.576	16611
833.714	16405
833.852	16451
833.991	16596
834.129	16607
834.267	16523
834.406	16481
834.544	16451
834.682	16656
834.821	16478
834.959	16618
835.097	16508
835.235	16577
835.373	16554
835.511	16592
835.65	16405
835.788	16417
835.926	16375
836.064	16253
836.202	16341
836.34	16558
836.478	16481
836.615	16459
836.753	16478
836.891	16512
837.029	16535
837.167	16356
837.305	16413
837.443	16462
837.58	16234
837.718	16421
837.856	16375
837.993	16249
838.131	16363
838.269	16242
838.406	16280
838.544	16169
838.681	16067
838.819	15987
838.956	15800
839.094	15895
839.231	15979
839.369	15983
839.506	16268
839.643	16158
839.781	15960
839.918	15888
840.055	15949
840.193	15876
840.33	15743
840.467	15911
840.604	15915
840.742	16158
840.879	15675
841.016	15728
841.153	15778
841.29	15987
841.427	15926
841.564	15842
841.701	15949
841.838	15922
841.975	15709
842.112	15816
842.249	15606
842.385	15553
842.522	15846
842.659	15652
842.796	15568
842.933	15701
843.069	15610
843.206	15603
843.343	15701
843.479	15538
843.616	15641
843.752	15507
843.889	15355
844.025	15538
844.162	15416
844.298	15534
844.435	15447
844.571	15401
844.708	15477
844.844	15542
844.98	15606
845.117	15496
845.253	15332
845.389	15313
845.525	15450
845.661	15306
845.798	15252
845.934	15241
846.07	15173
846.206	15180
846.342	15294
846.478	15230
846.614	15074
846.75	14921
846.886	14994
847.022	15001
847.158	14971
847.294	15009
847.429	14975
847.565	14906
847.701	15298
847.837	14731
847.972	14644
848.108	14777
848.244	14914
848.379	14545
848.515	14636
848.65	14560
848.786	14613
848.921	14522
849.057	14765
849.192	14765
849.328	14568
849.463	14602
849.598	14583
849.734	14495
849.869	14442
850.004	14393
850.14	14396
850.275	14469
850.41	14309
850.545	14381
850.68	14278
850.815	14362
850.95	14465
851.085	14549
851.22	14530
851.355	14400
851.49	14336
851.625	14336
851.76	14362
851.895	14309
852.03	14240
852.165	14511
852.299	14362
852.434	14374
852.569	14431
852.703	14442
852.838	14488
852.973	14476
853.107	14461
853.242	14347
853.376	14195
853.511	14164
853.645	14149
853.78	14438
853.914	14233
854.048	14119
854.183	14195
854.317	14210
854.451	14377
854.585	14199
854.72	14210
854.854	14309
854.988	14172
855.122	14210
855.256	14130
855.39	14199
855.524	14324
855.658	14256
855.792	14202
855.926	14271
856.06	14377
856.194	14412
856.327	14233
856.461	14065
856.595	14142
856.729	14259
856.862	14343
856.996	14385
857.13	14313
857.263	14393
857.397	14374
857.53	14229
857.664	14259
857.797	14309
857.931	14381
858.064	14301
858.197	14362
858.331	14305
858.464	14119
858.597	14130
858.731	14263
858.864	14172
858.997	14221
859.13	14248
859.263	14305
859.396	14317
859.529	14218
859.662	14248
859.795	14206
859.928	14176
860.061	14473
860.194	14374
860.327	14294
860.46	14271
860.592	14351
860.725	14400
860.858	14412
860.99	14229
861.123	14164
861.256	14218
861.388	14271
861.521	14864
861.653	14092
861.786	14062
861.918	14077
862.05	14202
862.183	14206
862.315	14168
862.447	14282
862.58	14164
862.712	14005
862.844	13947
862.976	14043
863.108	14119
863.24	14408
863.372	13837
863.504	14001
863.636	13993
863.768	14062
863.9	14065
864.032	14050
864.164	13997
864.296	14005
864.428	14157
864.559	14062
864.691	14130
864.823	14111
864.954	13967
865.086	14035
865.217	13970
865.349	13989
865.48	14012
865.612	13936
865.743	14107
865.875	14039
866.006	14016
866.137	13932
866.269	14065
866.4	14001
866.531	13951
866.662	13993
866.793	13986
866.924	14005
867.055	14027
867.186	14031
867.317	13944
867.448	13932
867.579	13967
867.71	13902
867.841	13951
867.972	14001
868.103	13940
868.233	14035
868.364	14050
868.495	14043
868.625	14233
868.756	14320
868.886	14218
869.017	14157
869.147	14389
869.278	14427
869.408	14286
869.539	14221
869.669	14309
869.799	14290
869.929	14320
870.06	14393
870.19	14610
870.32	14632
870.45	14602
870.58	14716
870.71	14750
870.84	14773
870.97	14636
871.1	14617
871.23	14781
871.36	14914
871.489	14743
871.619	14948
871.749	14887
871.879	14910
872.008	15028
872.138	14804
872.267	14845
872.397	14769
872.526	14743
872.656	14602
872.785	14602
872.915	14899
873.044	14948
873.173	14891
873.303	15074
873.432	14998
873.561	14918
873.69	14887
873.819	14921
873.948	15055
874.077	14914
874.206	14887
874.335	14982
874.464	15036
874.593	15279
874.722	15180
874.851	15260
874.979	15207
875.108	15291
875.237	15264
875.365	15146
875.494	15161
875.623	15348
875.751	15173
875.88	15233
876.008	15351
876.136	15500
876.265	15564
876.393	15770
876.521	15694
876.65	15720
876.778	15625
876.906	15724
877.034	15564
877.162	15663
877.29	15572
877.418	15679
877.546	15747
877.674	15766
877.802	15641
877.93	15663
878.058	15561
878.185	15530
878.313	15690
878.441	15637
878.568	15405
878.696	15553
878.824	15694
878.951	15660
879.079	15785
879.206	15945
879.333	15816
879.461	15644
879.588	15663
879.715	15785
879.842	15873
879.97	15682
880.097	15485
880.224	15428
880.351	15511
880.478	15485
880.605	15469
880.732	15507
880.859	15705
880.986	15519
881.112	15568
881.239	15397
881.366	15165
881.493	15233
881.619	15131
881.746	15218
881.872	15097
881.999	15157
882.125	15097
882.252	15131
882.378	15195
882.505	15340
882.631	15081
882.757	14998
882.883	15055
883.01	14944
883.136	14986
883.262	14941
883.388	14834
883.514	14998
883.64	15108
883.766	14845
883.892	14785
884.018	14819
884.143	14891
884.269	14960
884.395	14697
884.52	14765
884.646	14632
884.772	14526
884.897	14514
885.023	14629
885.148	14727
885.274	14849
885.399	14838
885.524	14625
885.65	14701
885.775	14727
885.9	14613
886.025	14815
886.15	14743
886.275	14621
886.4	14556
886.525	14674
886.65	14663
886.775	14598
886.9	14762
887.025	14891
887.149	14663
887.274	14526
887.399	14533
887.523	14396
887.648	14427
887.773	14355
887.897	14587
888.021	14541
888.146	14488
888.27	14598
888.395	14682
888.519	14587
888.643	14598
888.767	14518
888.891	14389
889.015	14271
889.139	14332
889.263	14317
889.387	14514
889.511	14617
889.635	14533
889.759	14339
889.883	14305
890.006	14339
890.13	14434
890.254	14278
890.377	14263
890.501	14187
890.624	14088
890.748	14191
890.871	14107
890.995	14096
891.118	13967
891.241	14054
891.364	14054
891.488	14191
891.611	14016
891.734	14119
891.857	14191
891.98	14039
892.103	14187
892.226	14130
892.349	14031
892.471	13909
892.594	13940
892.717	14081
892.839	14001
892.962	14069
893.085	14081
893.207	14012
893.33	13928
893.452	13967
893.575	14084
893.697	13978
893.819	14191
893.941	14199
894.064	14149
894.186	14073
894.308	13986
894.43	14259
894.552	14263
894.674	14210
894.796	14073
894.918	14187
895.04	14077
895.161	14259
895.283	14294
895.405	14168
895.526	14126
895.648	14187
895.769	14191
895.891	14275
896.012	14305
896.134	14324
896.255	14237
896.376	14142
896.498	14282
896.619	14263
896.74	14195
896.861	14275
896.982	14606
897.103	14815
897.224	14571
897.345	14480
897.466	14358
897.587	14503
897.708	14693
897.828	14587
897.949	14526
898.07	14309
898.19	14499
898.311	14644
898.431	14488
898.552	14697
898.672	14648
898.792	14720
898.913	14636
899.033	14492
899.153	14431
899.273	14328
899.393	14423
899.513	14457
899.633	14484
899.753	14438
899.873	14412
899.993	14530
900.113	14362
900.232	14495
900.352	14537
900.472	14377
900.591	14233
900.711	14358
900.83	14221
900.95	14343
901.069	14385
901.189	14180
901.308	13997
901.427	13982
901.546	13913
901.665	14046
901.784	13951
901.904	13814
902.023	13818
902.141	13609
902.26	13582
902.379	13693
902.498	13510
902.617	13540
902.735	13586
902.854	13525
902.973	13441
903.091	13270
903.21	13308
903.328	13255
903.446	13122
903.565	13149
903.683	13141
903.801	13015
903.919	13080
904.038	13137
904.156	12954
904.274	12977
904.392	12905
904.51	12878
904.627	13019
904.745	12989
904.863	13042
904.981	12757
905.098	12658
905.216	12623
905.334	12692
905.451	12688
905.569	12574
905.686	12700
905.803	12639
905.921	12521
906.038	12532
906.155	12395
906.272	12448
906.389	12361
906.506	12323
906.623	12273
906.74	12213
906.857	12136
906.974	12106
907.091	12289
907.208	12338
907.324	12224
907.441	12175
907.557	11961
907.674	11996
907.79	11942
907.907	11946
908.023	11927
908.139	11977
908.256	11954
908.372	11931
908.488	11885
908.604	11665
908.72	11783
908.836	11699
908.952	11714
909.068	11737
909.184	11908
909.3	11767
909.415	11775
909.531	11802
909.647	11562
909.762	11463
909.878	11493
909.993	11539
910.108	11520
910.224	11429
910.339	11486
910.454	11406
910.57	11322
910.685	11303
910.8	11566
910.915	11520
911.03	11376
911.145	11204
911.259	11128
911.374	11189
911.489	11178
911.604	11090
911.718	10976
911.833	10953
911.947	10877
912.062	10736
912.176	10991
912.291	10995
912.405	10957
912.519	11204
912.633	11128
912.748	10984
912.862	10968
912.976	10843
913.09	10767
913.204	10649
913.318	10847
913.431	10927
913.545	10892
913.659	10965
913.772	10862
913.886	10729
914	10740
914.113	10755
914.226	10790
914.34	10820
914.453	10630
914.566	10774
914.68	10611
914.793	10653
914.906	10531
915.019	10417
915.132	10451
915.245	10489
915.358	10432
915.47	10440
915.583	10405
915.696	10489
915.809	10599
915.921	10592
916.034	10462
916.146	10455
916.259	10409
916.371	10550
916.483	10538
916.595	10386
916.708	10341
916.82	10341
916.932	10329
917.044	10432
917.156	10417
917.268	10246
917.38	10314
917.491	10249
917.603	10306
917.715	10287
917.826	10413
917.938	10261
918.049	10128
918.161	10234
918.272	10440
918.384	10447
918.495	10375
918.606	10268
918.717	10147
918.828	10234
918.939	10223
919.05	10025
919.161	10158
919.272	9918
919.383	10082
919.494	10185
919.604	10341
919.715	10177
919.826	10128
919.936	10105
920.047	10246
920.157	10261
920.267	10360
920.378	10192
920.488	10211
920.598	10398
920.708	10481
920.818	10421
920.928	10360
921.038	10603
921.148	10519
921.258	10169
921.368	10185
921.477	10082
921.587	10025
921.697	9907
921.806	10078
921.916	9937
922.025	9774
922.134	9720
922.244	9686
922.353	9774
922.462	9648
922.571	9534
922.68	9462
922.789	9397
922.898	9500
923.007	9443
923.116	9500
923.224	9507
923.333	9454
923.442	9340
923.55	9325
923.659	9264
923.767	9355
923.876	9294
923.984	9412
924.092	9275
924.201	9321
924.309	9253
924.417	9325
924.525	9249
924.633	9233
924.741	10192
924.849	9112
924.956	9207
925.064	9157
925.172	9009
925.279	9036
925.387	9192
925.494	9157
925.602	9298
925.709	9233
925.816	9009
925.924	9157
926.031	9230
926.138	9116
926.245	9184
926.352	9032
926.459	9104
926.566	9184
926.673	8994
926.779	9009
926.886	8963
926.993	8834
927.099	8807
927.206	8781
927.312	8826
927.419	8845
927.525	8842
927.631	8967
927.737	8731
927.843	8678
927.95	8617
928.056	8758
928.162	8727
928.267	8773
928.373	9359
928.479	8807
928.585	8594
928.69	8743
928.796	8724
928.901	8575
929.007	8495
929.112	8686
929.218	8613
929.323	8511
929.428	8530
929.533	8674
929.638	8503
929.743	8488
929.848	8606
929.953	8583
930.058	8499
930.163	8279
930.267	8290
930.372	8438
930.477	8313
930.581	8518
930.685	8339
930.79	8263
930.894	8256
930.998	8229
931.103	8385
931.207	8054
931.311	8050
931.415	7909
931.519	7780
931.623	7727
