Data from test_V78500241_792.txt Node
Date: Fri Mar 25 14:39:14 CST 2022
User: usil
Spectrometer: V785-0024
Trigger mode: 0
Integration Time (sec): 4.000000E-1
Scans to average: 1
Nonlinearity correction enabled: false
Boxcar width: 0
Storing dark spectrum: false
XAxis mode: Wavelengths
Number of Pixels in Spectrum: 1024
>>>>>Begin Spectral Data<<<<<
801.071	26670
801.214	26530
801.356	26240
801.499	26248
801.641	26005
801.783	26084
801.926	25902
802.068	25814
802.211	25658
802.353	25780
802.496	25468
802.638	25533
802.78	25563
802.923	25457
803.065	25396
803.208	25499
803.35	25457
803.492	25723
803.635	25647
803.777	25502
803.919	25582
804.061	25849
804.204	25769
804.346	25601
804.488	25567
804.63	25605
804.773	25552
804.915	25685
805.057	25822
805.199	25837
805.341	25959
805.483	25997
805.626	26206
805.768	25970
805.91	26145
806.052	26309
806.194	26396
806.336	26746
806.478	26682
806.62	26887
806.762	27180
806.904	27412
807.046	27987
807.188	28112
807.33	28546
807.472	29098
807.614	29497
807.756	30349
807.898	31297
808.04	32621
808.182	34329
808.324	36684
808.465	39142
808.607	41817
808.749	44374
808.891	45842
809.033	46093
809.174	44587
809.316	41977
809.458	39115
809.6	36270
809.741	33945
809.883	32130
810.025	30890
810.166	29912
810.308	29292
810.45	28664
810.591	28150
810.733	27713
810.875	27397
811.016	27055
811.158	27024
811.299	26971
811.441	26864
811.582	26724
811.724	26507
811.865	26309
812.007	26298
812.148	26290
812.29	26058
812.431	26286
812.573	26381
812.714	26294
812.855	26442
812.997	26663
813.138	26522
813.279	26530
813.421	26450
813.562	26240
813.703	26062
813.845	25887
813.986	25544
814.127	25468
814.268	25240
814.41	25304
814.551	25251
814.692	25236
814.833	25088
814.974	24996
815.115	25015
815.256	24962
815.397	24772
815.539	24943
815.68	24768
815.821	24760
815.962	24833
816.103	24681
816.244	24593
816.385	24403
816.526	24429
816.666	24216
816.807	24117
816.948	24277
817.089	24178
817.23	24110
817.371	24007
817.512	23973
817.653	23950
817.793	23992
817.934	23992
818.075	24117
818.216	23984
818.356	23904
818.497	23687
818.638	23714
818.778	23649
818.919	23718
819.06	23646
819.2	23668
819.341	23866
819.481	23748
819.622	23878
819.762	24152
819.903	24087
820.043	23999
820.184	23885
820.324	23767
820.465	23901
820.605	23832
820.746	23821
820.886	23642
821.026	23752
821.167	23653
821.307	23828
821.447	23729
821.588	23433
821.728	23307
821.868	23204
822.008	23166
822.149	23060
822.289	23060
822.429	22790
822.569	22736
822.709	22850
822.849	22649
822.99	22527
823.13	22508
823.27	22462
823.41	22268
823.55	22268
823.69	22226
823.83	22329
823.97	22124
824.11	22188
824.25	22036
824.389	22010
824.529	22261
824.669	22207
824.809	22154
824.949	22154
825.089	22147
825.228	22082
825.368	21907
825.508	21884
825.648	21903
825.787	21857
825.927	21926
826.067	21812
826.206	21960
826.346	21869
826.485	21778
826.625	21892
826.765	21994
826.904	21861
827.044	21625
827.183	21542
827.323	21428
827.462	21614
827.601	21549
827.741	21572
827.88	21580
828.02	21336
828.159	21443
828.298	21545
828.437	21530
828.577	21439
828.716	21458
828.855	21405
828.994	21275
829.134	21195
829.273	21237
829.412	21180
829.551	21017
829.69	21055
829.829	21192
829.968	21355
830.107	21340
830.246	21184
830.385	21154
830.524	20899
830.663	20952
830.802	21013
830.941	20796
831.08	20769
831.219	20975
831.357	20914
831.496	21077
831.635	20864
831.774	20838
831.913	20602
832.051	20651
832.19	20606
832.329	20731
832.467	20625
832.606	20670
832.744	20613
832.883	20571
833.022	20754
833.16	20785
833.299	20963
833.437	20872
833.576	21150
833.714	21237
833.852	21313
833.991	21561
834.129	21576
834.267	21709
834.406	21408
834.544	21576
834.682	21447
834.821	21291
834.959	21367
835.097	20990
835.235	21089
835.373	20998
835.511	20682
835.65	20533
835.788	20400
835.926	20244
836.064	20324
836.202	20195
836.34	20400
836.478	20533
836.615	20358
836.753	20305
836.891	20545
837.029	20442
837.167	20183
837.305	20221
837.443	20252
837.58	20119
837.718	20111
837.856	20084
837.993	20103
838.131	20073
838.269	20012
838.406	20043
838.544	19967
838.681	19784
838.819	19875
838.956	19540
839.094	19613
839.231	19674
839.369	19769
839.506	20020
839.643	19868
839.781	19483
839.918	19533
840.055	19594
840.193	19559
840.33	19480
840.467	19575
840.604	19643
840.742	19727
840.879	19377
841.016	19377
841.153	19430
841.29	19628
841.427	19578
841.564	19533
841.701	19567
841.838	19483
841.975	19480
842.112	19373
842.249	19377
842.385	19217
842.522	19506
842.659	19377
842.796	19377
842.933	19388
843.069	19373
843.206	19373
843.343	19510
843.479	19476
843.616	19487
843.752	19244
843.889	19411
844.025	19563
844.162	19373
844.298	19723
844.435	19597
844.571	19791
844.708	20187
844.844	20476
844.98	20906
845.117	21336
845.253	22124
845.389	23619
845.525	26663
845.661	31518
845.798	37289
845.934	41775
846.07	43521
846.206	42323
846.342	38423
846.478	32632
846.614	27549
846.75	24247
846.886	22341
847.022	21157
847.158	20434
847.294	19940
847.429	19693
847.565	19426
847.701	19453
847.837	18882
847.972	18749
848.108	18738
848.244	18787
848.379	18563
848.515	18460
848.65	18441
848.786	18285
848.921	18460
849.057	18365
849.192	18342
849.328	18262
849.463	18414
849.598	18232
849.734	18171
849.869	18129
850.004	17961
850.14	18011
850.275	18125
850.41	17950
850.545	18034
850.68	17977
850.815	18072
850.95	17958
851.085	18167
851.22	18110
851.355	18003
851.49	17977
851.625	17980
851.76	17863
851.895	17973
852.03	17946
852.165	17996
852.299	18087
852.434	18091
852.569	18011
852.703	18102
852.838	18106
852.973	18152
853.107	18289
853.242	18102
853.376	17958
853.511	17958
853.645	18083
853.78	18224
853.914	18205
854.048	18106
854.183	18152
854.317	18247
854.451	18376
854.585	18140
854.72	18136
854.854	18262
854.988	18034
855.122	18049
855.256	17897
855.39	18030
855.524	18015
855.658	17889
855.792	17866
855.926	17977
856.06	17897
856.194	17863
856.327	17843
856.461	17885
856.595	17771
856.729	17764
856.862	17920
856.996	17885
857.13	17988
857.263	17980
857.397	17965
857.53	17665
857.664	17821
857.797	17916
857.931	17939
858.064	17836
858.197	17874
858.331	17790
858.464	17733
858.597	17665
858.731	17805
858.864	17748
858.997	17646
859.13	17786
859.263	17672
859.396	17714
859.529	17699
859.662	17657
859.795	17623
859.928	17611
860.061	17916
860.194	17950
860.327	17707
860.46	17649
860.592	17840
860.725	17863
860.858	17748
860.99	17615
861.123	17547
861.256	17592
861.388	17630
861.521	18258
861.653	17463
861.786	17436
861.918	17463
862.05	17505
862.183	17551
862.315	17668
862.447	17653
862.58	17558
862.712	17459
862.844	17288
862.976	17535
863.108	17349
863.24	17794
863.372	17254
863.504	17307
863.636	17299
863.768	17391
863.9	17376
864.032	17273
864.164	17284
864.296	17452
864.428	17425
864.559	17417
864.691	17474
864.823	17417
864.954	17376
865.086	17330
865.217	17296
865.349	17185
865.48	17277
865.612	17311
865.743	17379
865.875	17349
866.006	17284
866.137	17250
866.269	17322
866.4	17261
866.531	17254
866.662	17193
866.793	17193
866.924	17242
867.055	17265
867.186	17322
867.317	17178
867.448	17048
867.579	17166
867.71	17181
867.841	17235
867.972	17280
868.103	17277
868.233	17227
868.364	17280
868.495	17379
868.625	17501
868.756	17543
868.886	17356
869.017	17528
869.147	17634
869.278	17665
869.408	17570
869.539	17505
869.669	17551
869.799	17566
869.929	17649
870.06	17623
870.19	17893
870.32	17805
870.45	17859
870.58	17927
870.71	17996
870.84	18053
870.97	18030
871.1	17942
871.23	18144
871.36	18117
871.489	18174
871.619	18308
871.749	18262
871.879	18296
872.008	18342
872.138	18327
872.267	18197
872.397	18133
872.526	18125
872.656	18121
872.785	18152
872.915	18266
873.044	18323
873.173	18395
873.303	18369
873.432	18384
873.561	18566
873.69	18433
873.819	18479
873.948	18582
874.077	18532
874.206	18460
874.335	18616
874.464	18673
874.593	18791
874.722	18871
874.851	18867
874.979	18939
875.108	19095
875.237	18913
875.365	18897
875.494	18973
875.623	19069
875.751	19114
875.88	19118
876.008	19324
876.136	19403
876.265	19674
876.393	19772
876.521	19887
876.65	19932
876.778	19894
876.906	19788
877.034	19841
877.162	19928
877.29	20035
877.418	20164
877.546	20195
877.674	20320
877.802	20301
877.93	20545
878.058	20720
878.185	20735
878.313	21051
878.441	21321
878.568	21523
878.696	22105
878.824	22805
878.951	23802
879.079	25236
879.206	27032
879.333	28607
879.461	30079
879.588	31160
879.715	31266
879.842	30258
879.97	28649
880.097	26952
880.224	25255
880.351	24353
880.478	23653
880.605	23090
880.732	22725
880.859	22835
880.986	22455
881.112	22390
881.239	22329
881.366	22010
881.493	21991
881.619	21926
881.746	21956
881.872	21953
881.999	22120
882.125	22002
882.252	22120
882.378	22196
882.505	22185
882.631	21991
882.757	21918
882.883	22032
883.01	21937
883.136	21876
883.262	21778
883.388	21831
883.514	21937
883.64	21983
883.766	21804
883.892	21751
884.018	21789
884.143	21922
884.269	22017
884.395	21739
884.52	21781
884.646	21759
884.772	21694
884.897	21572
885.023	21633
885.148	21698
885.274	21682
885.399	21629
885.524	21401
885.65	21458
885.775	21340
885.9	21119
886.025	21218
886.15	20948
886.275	20811
886.4	20590
886.525	20499
886.65	20438
886.775	20244
886.9	20358
887.025	20461
887.149	20130
887.274	19856
887.399	19685
887.523	19693
887.648	19544
887.773	19472
887.897	19613
888.021	19480
888.146	19274
888.27	19400
888.395	19415
888.519	19324
888.643	19316
888.767	19225
888.891	19061
889.015	18886
889.139	18924
889.263	18810
889.387	18943
889.511	18970
889.635	18909
889.759	18749
889.883	18673
890.006	18669
890.13	18753
890.254	18646
890.377	18547
890.501	18388
890.624	18315
890.748	18388
890.871	18266
890.995	18102
891.118	17988
891.241	18174
891.364	18186
891.488	18258
891.611	18038
891.734	18022
891.857	18038
891.98	17939
892.103	17885
892.226	17977
892.349	17889
892.471	17790
892.594	17790
892.717	17855
892.839	17775
892.962	17718
893.085	17809
893.207	17710
893.33	17452
893.452	17592
893.575	17566
893.697	17707
893.819	17764
893.941	17741
894.064	17630
894.186	17452
894.308	17436
894.43	17592
894.552	17665
894.674	17535
894.796	17292
894.918	17463
895.04	17391
895.161	17478
895.283	17368
895.405	17353
895.526	17296
895.648	17414
895.769	17417
895.891	17402
896.012	17482
896.134	17322
896.255	17391
896.376	17185
896.498	17398
896.619	17345
896.74	17227
896.861	17406
896.982	17623
897.103	17790
897.224	17573
897.345	17493
897.466	17455
897.587	17417
897.708	17608
897.828	17543
897.949	17448
898.07	17459
898.19	17474
898.311	17570
898.431	17425
898.552	17467
898.672	17657
898.792	17646
898.913	17649
899.033	17387
899.153	17387
899.273	17261
899.393	17345
899.513	17318
899.633	17311
899.753	17315
899.873	17368
899.993	17303
900.113	17330
900.232	17315
900.352	17223
900.472	17216
900.591	17037
900.711	17181
900.83	17048
900.95	17212
901.069	17242
901.189	17117
901.308	16839
901.427	16748
901.546	16675
901.665	16763
901.784	16828
901.904	16580
902.023	16428
902.141	16238
902.26	16215
902.379	16215
902.498	16162
902.617	16097
902.735	16112
902.854	16120
902.973	16051
903.091	15819
903.21	15926
903.328	15728
903.446	15778
903.565	15671
903.683	15572
903.801	15500
903.919	15736
904.038	15576
904.156	15408
904.274	15458
904.392	15393
904.51	15344
904.627	15313
904.745	15378
904.863	15359
904.981	15192
905.098	15028
905.216	15070
905.334	14986
905.451	15009
905.569	15001
905.686	15051
905.803	15001
905.921	14914
906.038	14902
906.155	14739
906.272	14743
906.389	14754
906.506	14621
906.623	14541
906.74	14571
906.857	14507
906.974	14438
907.091	14625
907.208	14651
907.324	14625
907.441	14446
907.557	14286
907.674	14278
907.79	14248
907.907	14214
908.023	14278
908.139	14233
908.256	14225
908.372	14088
908.488	14161
908.604	14035
908.72	14031
908.836	14073
908.952	13978
909.068	13986
909.184	14077
909.3	14020
909.415	14077
909.531	14024
909.647	13803
909.762	13769
909.878	13704
909.993	13799
910.108	13674
910.224	13731
910.339	13746
910.454	13738
910.57	13575
910.685	13552
910.8	13902
910.915	13780
911.03	13655
911.145	13396
911.259	13365
911.374	13419
911.489	13304
911.604	13343
911.718	13190
911.833	13072
911.947	13069
912.062	12985
912.176	13091
912.291	13190
912.405	13156
912.519	13388
912.633	13308
912.748	13171
912.862	13107
912.976	12939
913.09	12833
913.204	12905
913.318	12966
913.431	13042
913.545	13072
913.659	13137
913.772	12905
913.886	12878
914	12856
914.113	12989
914.226	12935
914.34	12928
914.453	12798
914.566	12973
914.68	12795
914.793	12787
914.906	12433
915.019	12570
915.132	12403
915.245	12585
915.358	12490
915.47	12593
915.583	12574
915.696	12627
915.809	12719
915.921	12700
916.034	12479
916.146	12486
916.259	12506
916.371	12593
916.483	12650
916.595	12547
916.708	12502
916.82	12506
916.932	12433
917.044	12551
917.156	12521
917.268	12338
917.38	12395
917.491	12369
917.603	12365
917.715	12384
917.826	12380
917.938	12209
918.049	12133
918.161	12315
918.272	12471
918.384	12460
918.495	12216
918.606	12167
918.717	12079
918.828	12159
918.939	12079
919.05	12144
919.161	12125
919.272	11878
919.383	11958
919.494	12072
919.604	12273
919.715	12049
919.826	11980
919.936	12133
920.047	12117
920.157	12087
920.267	12186
920.378	12053
920.488	12026
920.598	12239
920.708	12330
920.818	12205
920.928	12155
921.038	12380
921.148	12372
921.258	12030
921.368	11916
921.477	11859
921.587	11813
921.697	11684
921.806	11809
921.916	11756
922.025	11577
922.134	11608
922.244	11440
922.353	11539
922.462	11471
922.571	11337
922.68	11277
922.789	11220
922.898	11185
923.007	11121
923.116	11277
923.224	11197
923.333	11185
923.442	11090
923.55	10968
923.659	11052
923.767	11113
923.876	11010
923.984	11079
924.092	10961
924.201	11014
924.309	11083
924.417	10957
924.525	10896
924.633	10968
924.741	11843
924.849	10782
924.956	10869
925.064	10774
925.172	10622
925.279	10714
925.387	10683
925.494	10752
925.602	10809
925.709	10820
925.816	10668
925.924	10691
926.031	10729
926.138	10675
926.245	10744
926.352	10683
926.459	10774
926.566	10854
926.673	10584
926.779	10573
926.886	10527
926.993	10341
927.099	10402
927.206	10356
927.312	10276
927.419	10413
927.525	10360
927.631	10497
927.737	10215
927.843	10177
927.95	10215
928.056	10261
928.162	10268
928.267	10333
928.373	10980
928.479	10333
928.585	10128
928.69	10242
928.796	10329
928.901	10131
929.007	10029
929.112	10086
929.218	10105
929.323	9956
929.428	10063
929.533	10166
929.638	10025
929.743	10044
929.848	10051
929.953	10025
930.058	9998
930.163	9781
930.267	9804
930.372	9987
930.477	9778
930.581	10010
930.685	9869
930.79	9679
930.894	9785
930.998	9736
931.103	9861
931.207	9485
931.311	9431
931.415	9401
931.519	9169
931.623	9195
