Data from test_V78500241_76.txt Node
Date: Fri Mar 25 14:34:15 CST 2022
User: usil
Spectrometer: V785-0024
Trigger mode: 0
Integration Time (sec): 4.000000E-1
Scans to average: 1
Nonlinearity correction enabled: false
Boxcar width: 0
Storing dark spectrum: false
XAxis mode: Wavelengths
Number of Pixels in Spectrum: 1024
>>>>>Begin Spectral Data<<<<<
801.071	29029
801.214	28888
801.356	28843
801.499	28645
801.641	28394
801.783	28474
801.926	28303
802.068	28318
802.211	28295
802.353	28249
802.496	28082
802.638	28070
802.78	27994
802.923	27903
803.065	27861
803.208	27914
803.35	28112
803.492	28074
803.635	28120
803.777	28044
803.919	28105
804.061	28382
804.204	28173
804.346	28063
804.488	27808
804.63	28082
804.773	27941
804.915	27968
805.057	28200
805.199	27930
805.341	28150
805.483	28268
805.626	28116
805.768	27903
805.91	28166
806.052	28116
806.194	28086
806.336	28166
806.478	28074
806.62	28010
806.762	28310
806.904	28409
807.046	28481
807.188	28565
807.33	28451
807.472	28489
807.614	28474
807.756	28363
807.898	28303
808.04	28211
808.182	28200
808.324	28105
808.465	28238
808.607	28569
808.749	28519
808.891	28668
809.033	28801
809.174	28675
809.316	28592
809.458	28573
809.6	28656
809.741	28824
809.883	28675
810.025	28991
810.166	28839
810.308	28881
810.45	28786
810.591	28683
810.733	28763
810.875	28470
811.016	28436
811.158	28276
811.299	28455
811.441	28710
811.582	28702
811.724	28500
811.865	28603
812.007	28561
812.148	28443
812.29	28580
812.431	28626
812.573	28862
812.714	28995
812.855	29151
812.997	29029
813.138	29235
813.279	29102
813.421	29208
813.562	28923
813.703	28869
813.845	28755
813.986	28443
814.127	28306
814.268	28181
814.41	28299
814.551	28116
814.692	28428
814.833	28059
814.974	27934
815.115	28219
815.256	27831
815.397	27987
815.539	27937
815.68	27819
815.821	27774
815.962	27899
816.103	27816
816.244	27842
816.385	27660
816.526	27606
816.666	27462
816.807	27245
816.948	27302
817.089	27367
817.23	27268
817.371	27313
817.512	27222
817.653	27150
817.793	27256
817.934	27237
818.075	27188
818.216	27195
818.356	27047
818.497	27184
818.638	26883
818.778	27024
818.919	26956
819.06	27043
819.2	27066
819.341	27108
819.481	27146
819.622	27310
819.762	27496
819.903	27329
820.043	27302
820.184	27317
820.324	27226
820.465	27374
820.605	27321
820.746	27089
820.886	27081
821.026	27180
821.167	27218
821.307	27184
821.447	27165
821.588	27043
821.728	26849
821.868	26640
822.008	26434
822.149	26511
822.289	26556
822.429	26233
822.569	26252
822.709	26214
822.849	26008
822.99	25951
823.13	25902
823.27	25822
823.41	25807
823.55	25662
823.69	25761
823.83	25799
823.97	25624
824.11	25571
824.25	25411
824.389	25479
824.529	25613
824.669	25552
824.809	25746
824.949	25624
825.089	25670
825.228	25472
825.368	25396
825.508	25499
825.648	25422
825.787	25354
825.927	25453
826.067	25285
826.206	25255
826.346	25373
826.485	25320
826.625	25324
826.765	25472
826.904	25335
827.044	25107
827.183	25091
827.323	24981
827.462	25088
827.601	24954
827.741	25027
827.88	25065
828.02	24821
828.159	25023
828.298	25042
828.437	25012
828.577	24932
828.716	25194
828.855	24890
828.994	24768
829.134	24711
829.273	24661
829.412	24654
829.551	24635
829.69	24692
829.829	24681
829.968	24867
830.107	24757
830.246	24726
830.385	24483
830.524	24502
830.663	24521
830.802	24422
830.941	24311
831.08	24232
831.219	24380
831.357	24399
831.496	24437
831.635	24270
831.774	24011
831.913	24064
832.051	24049
832.19	24003
832.329	24144
832.467	23878
832.606	23843
832.744	23908
832.883	23885
833.022	23878
833.16	23847
833.299	23904
833.437	24007
833.576	23897
833.714	23931
833.852	23889
833.991	24083
834.129	23980
834.267	23927
834.406	23680
834.544	23866
834.682	23901
834.821	23897
834.959	24106
835.097	23718
835.235	23901
835.373	23863
835.511	23863
835.65	23729
835.788	23794
835.926	23665
836.064	23482
836.202	23585
836.34	23661
836.478	23809
836.615	23665
836.753	23585
836.891	23665
837.029	23642
837.167	23630
837.305	23562
837.443	23615
837.58	23589
837.718	23638
837.856	23512
837.993	23459
838.131	23516
838.269	23410
838.406	23398
838.544	23330
838.681	23128
838.819	23083
838.956	22930
839.094	22919
839.231	23003
839.369	23109
839.506	23364
839.643	23204
839.781	22919
839.918	22843
840.055	22934
840.193	22759
840.33	22805
840.467	22805
840.604	22812
840.742	22938
840.879	22637
841.016	22664
841.153	22721
841.29	22949
841.427	22736
841.564	22900
841.701	22599
841.838	22599
841.975	22611
842.112	22535
842.249	22481
842.385	22565
842.522	22702
842.659	22618
842.796	22504
842.933	22428
843.069	22280
843.206	22386
843.343	22664
843.479	22478
843.616	22440
843.752	22249
843.889	22154
844.025	22443
844.162	22192
844.298	22421
844.435	22196
844.571	22185
844.708	22276
844.844	22333
844.98	22363
845.117	22219
845.253	22200
845.389	22131
845.525	22059
845.661	21994
845.798	22010
845.934	22025
846.07	21873
846.206	22074
846.342	22021
846.478	21876
846.614	21766
846.75	21580
846.886	21564
847.022	21793
847.158	21641
847.294	21656
847.429	21622
847.565	21599
847.701	21823
847.837	21374
847.972	21241
848.108	21450
848.244	21389
848.379	21332
848.515	21306
848.65	21138
848.786	21233
848.921	21127
849.057	21283
849.192	21268
849.328	21195
849.463	21195
849.598	21039
849.734	21135
849.869	21024
850.004	21047
850.14	21039
850.275	20982
850.41	20815
850.545	20861
850.68	20975
850.815	20910
850.95	20967
851.085	21116
851.22	20948
851.355	20998
851.49	20830
851.625	20845
851.76	20921
851.895	20754
852.03	20769
852.165	20785
852.299	20990
852.434	20941
852.569	20918
852.703	20845
852.838	20937
852.973	20990
853.107	20982
853.242	20883
853.376	20697
853.511	20640
853.645	20674
853.78	20815
853.914	20609
854.048	20636
854.183	20625
854.317	20651
854.451	20887
854.585	20720
854.72	20701
854.854	20773
854.988	20663
855.122	20716
855.256	20659
855.39	20621
855.524	20765
855.658	20792
855.792	20720
855.926	20659
856.06	20655
856.194	20880
856.327	20590
856.461	20648
856.595	20560
856.729	20720
856.862	20724
856.996	20648
857.13	20746
857.263	20857
857.397	20845
857.53	20663
857.664	20613
857.797	20785
857.931	20724
858.064	20758
858.197	20750
858.331	20499
858.464	20556
858.597	20568
858.731	20640
858.864	20564
858.997	20522
859.13	20636
859.263	20606
859.396	20731
859.529	20606
859.662	20621
859.795	20514
859.928	20625
860.061	20807
860.194	20731
860.327	20594
860.46	20514
860.592	20632
860.725	20735
860.858	20785
860.99	20564
861.123	20590
861.256	20530
861.388	20488
861.521	21116
861.653	20396
861.786	20454
861.918	20473
862.05	20651
862.183	20632
862.315	20705
862.447	20705
862.58	20606
862.712	20473
862.844	20355
862.976	20412
863.108	20419
863.24	20667
863.372	20252
863.504	20301
863.636	20237
863.768	20374
863.9	20282
864.032	20172
864.164	20183
864.296	20358
864.428	20400
864.559	20355
864.691	20408
864.823	20256
864.954	20263
865.086	20069
865.217	20298
865.349	20065
865.48	20259
865.612	20157
865.743	20210
865.875	20199
866.006	20252
866.137	20206
866.269	20206
866.4	20161
866.531	20130
866.662	20050
866.793	20092
866.924	20081
867.055	20187
867.186	20187
867.317	20031
867.448	19989
867.579	20081
867.71	20107
867.841	20012
867.972	20111
868.103	19928
868.233	20183
868.364	20195
868.495	20183
868.625	20248
868.756	20488
868.886	20256
869.017	20362
869.147	20415
869.278	20374
869.408	20301
869.539	20320
869.669	20442
869.799	20381
869.929	20351
870.06	20404
870.19	20579
870.32	20556
870.45	20716
870.58	20720
870.71	20979
870.84	20697
870.97	20697
871.1	20819
871.23	20861
871.36	20918
871.489	20788
871.619	20682
871.749	20929
871.879	20975
872.008	21028
872.138	20921
872.267	20868
872.397	20845
872.526	20765
872.656	20785
872.785	20861
872.915	20929
873.044	21013
873.173	20906
873.303	20975
873.432	21036
873.561	21039
873.69	20982
873.819	20906
873.948	21001
874.077	20872
874.206	20910
874.335	20979
874.464	21047
874.593	21313
874.722	21203
874.851	21173
874.979	21367
875.108	21180
875.237	21112
875.365	21100
875.494	21184
875.623	21279
875.751	21188
875.88	21287
876.008	21310
876.136	21283
876.265	21553
876.393	21701
876.521	21641
876.65	21641
876.778	21595
876.906	21652
877.034	21477
877.162	21618
877.29	21572
877.418	21549
877.546	21507
877.674	21591
877.802	21572
877.93	21485
878.058	21416
878.185	21424
878.313	21587
878.441	21534
878.568	21386
878.696	21557
878.824	21591
878.951	21667
879.079	21709
879.206	21873
879.333	21610
879.461	21618
879.588	21762
879.715	21739
879.842	21819
879.97	21648
880.097	21348
880.224	21416
880.351	21504
880.478	21386
880.605	21294
880.732	21405
880.859	21625
880.986	21466
881.112	21351
881.239	21287
881.366	21123
881.493	21112
881.619	20937
881.746	21066
881.872	20967
881.999	20979
882.125	21009
882.252	20956
882.378	21032
882.505	21123
882.631	20864
882.757	20621
882.883	20743
883.01	20785
883.136	20746
883.262	20663
883.388	20625
883.514	20712
883.64	20800
883.766	20579
883.892	20389
884.018	20423
884.143	20613
884.269	20826
884.395	20454
884.52	20370
884.646	20290
884.772	20339
884.897	20298
885.023	20328
885.148	20438
885.274	20495
885.399	20374
885.524	20374
885.65	20347
885.775	20461
885.9	20317
886.025	20476
886.15	20499
886.275	20191
886.4	20229
886.525	20294
886.65	20168
886.775	20298
886.9	20438
887.025	20522
887.149	20256
887.274	20096
887.399	20172
887.523	20176
887.648	20020
887.773	19868
887.897	20183
888.021	20062
888.146	19993
888.27	20191
888.395	20176
888.519	20164
888.643	20088
888.767	20153
888.891	19978
889.015	19868
889.139	19883
889.263	19856
889.387	19978
889.511	20119
889.635	20039
889.759	19864
889.883	19936
890.006	19795
890.13	19986
890.254	19852
890.377	19765
890.501	19662
890.624	19655
890.748	19734
890.871	19601
890.995	19445
891.118	19537
891.241	19483
891.364	19403
891.488	19529
891.611	19445
891.734	19563
891.857	19502
891.98	19468
892.103	19578
892.226	19510
892.349	19407
892.471	19270
892.594	19381
892.717	19335
892.839	19441
892.962	19403
893.085	19407
893.207	19335
893.33	19145
893.452	19354
893.575	19453
893.697	19293
893.819	19430
893.941	19559
894.064	19472
894.186	19343
894.308	19304
894.43	19514
894.552	19480
894.674	19445
894.796	19232
894.918	19377
895.04	19327
895.161	19434
895.283	19483
895.405	19365
895.526	19381
895.648	19316
895.769	19438
895.891	19441
896.012	19525
896.134	19468
896.255	19426
896.376	19415
896.498	19343
896.619	19609
896.74	19453
896.861	19438
896.982	19799
897.103	19947
897.224	19811
897.345	19658
897.466	19540
897.587	19674
897.708	19837
897.828	19616
897.949	19632
898.07	19453
898.19	19510
898.311	19712
898.431	19510
898.552	19586
898.672	19704
898.792	19685
898.913	19620
899.033	19594
899.153	19384
899.273	19301
899.393	19354
899.513	19453
899.633	19358
899.753	19297
899.873	19316
899.993	19362
900.113	19419
900.232	19392
900.352	19407
900.472	19255
900.591	19171
900.711	19251
900.83	19232
900.95	19251
901.069	19312
901.189	19160
901.308	18943
901.427	18810
901.546	18768
901.665	18757
901.784	18825
901.904	18703
902.023	18585
902.141	18365
902.26	18338
902.379	18372
902.498	18304
902.617	18186
902.735	18148
902.854	18247
902.973	18239
903.091	17992
903.21	17904
903.328	17916
903.446	17851
903.565	17718
903.683	17748
903.801	17665
903.919	17672
904.038	17653
904.156	17554
904.274	17608
904.392	17532
904.51	17410
904.627	17474
904.745	17539
904.863	17554
904.981	17330
905.098	17193
905.216	17242
905.334	17269
905.451	17220
905.569	17185
905.686	17170
905.803	17113
905.921	16999
906.038	16987
906.155	16915
906.272	16843
906.389	16847
906.506	16626
906.623	16630
906.74	16558
906.857	16618
906.974	16645
907.091	16702
907.208	16755
907.324	16691
907.441	16500
907.557	16447
907.674	16466
907.79	16371
907.907	16333
908.023	16318
908.139	16268
908.256	16211
908.372	16177
908.488	16196
908.604	16006
908.72	15964
908.836	16051
908.952	16071
909.068	15983
909.184	16093
909.3	16112
909.415	16059
909.531	16112
909.647	15873
909.762	15781
909.878	15686
909.993	15701
910.108	15690
910.224	15838
910.339	15656
910.454	15538
910.57	15591
910.685	15454
910.8	15747
910.915	15686
911.03	15538
911.145	15416
911.259	15321
911.374	15363
911.489	15298
911.604	15165
911.718	15066
911.833	15146
911.947	14960
912.062	14921
912.176	14910
912.291	15039
912.405	14979
912.519	15245
912.633	15241
912.748	15085
912.862	15089
912.976	14944
913.09	14720
913.204	14804
913.318	14982
913.431	15017
913.545	14975
913.659	14967
913.772	14872
913.886	14659
914	14686
914.113	14762
914.226	14823
914.34	14739
914.453	14640
914.566	14659
914.68	14495
914.793	14598
914.906	14454
915.019	14358
915.132	14252
915.245	14240
915.358	14446
915.47	14347
915.583	14339
915.696	14412
915.809	14442
915.921	14385
916.034	14240
916.146	14225
916.259	14195
916.371	14237
916.483	14252
916.595	14134
916.708	14157
916.82	14282
916.932	14084
917.044	14142
917.156	14168
917.268	14005
917.38	14031
917.491	13974
917.603	14115
917.715	14058
917.826	14008
917.938	13963
918.049	13890
918.161	13989
918.272	14031
918.384	14069
918.495	13986
918.606	13772
918.717	13708
918.828	13681
918.939	13769
919.05	13677
919.161	13666
919.272	13552
919.383	13628
919.494	13757
919.604	13887
919.715	13700
919.826	13636
919.936	13776
920.047	13772
920.157	13704
920.267	13955
920.378	13727
920.488	13696
920.598	13826
920.708	13913
920.818	13807
920.928	13784
921.038	13917
921.148	13913
921.258	13693
921.368	13571
921.477	13441
921.587	13365
921.697	13297
921.806	13419
921.916	13301
922.025	13050
922.134	12993
922.244	13004
922.353	13103
922.462	12989
922.571	12897
922.68	12798
922.789	12730
922.898	12669
923.007	12642
923.116	12726
923.224	12692
923.333	12681
923.442	12684
923.55	12612
923.659	12570
923.767	12536
923.876	12585
923.984	12578
924.092	12517
924.201	12467
924.309	12502
924.417	12532
924.525	12407
924.633	12388
924.741	13164
924.849	12251
924.956	12346
925.064	12262
925.172	12114
925.279	12213
925.387	12106
925.494	12159
925.602	12251
925.709	12266
925.816	12136
925.924	12194
926.031	12224
926.138	12194
926.245	12102
926.352	12114
926.459	12220
926.566	12163
926.673	12079
926.779	12022
926.886	11889
926.993	11798
927.099	11767
927.206	11756
927.312	11718
927.419	11821
927.525	11764
927.631	11790
927.737	11668
927.843	11573
927.95	11512
928.056	11684
928.162	11627
928.267	11653
928.373	12277
928.479	11722
928.585	11467
928.69	11551
928.796	11608
928.901	11509
929.007	11376
929.112	11497
929.218	11387
929.323	11444
929.428	11318
929.533	11459
929.638	11258
929.743	11326
929.848	11360
929.953	11311
930.058	11231
930.163	11048
930.267	11048
930.372	11204
930.477	11014
930.581	11201
930.685	11079
930.79	10938
930.894	10968
930.998	10797
931.103	11052
931.207	10672
931.311	10607
931.415	10535
931.519	10379
931.623	10242
