Data from test_V78500241_471.txt Node
Date: Fri Mar 25 14:36:59 CST 2022
User: usil
Spectrometer: V785-0024
Trigger mode: 0
Integration Time (sec): 4.000000E-1
Scans to average: 1
Nonlinearity correction enabled: false
Boxcar width: 0
Storing dark spectrum: false
XAxis mode: Wavelengths
Number of Pixels in Spectrum: 1024
>>>>>Begin Spectral Data<<<<<
801.071	26549
801.214	26419
801.356	26202
801.499	26126
801.641	26043
801.783	26103
801.926	25978
802.068	25966
802.211	25868
802.353	25662
802.496	25491
802.638	25693
802.78	25559
802.923	25441
803.065	25453
803.208	25445
803.35	25487
803.492	25571
803.635	25605
803.777	25476
803.919	25708
804.061	25917
804.204	25597
804.346	25426
804.488	25384
804.63	25369
804.773	25384
804.915	25537
805.057	25655
805.199	25487
805.341	25483
805.483	25586
805.626	25651
805.768	25533
805.91	25556
806.052	25567
806.194	25343
806.336	25616
806.478	25529
806.62	25518
806.762	25616
806.904	25746
807.046	25989
807.188	25959
807.33	25963
807.472	25898
807.614	25791
807.756	25772
807.898	25696
808.04	25533
808.182	25681
808.324	25628
808.465	25655
808.607	25811
808.749	25947
808.891	26176
809.033	25982
809.174	26005
809.316	26119
809.458	25932
809.6	25928
809.741	25966
809.883	26054
810.025	26157
810.166	26149
810.308	26267
810.45	26103
810.591	25917
810.733	25883
810.875	25830
811.016	25655
811.158	25753
811.299	25974
811.441	25978
811.582	26005
811.724	25879
811.865	25875
812.007	25647
812.148	25788
812.29	25860
812.431	25928
812.573	26157
812.714	26229
812.855	26358
812.997	26305
813.138	26579
813.279	26434
813.421	26343
813.562	26332
813.703	26016
813.845	26001
813.986	25643
814.127	25464
814.268	25381
814.41	25396
814.551	25388
814.692	25339
814.833	25274
814.974	25316
815.115	25308
815.256	25190
815.397	25312
815.539	25263
815.68	25084
815.821	25069
815.962	25076
816.103	25244
816.244	24916
816.385	24871
816.526	24795
816.666	24665
816.807	24433
816.948	24521
817.089	24684
817.23	24532
817.371	24578
817.512	24475
817.653	24490
817.793	24399
817.934	24464
818.075	24502
818.216	24525
818.356	24342
818.497	24330
818.638	24190
818.778	24273
818.919	24159
819.06	24213
819.2	24353
819.341	24384
819.481	24372
819.622	24566
819.762	24833
819.903	24639
820.043	24528
820.184	24502
820.324	24475
820.465	24654
820.605	24563
820.746	24502
820.886	24334
821.026	24479
821.167	24361
821.307	24513
821.447	24399
821.588	24178
821.728	24045
821.868	23912
822.008	23923
822.149	23843
822.289	23703
822.429	23668
822.569	23444
822.709	23646
822.849	23330
822.99	23379
823.13	23345
823.27	23151
823.41	23109
823.55	23018
823.69	23124
823.83	23128
823.97	23022
824.11	22949
824.25	22824
824.389	22873
824.529	23064
824.669	22793
824.809	22953
824.949	22953
825.089	22900
825.228	22869
825.368	22721
825.508	22596
825.648	22675
825.787	22611
825.927	22691
826.067	22618
826.206	22603
826.346	22531
826.485	22611
826.625	22717
826.765	22733
826.904	22634
827.044	22424
827.183	22234
827.323	22329
827.462	22402
827.601	22367
827.741	22329
827.88	22363
828.02	22322
828.159	22280
828.298	22261
828.437	22284
828.577	22310
828.716	22489
828.855	22219
828.994	22059
829.134	22017
829.273	22055
829.412	21994
829.551	22051
829.69	21987
829.829	21945
829.968	22078
830.107	22135
830.246	21975
830.385	21926
830.524	22002
830.663	21709
830.802	21682
830.941	21538
831.08	21644
831.219	21629
831.357	21583
831.496	21888
831.635	21591
831.774	21576
831.913	21469
832.051	21401
832.19	21420
832.329	21313
832.467	21260
832.606	21222
832.744	21199
832.883	21222
833.022	21211
833.16	21211
833.299	21237
833.437	21173
833.576	21332
833.714	21226
833.852	21283
833.991	21260
834.129	21340
834.267	21378
834.406	21264
834.544	21351
834.682	21245
834.821	21272
834.959	21401
835.097	21249
835.235	21275
835.373	21260
835.511	21233
835.65	21146
835.788	21085
835.926	20944
836.064	20872
836.202	20880
836.34	21085
836.478	21119
836.615	21093
836.753	20967
836.891	21176
837.029	20998
837.167	21116
837.305	20937
837.443	20975
837.58	21005
837.718	21043
837.856	20956
837.993	20864
838.131	20887
838.269	20929
838.406	20861
838.544	20701
838.681	20560
838.819	20560
838.956	20389
839.094	20507
839.231	20484
839.369	20419
839.506	20785
839.643	20606
839.781	20332
839.918	20339
840.055	20294
840.193	20351
840.33	20317
840.467	20446
840.604	20412
840.742	20503
840.879	20195
841.016	20290
841.153	20210
841.29	20446
841.427	20339
841.564	20183
841.701	20267
841.838	20278
841.975	20210
842.112	20210
842.249	20134
842.385	19917
842.522	20214
842.659	20073
842.796	19970
842.933	20024
843.069	20100
843.206	19925
843.343	20126
843.479	20122
843.616	20012
843.752	19925
843.889	19871
844.025	19970
844.162	19799
844.298	19947
844.435	19753
844.571	19841
844.708	19811
844.844	19921
844.98	19894
845.117	19845
845.253	19727
845.389	19647
845.525	19704
845.661	19811
845.798	19529
845.934	19666
846.07	19537
846.206	19696
846.342	19757
846.478	19578
846.614	19293
846.75	19255
846.886	19244
847.022	19324
847.158	19316
847.294	19285
847.429	19255
847.565	19217
847.701	19453
847.837	19023
847.972	18935
848.108	19088
848.244	19000
848.379	18779
848.515	18779
848.65	18677
848.786	18844
848.921	18791
849.057	19038
849.192	18916
849.328	18806
849.463	18837
849.598	18715
849.734	18669
849.869	18608
850.004	18563
850.14	18623
850.275	18665
850.41	18464
850.545	18566
850.68	18509
850.815	18517
850.95	18544
851.085	18692
851.22	18654
851.355	18547
851.49	18544
851.625	18456
851.76	18445
851.895	18513
852.03	18403
852.165	18551
852.299	18578
852.434	18608
852.569	18551
852.703	18601
852.838	18467
852.973	18642
853.107	18578
853.242	18498
853.376	18388
853.511	18330
853.645	18243
853.78	18437
853.914	18445
854.048	18273
854.183	18384
854.317	18277
854.451	18559
854.585	18258
854.72	18224
854.854	18475
854.988	18209
855.122	18353
855.256	18273
855.39	18311
855.524	18395
855.658	18384
855.792	18281
855.926	18384
856.06	18380
856.194	18475
856.327	18357
856.461	18296
856.595	18311
856.729	18342
856.862	18498
856.996	18376
857.13	18479
857.263	18388
857.397	18391
857.53	18365
857.664	18452
857.797	18399
857.931	18521
858.064	18445
858.197	18433
858.331	18270
858.464	18197
858.597	18190
858.731	18296
858.864	18311
858.997	18338
859.13	18342
859.263	18380
859.396	18384
859.529	18213
859.662	18247
859.795	18342
859.928	18319
860.061	18380
860.194	18433
860.327	18369
860.46	18365
860.592	18395
860.725	18323
860.858	18422
860.99	18254
861.123	18167
861.256	18334
861.388	18361
861.521	19061
861.653	18205
861.786	18106
861.918	18155
862.05	18213
862.183	18258
862.315	18391
862.447	18365
862.58	18251
862.712	18140
862.844	18019
862.976	18190
863.108	18072
863.24	18441
863.372	17961
863.504	18015
863.636	18186
863.768	17992
863.9	18060
864.032	18087
864.164	17984
864.296	17999
864.428	18106
864.559	18038
864.691	18098
864.823	17999
864.954	17980
865.086	18026
865.217	17935
865.349	17920
865.48	17999
865.612	18038
865.743	18106
865.875	17904
866.006	17824
866.137	17939
866.269	17885
866.4	17901
866.531	17931
866.662	17855
866.793	17824
866.924	17916
867.055	17923
867.186	17977
867.317	17798
867.448	17802
867.579	17904
867.71	17798
867.841	17843
867.972	17969
868.103	17893
868.233	17824
868.364	17931
868.495	17878
868.625	18140
868.756	18220
868.886	18117
869.017	18178
869.147	18232
869.278	18254
869.408	18098
869.539	18186
869.669	18258
869.799	18174
869.929	18243
870.06	18224
870.19	18437
870.32	18361
870.45	18437
870.58	18452
870.71	18673
870.84	18635
870.97	18612
871.1	18403
871.23	18715
871.36	18776
871.489	18635
871.619	18730
871.749	18734
871.879	18768
872.008	18924
872.138	18703
872.267	18654
872.397	18623
872.526	18502
872.656	18623
872.785	18563
872.915	18734
873.044	18795
873.173	18787
873.303	18719
873.432	18757
873.561	18814
873.69	18741
873.819	18814
873.948	18795
874.077	18749
874.206	18791
874.335	18825
874.464	18814
874.593	18993
874.722	19050
874.851	19057
874.979	19065
875.108	19148
875.237	19015
875.365	18833
875.494	19050
875.623	19072
875.751	19004
875.88	19076
876.008	19080
876.136	19133
876.265	19426
876.393	19559
876.521	19521
876.65	19495
876.778	19464
876.906	19346
877.034	19430
877.162	19316
877.29	19343
877.418	19415
877.546	19320
877.674	19384
877.802	19445
877.93	19483
878.058	19468
878.185	19381
878.313	19411
878.441	19422
878.568	19270
878.696	19308
878.824	19426
878.951	19491
879.079	19552
879.206	19700
879.333	19719
879.461	19540
879.588	19582
879.715	19605
879.842	19849
879.97	19491
880.097	19346
880.224	19179
880.351	19289
880.478	19320
880.605	19145
880.732	19343
880.859	19529
880.986	19301
881.112	19278
881.239	19175
881.366	19046
881.493	18970
881.619	18882
881.746	19004
881.872	18837
881.999	18810
882.125	18814
882.252	18909
882.378	18928
882.505	18951
882.631	18757
882.757	18494
882.883	18795
883.01	18574
883.136	18700
883.262	18574
883.388	18517
883.514	18673
883.64	18696
883.766	18589
883.892	18391
884.018	18471
884.143	18681
884.269	18593
884.395	18426
884.52	18304
884.646	18346
884.772	18247
884.897	18266
885.023	18330
885.148	18448
885.274	18399
885.399	18372
885.524	18277
885.65	18433
885.775	18346
885.9	18270
886.025	18289
886.15	18395
886.275	18194
886.4	18186
886.525	18258
886.65	18186
886.775	18194
886.9	18452
887.025	18429
887.149	18311
887.274	18190
887.399	18125
887.523	18171
887.648	18098
887.773	18003
887.897	18133
888.021	18194
888.146	18011
888.27	18060
888.395	18167
888.519	18091
888.643	18171
888.767	18060
888.891	17939
889.015	17904
889.139	18003
889.263	17866
889.387	17996
889.511	18053
889.635	18041
889.759	17760
889.883	17805
890.006	17832
890.13	17946
890.254	17764
890.377	17748
890.501	17592
890.624	17722
890.748	17684
890.871	17539
890.995	17421
891.118	17436
891.241	17562
891.364	17562
891.488	17703
891.611	17600
891.734	17516
891.857	17543
891.98	17509
892.103	17661
892.226	17535
892.349	17547
892.471	17326
892.594	17421
892.717	17509
892.839	17581
892.962	17444
893.085	17562
893.207	17417
893.33	17330
893.452	17410
893.575	17482
893.697	17372
893.819	17623
893.941	17634
894.064	17634
894.186	17368
894.308	17414
894.43	17570
894.552	17566
894.674	17551
894.796	17562
894.918	17436
895.04	17368
895.161	17581
895.283	17558
895.405	17433
895.526	17532
895.648	17452
895.769	17421
895.891	17566
896.012	17672
896.134	17509
896.255	17493
896.376	17539
896.498	17554
896.619	17630
896.74	17615
896.861	17703
896.982	17935
897.103	17977
897.224	17939
897.345	17885
897.466	17771
897.587	17927
897.708	17999
897.828	17760
897.949	17691
898.07	17661
898.19	17783
898.311	18003
898.431	17722
898.552	17714
898.672	17847
898.792	17923
898.913	17840
899.033	17676
899.153	17649
899.273	17410
899.393	17501
899.513	17619
899.633	17535
899.753	17535
899.873	17589
899.993	17505
900.113	17512
900.232	17611
900.352	17554
900.472	17417
900.591	17292
900.711	17402
900.83	17349
900.95	17474
901.069	17440
901.189	17406
901.308	17086
901.427	17090
901.546	17178
901.665	17094
901.784	17060
901.904	16995
902.023	16805
902.141	16573
902.26	16641
902.379	16740
902.498	16565
902.617	16596
902.735	16554
902.854	16584
902.973	16363
903.091	16284
903.21	16306
903.328	16196
903.446	16154
903.565	16017
903.683	16055
903.801	15975
903.919	15972
904.038	16101
904.156	16101
904.274	15899
904.392	15808
904.51	15816
904.627	15892
904.745	15884
904.863	15819
904.981	15648
905.098	15496
905.216	15511
905.334	15557
905.451	15618
905.569	15576
905.686	15561
905.803	15496
905.921	15355
906.038	15325
906.155	15275
906.272	15093
906.389	15195
906.506	15081
906.623	15005
906.74	15001
906.857	14944
906.974	14902
907.091	15043
907.208	15195
907.324	15043
907.441	14990
907.557	14864
907.674	14796
907.79	14727
907.907	14720
908.023	14838
908.139	14853
908.256	14678
908.372	14701
908.488	14590
908.604	14530
908.72	14503
908.836	14423
908.952	14442
909.068	14545
909.184	14549
909.3	14499
909.415	14579
909.531	14446
909.647	14244
909.762	14229
909.878	14145
909.993	14195
910.108	14161
910.224	14252
910.339	14286
910.454	14088
910.57	13970
910.685	14077
910.8	14225
910.915	14206
911.03	14096
911.145	13871
911.259	13795
911.374	13818
911.489	13761
911.604	13704
911.718	13681
911.833	13674
911.947	13468
912.062	13430
912.176	13514
912.291	13597
912.405	13525
912.519	13674
912.633	13818
912.748	13727
912.862	13514
912.976	13445
913.09	13331
913.204	13369
913.318	13396
913.431	13472
913.545	13514
913.659	13597
913.772	13365
913.886	13324
914	13198
914.113	13324
914.226	13369
914.34	13324
914.453	13118
914.566	13270
914.68	13118
914.793	13156
914.906	13019
915.019	12909
915.132	12947
915.245	12905
915.358	12973
915.47	12928
915.583	13057
915.696	13034
915.809	13031
915.921	12970
916.034	12909
916.146	12856
916.259	12726
916.371	12924
916.483	12821
916.595	12810
916.708	12707
916.82	12901
916.932	12859
917.044	12753
917.156	12703
917.268	12665
917.38	12722
917.491	12620
917.603	12635
917.715	12837
917.826	12753
917.938	12677
918.049	12563
918.161	12654
918.272	12749
918.384	12730
918.495	12631
918.606	12517
918.717	12475
918.828	12445
918.939	12559
919.05	12437
919.161	12426
919.272	12243
919.383	12262
919.494	12441
919.604	12578
919.715	12563
919.826	12372
919.936	12391
920.047	12544
920.157	12475
920.267	12711
920.378	12445
920.488	12528
920.598	12597
920.708	12688
920.818	12608
920.928	12597
921.038	12760
921.148	12753
921.258	12330
921.368	12380
921.477	12228
921.587	12209
921.697	12186
921.806	12144
921.916	12125
922.025	11939
922.134	11859
922.244	11821
922.353	11813
922.462	11748
922.571	11714
922.68	11611
922.789	11528
922.898	11581
923.007	11493
923.116	11554
923.224	11493
923.333	11528
923.442	11379
923.55	11330
923.659	11444
923.767	11452
923.876	11406
923.984	11467
924.092	11284
924.201	11395
924.309	11254
924.417	11368
924.525	11246
924.633	11280
924.741	12285
924.849	11147
924.956	11284
925.064	11033
925.172	11041
925.279	11006
925.387	11113
925.494	11124
925.602	11174
925.709	11132
925.816	10991
925.924	11067
926.031	11086
926.138	10957
926.245	11067
926.352	11018
926.459	11033
926.566	11159
926.673	10934
926.779	10866
926.886	10858
926.993	10748
927.099	10717
927.206	10637
927.312	10615
927.419	10733
927.525	10733
927.631	10744
927.737	10630
927.843	10538
927.95	10512
928.056	10584
928.162	10558
928.267	10656
928.373	11132
928.479	10653
928.585	10443
928.69	10584
928.796	10626
928.901	10455
929.007	10227
929.112	10447
929.218	10386
929.323	10348
929.428	10284
929.533	10451
929.638	10310
929.743	10295
929.848	10375
929.953	10253
930.058	10158
930.163	10101
930.267	10124
930.372	10162
930.477	10067
930.581	10295
930.685	10059
930.79	9918
930.894	9998
930.998	9926
931.103	10082
931.207	9610
931.311	9671
931.415	9603
931.519	9359
931.623	9412
