Data from test_V78500241_658.txt Node
Date: Fri Mar 25 14:38:18 CST 2022
User: usil
Spectrometer: V785-0024
Trigger mode: 0
Integration Time (sec): 4.000000E-1
Scans to average: 1
Nonlinearity correction enabled: false
Boxcar width: 0
Storing dark spectrum: false
XAxis mode: Wavelengths
Number of Pixels in Spectrum: 1024
>>>>>Begin Spectral Data<<<<<
801.071	28059
801.214	27968
801.356	27686
801.499	27481
801.641	27523
801.783	27469
801.926	27424
802.068	27397
802.211	27245
802.353	27329
802.496	27032
802.638	26887
802.78	27047
802.923	26834
803.065	26872
803.208	26864
803.35	27119
803.492	26998
803.635	27017
803.777	26994
803.919	27081
804.061	27367
804.204	27146
804.346	27096
804.488	27165
804.63	27272
804.773	27138
804.915	27340
805.057	27355
805.199	27230
805.341	27477
805.483	27603
805.626	27667
805.768	27652
805.91	27816
806.052	28006
806.194	27873
806.336	28379
806.478	28318
806.62	28318
806.762	28771
806.904	29174
807.046	29764
807.188	29931
807.33	30300
807.472	30951
807.614	31343
807.756	32324
807.898	33264
808.04	34679
808.182	36540
808.324	39108
808.465	41813
808.607	44784
808.749	47558
808.891	49004
809.033	49438
809.174	47733
809.316	45077
809.458	41836
809.6	38712
809.741	36346
809.883	34074
810.025	32838
810.166	31818
810.308	30951
810.45	30631
810.591	30003
810.733	29421
810.875	29200
811.016	28896
811.158	28519
811.299	28561
811.441	28519
811.582	28508
811.724	28059
811.865	28006
812.007	28021
812.148	27747
812.29	27774
812.431	27812
812.573	27831
812.714	27899
812.855	28082
812.997	28261
813.138	28086
813.279	28097
813.421	27926
813.562	27854
813.703	27606
813.845	27507
813.986	27214
814.127	27009
814.268	26880
814.41	26788
814.551	26758
814.692	26967
814.833	26693
814.974	26564
815.115	26670
815.256	26568
815.397	26480
815.539	26499
815.68	26320
815.821	26332
815.962	26286
816.103	26221
816.244	26199
816.385	25947
816.526	26088
816.666	25753
816.807	25662
816.948	25632
817.089	25757
817.23	25521
817.371	25601
817.512	25601
817.653	25506
817.793	25476
817.934	25563
818.075	25571
818.216	25472
818.356	25381
818.497	25381
818.638	25171
818.778	25232
818.919	25175
819.06	25232
819.2	25346
819.341	25479
819.481	25495
819.622	25567
819.762	25613
819.903	25613
820.043	25407
820.184	25487
820.324	25373
820.465	25472
820.605	25384
820.746	25308
820.886	25270
821.026	25225
821.167	25187
821.307	25259
821.447	25263
821.588	25156
821.728	25031
821.868	24772
822.008	24582
822.149	24578
822.289	24498
822.429	24296
822.569	24388
822.709	24361
822.849	23965
822.99	24003
823.13	23939
823.27	24034
823.41	23916
823.55	23672
823.69	23828
823.83	23855
823.97	23790
824.11	23779
824.25	23493
824.389	23634
824.529	23657
824.669	23531
824.809	23653
824.949	23535
825.089	23733
825.228	23630
825.368	23341
825.508	23296
825.648	23452
825.787	23436
825.927	23467
826.067	23337
826.206	23273
826.346	23387
826.485	23421
826.625	23406
826.765	23402
826.904	23326
827.044	23235
827.183	23147
827.323	23014
827.462	23041
827.601	22968
827.741	22942
827.88	22934
828.02	22843
828.159	23003
828.298	22999
828.437	22980
828.577	22816
828.716	23094
828.855	22869
828.994	22828
829.134	22767
829.273	22664
829.412	22668
829.551	22584
829.69	22607
829.829	22725
829.968	22755
830.107	22725
830.246	22626
830.385	22649
830.524	22565
830.663	22557
830.802	22379
830.941	22314
831.08	22325
831.219	22329
831.357	22367
831.496	22611
831.635	22253
831.774	22185
831.913	22306
832.051	22158
832.19	22112
832.329	22261
832.467	22112
832.606	22036
832.744	21953
832.883	22131
833.022	22215
833.16	22409
833.299	22489
833.437	22561
833.576	22599
833.714	22869
833.852	22908
833.991	23056
834.129	23208
834.267	23231
834.406	23056
834.544	22987
834.682	22942
834.821	22797
834.959	22797
835.097	22451
835.235	22618
835.373	22386
835.511	22310
835.65	22044
835.788	22128
835.926	21926
836.064	21770
836.202	21679
836.34	21831
836.478	21915
836.615	21739
836.753	21774
836.891	21884
837.029	21911
837.167	21888
837.305	21652
837.443	21679
837.58	21534
837.718	21564
837.856	21614
837.993	21523
838.131	21633
838.269	21420
838.406	21545
838.544	21420
838.681	21169
838.819	21222
838.956	20982
839.094	20994
839.231	21055
839.369	21180
839.506	21458
839.643	21260
839.781	21146
839.918	20941
840.055	21039
840.193	21051
840.33	21017
840.467	20876
840.604	20960
840.742	21279
840.879	20948
841.016	20895
841.153	20864
841.29	21077
841.427	20998
841.564	21013
841.701	20864
841.838	20963
841.975	20800
842.112	20910
842.249	20811
842.385	20659
842.522	20864
842.659	20781
842.796	20674
842.933	20826
843.069	20811
843.206	20781
843.343	20906
843.479	20864
843.616	20979
843.752	20727
843.889	20819
844.025	20971
844.162	20853
844.298	21066
844.435	21138
844.571	21351
844.708	21762
844.844	21998
844.98	22493
845.117	22942
845.253	23790
845.389	25445
845.525	28866
845.661	34112
845.798	40615
845.934	45450
846.07	47212
846.206	45816
846.342	41611
846.478	35174
846.614	29710
846.75	26024
846.886	23901
847.022	22725
847.158	21918
847.294	21351
847.429	21013
847.565	20849
847.701	20815
847.837	20275
847.972	20081
848.108	20210
848.244	20077
848.379	19769
848.515	19902
848.65	19803
848.786	19757
848.921	19693
849.057	19811
849.192	19757
849.328	19708
849.463	19780
849.598	19685
849.734	19480
849.869	19571
850.004	19384
850.14	19384
850.275	19377
850.41	19209
850.545	19343
850.68	19373
850.815	19411
850.95	19236
851.085	19590
851.22	19419
851.355	19324
851.49	19285
851.625	19320
851.76	19232
851.895	19259
852.03	19274
852.165	19335
852.299	19407
852.434	19392
852.569	19343
852.703	19350
852.838	19464
852.973	19559
853.107	19582
853.242	19304
853.376	19244
853.511	19232
853.645	19266
853.78	19567
853.914	19476
854.048	19476
854.183	19521
854.317	19544
854.451	19852
854.585	19426
854.72	19453
854.854	19655
854.988	19441
855.122	19396
855.256	19297
855.39	19388
855.524	19365
855.658	19331
855.792	19316
855.926	19244
856.06	19255
856.194	19320
856.327	19228
856.461	19164
856.595	19080
856.729	19103
856.862	19282
856.996	19164
857.13	19099
857.263	19278
857.397	19228
857.53	19027
857.664	19168
857.797	19088
857.931	19228
858.064	19297
858.197	19171
858.331	19076
858.464	19000
858.597	18966
858.731	19027
858.864	19107
858.997	18970
859.13	19088
859.263	19034
859.396	19175
859.529	18947
859.662	19004
859.795	19015
859.928	19027
860.061	19084
860.194	19187
860.327	19069
860.46	18977
860.592	19107
860.725	19129
860.858	19050
860.99	18985
861.123	18844
861.256	18894
861.388	18943
861.521	19632
861.653	18772
861.786	18738
861.918	18867
862.05	18932
862.183	19065
862.315	18958
862.447	18973
862.58	18890
862.712	18840
862.844	18627
862.976	18753
863.108	18730
863.24	19038
863.372	18665
863.504	18627
863.636	18677
863.768	18582
863.9	18612
864.032	18502
864.164	18681
864.296	18669
864.428	18711
864.559	18677
864.691	18711
864.823	18711
864.954	18593
865.086	18642
865.217	18570
865.349	18483
865.48	18601
865.612	18486
865.743	18646
865.875	18665
866.006	18555
866.137	18544
866.269	18566
866.4	18631
866.531	18570
866.662	18395
866.793	18528
866.924	18483
867.055	18528
867.186	18452
867.317	18509
867.448	18437
867.579	18509
867.71	18407
867.841	18433
867.972	18479
868.103	18467
868.233	18623
868.364	18574
868.495	18498
868.625	18715
868.756	18814
868.886	18707
869.017	18677
869.147	18962
869.278	18905
869.408	18696
869.539	18654
869.669	18981
869.799	18840
869.929	18833
870.06	18787
870.19	19023
870.32	19065
870.45	19183
870.58	19236
870.71	19346
870.84	19400
870.97	19255
871.1	19194
871.23	19327
871.36	19506
871.489	19228
871.619	19384
871.749	19510
871.879	19491
872.008	19590
872.138	19468
872.267	19480
872.397	19457
872.526	19339
872.656	19392
872.785	19419
872.915	19548
873.044	19677
873.173	19643
873.303	19655
873.432	19723
873.561	19868
873.69	19712
873.819	19731
873.948	19856
874.077	19902
874.206	19826
874.335	19841
874.464	19894
874.593	20195
874.722	20119
874.851	20263
874.979	20240
875.108	20317
875.237	20225
875.365	20252
875.494	20336
875.623	20423
875.751	20560
875.88	20473
876.008	20659
876.136	20731
876.265	20975
876.393	21089
876.521	21176
876.65	21108
876.778	21313
876.906	21207
877.034	21279
877.162	21264
877.29	21367
877.418	21557
877.546	21523
877.674	21652
877.802	21808
877.93	21945
878.058	22044
878.185	22120
878.313	22432
878.441	22801
878.568	23018
878.696	23630
878.824	24308
878.951	25419
879.079	26876
879.206	28717
879.333	30639
879.461	32408
879.588	33325
879.715	33427
879.842	32533
879.97	30886
880.097	28923
880.224	27169
880.351	26206
880.478	25354
880.605	24688
880.732	24525
880.859	24441
880.986	24041
881.112	23965
881.239	23775
881.366	23661
881.493	23615
881.619	23471
881.746	23558
881.872	23463
881.999	23531
882.125	23524
882.252	23710
882.378	23729
882.505	23851
882.631	23623
882.757	23554
882.883	23707
883.01	23539
883.136	23566
883.262	23429
883.388	23360
883.514	23410
883.64	23493
883.766	23463
883.892	23265
884.018	23288
884.143	23417
884.269	23501
884.395	23239
884.52	23197
884.646	23265
884.772	23105
884.897	23010
885.023	23280
885.148	23170
885.274	23341
885.399	23197
885.524	22999
885.65	22816
885.775	22740
885.9	22615
886.025	22565
886.15	22462
886.275	22112
886.4	22036
886.525	21994
886.65	21781
886.775	21751
886.9	21736
887.025	21888
887.149	21435
887.274	21222
887.399	21062
887.523	20937
887.648	20921
887.773	20720
887.897	21024
888.021	20796
888.146	20594
888.27	20727
888.395	20697
888.519	20556
888.643	20526
888.767	20587
888.891	20309
889.015	20275
889.139	20248
889.263	20062
889.387	20252
889.511	20309
889.635	20161
889.759	20001
889.883	19940
890.006	20001
890.13	19951
890.254	19727
890.377	19841
890.501	19643
890.624	19495
890.748	19647
890.871	19403
890.995	19293
891.118	19240
891.241	19411
891.364	19365
891.488	19453
891.611	19209
891.734	19255
891.857	19152
891.98	19190
892.103	19232
892.226	19148
892.349	19000
892.471	18707
892.594	18916
892.717	18951
892.839	18970
892.962	18966
893.085	18844
893.207	18894
893.33	18741
893.452	18711
893.575	18707
893.697	18642
893.819	18901
893.941	18882
894.064	18795
894.186	18661
894.308	18658
894.43	18734
894.552	18760
894.674	18589
894.796	18555
894.918	18452
895.04	18486
895.161	18719
895.283	18540
895.405	18502
895.526	18574
895.648	18441
895.769	18498
895.891	18429
896.012	18513
896.134	18498
896.255	18407
896.376	18429
896.498	18456
896.619	18452
896.74	18342
896.861	18506
896.982	18677
897.103	18844
897.224	18791
897.345	18544
897.466	18547
897.587	18589
897.708	18757
897.828	18601
897.949	18490
898.07	18391
898.19	18437
898.311	18608
898.431	18509
898.552	18479
898.672	18707
898.792	18757
898.913	18540
899.033	18486
899.153	18399
899.273	18266
899.393	18391
899.513	18334
899.633	18308
899.753	18467
899.873	18224
899.993	18376
900.113	18414
900.232	18399
900.352	18281
900.472	18220
900.591	18102
900.711	18174
900.83	18106
900.95	18125
901.069	18254
901.189	18038
901.308	17775
901.427	17771
901.546	17748
901.665	17748
901.784	17687
901.904	17516
902.023	17459
902.141	17231
902.26	17181
902.379	17227
902.498	17174
902.617	17067
902.735	17197
902.854	17189
902.973	17014
903.091	16774
903.21	16862
903.328	16763
903.446	16645
903.565	16683
903.683	16615
903.801	16405
903.919	16634
904.038	16649
904.156	16417
904.274	16470
904.392	16314
904.51	16306
904.627	16356
904.745	16371
904.863	16421
904.981	16051
905.098	15911
905.216	16055
905.334	15987
905.451	16010
905.569	15979
905.686	15987
905.803	15922
905.921	15728
906.038	15793
906.155	15743
906.272	15595
906.389	15694
906.506	15466
906.623	15526
906.74	15488
906.857	15492
906.974	15435
907.091	15557
907.208	15641
907.324	15542
907.441	15416
907.557	15161
907.674	15252
907.79	15150
907.907	15146
908.023	15272
908.139	15108
908.256	15157
908.372	15108
908.488	15074
908.604	14880
908.72	14956
908.836	14899
908.952	14918
909.068	14948
909.184	14960
909.3	15005
909.415	15039
909.531	14788
909.647	14693
909.762	14644
909.878	14545
909.993	14648
910.108	14640
910.224	14587
910.339	14598
910.454	14552
910.57	14423
910.685	14355
910.8	14587
910.915	14545
911.03	14377
911.145	14275
911.259	14134
911.374	14161
911.489	14233
911.604	14123
911.718	13967
911.833	14084
911.947	13890
912.062	13928
912.176	13978
912.291	13944
912.405	13959
912.519	14157
912.633	14126
912.748	14035
912.862	13902
912.976	13814
913.09	13666
913.204	13742
913.318	13845
913.431	13947
913.545	13856
913.659	13917
913.772	13822
913.886	13647
914	13655
914.113	13715
914.226	13837
914.34	13757
914.453	13674
914.566	13658
914.68	13563
914.793	13578
914.906	13377
915.019	13346
915.132	13354
915.245	13464
915.358	13407
915.47	13430
915.583	13324
915.696	13464
915.809	13491
915.921	13563
916.034	13282
916.146	13259
916.259	13331
916.371	13483
916.483	13335
916.595	13343
916.708	13244
916.82	13384
916.932	13263
917.044	13152
917.156	13282
917.268	13149
917.38	13042
917.491	13202
917.603	13168
917.715	13194
917.826	13164
917.938	13053
918.049	12935
918.161	13023
918.272	13137
918.384	13103
918.495	12996
918.606	12947
918.717	12734
918.828	12886
918.939	12787
919.05	12760
919.161	12871
919.272	12616
919.383	12768
919.494	12905
919.604	13000
919.715	12787
919.826	12692
919.936	12806
920.047	12901
920.157	12837
920.267	12981
920.378	12837
920.488	12795
920.598	13004
920.708	13069
920.818	12920
920.928	12867
921.038	13069
921.148	13004
921.258	12829
921.368	12669
921.477	12669
921.587	12608
921.697	12490
921.806	12612
921.916	12399
922.025	12159
922.134	12285
922.244	12220
922.353	12266
922.462	12079
922.571	11977
922.68	11954
922.789	11885
922.898	11866
923.007	11840
923.116	11847
923.224	11904
923.333	11882
923.442	11718
923.55	11672
923.659	11642
923.767	11809
923.876	11688
923.984	11756
924.092	11634
924.201	11703
924.309	11733
924.417	11600
924.525	11623
924.633	11627
924.741	12311
924.849	11337
924.956	11547
925.064	11398
925.172	11341
925.279	11326
925.387	11341
925.494	11341
925.602	11486
925.709	11444
925.816	11334
925.924	11330
926.031	11512
926.138	11414
926.245	11440
926.352	11345
926.459	11376
926.566	11448
926.673	11201
926.779	11273
926.886	11212
926.993	10972
927.099	11003
927.206	11010
927.312	10980
927.419	11003
927.525	10995
927.631	11098
927.737	10934
927.843	10904
927.95	10752
928.056	10809
928.162	10847
928.267	10949
928.373	11436
928.479	10984
928.585	10740
928.69	10835
928.796	10835
928.901	10744
929.007	10622
929.112	10767
929.218	10702
929.323	10717
929.428	10535
929.533	10774
929.638	10535
929.743	10637
929.848	10641
929.953	10622
930.058	10462
930.163	10363
930.267	10314
930.372	10497
930.477	10371
930.581	10459
930.685	10413
930.79	10268
930.894	10310
930.998	10249
931.103	10424
931.207	10074
931.311	9956
931.415	9873
931.519	9694
931.623	9663
