Data from test_V78500241_3475.txt Node
Date: Fri Mar 25 14:57:54 CST 2022
User: usil
Spectrometer: V785-0024
Trigger mode: 0
Integration Time (sec): 4.000000E-1
Scans to average: 1
Nonlinearity correction enabled: false
Boxcar width: 0
Storing dark spectrum: false
XAxis mode: Wavelengths
Number of Pixels in Spectrum: 1024
>>>>>Begin Spectral Data<<<<<
801.071	21956
801.214	21736
801.356	21553
801.499	21500
801.641	21344
801.783	21249
801.926	21321
802.068	21195
802.211	21211
802.353	20994
802.496	20750
802.638	20807
802.78	20640
802.923	20617
803.065	20571
803.208	20499
803.35	20617
803.492	20826
803.635	20731
803.777	20522
803.919	20571
804.061	21066
804.204	20636
804.346	20560
804.488	20442
804.63	20625
804.773	20465
804.915	20594
805.057	20598
805.199	20522
805.341	20575
805.483	20651
805.626	20446
805.768	20450
805.91	20522
806.052	20533
806.194	20473
806.336	20636
806.478	20374
806.62	20511
806.762	20629
806.904	20731
807.046	20891
807.188	20804
807.33	20906
807.472	20804
807.614	20701
807.756	20750
807.898	20712
808.04	20495
808.182	20465
808.324	20530
808.465	20636
808.607	20781
808.749	20811
808.891	20902
809.033	20899
809.174	20971
809.316	20872
809.458	20986
809.6	20883
809.741	20960
809.883	20819
810.025	21032
810.166	21062
810.308	20921
810.45	21005
810.591	20891
810.733	20564
810.875	20727
811.016	20549
811.158	20556
811.299	20602
811.441	20785
811.582	20674
811.724	20587
811.865	20587
812.007	20617
812.148	20598
812.29	20613
812.431	20750
812.573	20948
812.714	20921
812.855	21131
812.997	21222
813.138	21351
813.279	21135
813.421	21176
813.562	21093
813.703	20807
813.845	20796
813.986	20503
814.127	20396
814.268	20263
814.41	20180
814.551	20084
814.692	20001
814.833	20092
814.974	20005
815.115	20126
815.256	20039
815.397	20016
815.539	19959
815.68	19879
815.821	19864
815.962	19845
816.103	19875
816.244	19655
816.385	19597
816.526	19476
816.666	19403
816.807	19320
816.948	19369
817.089	19472
817.23	19365
817.371	19285
817.512	19228
817.653	19168
817.793	19206
817.934	19285
818.075	19339
818.216	19266
818.356	19297
818.497	19141
818.638	18993
818.778	19050
818.919	18977
819.06	19031
819.2	19107
819.341	19164
819.481	19103
819.622	19369
819.762	19521
819.903	19483
820.043	19350
820.184	19327
820.324	19244
820.465	19270
820.605	19346
820.746	19247
820.886	19107
821.026	19259
821.167	19251
821.307	19263
821.447	19206
821.588	19118
821.728	18920
821.868	18947
822.008	18677
822.149	18639
822.289	18688
822.429	18426
822.569	18296
822.709	18388
822.849	18186
822.99	18239
823.13	18155
823.27	18171
823.41	18041
823.55	17942
823.69	17973
823.83	18038
823.97	17939
824.11	17863
824.25	17786
824.389	17680
824.529	17794
824.669	17687
824.809	17874
824.949	17836
825.089	17737
825.228	17775
825.368	17577
825.508	17570
825.648	17608
825.787	17623
825.927	17551
826.067	17516
826.206	17539
826.346	17528
826.485	17547
826.625	17406
826.765	17653
826.904	17448
827.044	17364
827.183	17269
827.323	17124
827.462	17258
827.601	17227
827.741	17181
827.88	17258
828.02	17105
828.159	17208
828.298	17280
828.437	17273
828.577	17064
828.716	17398
828.855	17223
828.994	17003
829.134	16938
829.273	17025
829.412	16896
829.551	16980
829.69	16942
829.829	16965
829.968	17159
830.107	17048
830.246	17060
830.385	16972
830.524	16896
830.663	16759
830.802	16717
830.941	16550
831.08	16565
831.219	16664
831.357	16683
831.496	16847
831.635	16653
831.774	16561
831.913	16356
832.051	16531
832.19	16394
832.329	16538
832.467	16344
832.606	16215
832.744	16295
832.883	16356
833.022	16337
833.16	16390
833.299	16341
833.437	16379
833.576	16348
833.714	16421
833.852	16375
833.991	16272
834.129	16367
834.267	16470
834.406	16405
834.544	16436
834.682	16440
834.821	16493
834.959	16622
835.097	16303
835.235	16470
835.373	16394
835.511	16402
835.65	16333
835.788	16276
835.926	16261
836.064	16166
836.202	16154
836.34	16360
836.478	16386
836.615	16314
836.753	16291
836.891	16421
837.029	16219
837.167	16306
837.305	16196
837.443	16124
837.58	16219
837.718	16226
837.856	16177
837.993	16173
838.131	16242
838.269	16067
838.406	16101
838.544	16071
838.681	15895
838.819	15842
838.956	15724
839.094	15713
839.231	15911
839.369	15884
839.506	16120
839.643	15998
839.781	15720
839.918	15682
840.055	15720
840.193	15724
840.33	15671
840.467	15660
840.604	15789
840.742	15994
840.879	15568
841.016	15644
841.153	15580
841.29	15797
841.427	15713
841.564	15679
841.701	15690
841.838	15743
841.975	15610
842.112	15663
842.249	15530
842.385	15473
842.522	15785
842.659	15538
842.796	15435
842.933	15462
843.069	15389
843.206	15496
843.343	15549
843.479	15553
843.616	15603
843.752	15298
843.889	15237
844.025	15420
844.162	15211
844.298	15469
844.435	15256
844.571	15325
844.708	15370
844.844	15439
844.98	15370
845.117	15435
845.253	15287
845.389	15138
845.525	15264
845.661	15161
845.798	15157
845.934	15161
846.07	15028
846.206	15180
846.342	15203
846.478	15116
846.614	14845
846.75	14845
846.886	14834
847.022	14975
847.158	14990
847.294	14918
847.429	14910
847.565	14845
847.701	15093
847.837	14735
847.972	14651
848.108	14712
848.244	14788
848.379	14556
848.515	14446
848.65	14476
848.786	14507
848.921	14541
849.057	14632
849.192	14625
849.328	14568
849.463	14537
849.598	14461
849.734	14408
849.869	14442
850.004	14351
850.14	14358
850.275	14294
850.41	14191
850.545	14244
850.68	14309
850.815	14366
850.95	14286
851.085	14530
851.22	14404
851.355	14320
851.49	14240
851.625	14282
851.76	14172
851.895	14142
852.03	14153
852.165	14187
852.299	14294
852.434	14324
852.569	14294
852.703	14278
852.838	14442
852.973	14522
853.107	14389
853.242	14313
853.376	14237
853.511	14016
853.645	14130
853.78	14206
853.914	14168
854.048	14164
854.183	14107
854.317	14100
854.451	14187
854.585	14145
854.72	14142
854.854	14206
854.988	14138
855.122	14115
855.256	13974
855.39	14206
855.524	14183
855.658	14256
855.792	14145
855.926	14244
856.06	14221
856.194	14126
856.327	14199
856.461	14027
856.595	14043
856.729	14084
856.862	14267
856.996	14214
857.13	14225
857.263	14263
857.397	14221
857.53	14157
857.664	14221
857.797	14115
857.931	14294
858.064	14218
858.197	14309
858.331	14187
858.464	14077
858.597	14058
858.731	14096
858.864	14195
858.997	14191
859.13	14199
859.263	14210
859.396	14142
859.529	14084
859.662	14172
859.795	14107
859.928	14286
860.061	14358
860.194	14450
860.327	14172
860.46	14149
860.592	14313
860.725	14351
860.858	14263
860.99	14107
861.123	13997
861.256	14031
861.388	14077
861.521	14872
861.653	14069
861.786	13993
861.918	14050
862.05	14149
862.183	14088
862.315	14092
862.447	14172
862.58	14119
862.712	13894
862.844	13974
862.976	14031
863.108	14016
863.24	14427
863.372	13833
863.504	13963
863.636	13879
863.768	13959
863.9	13894
864.032	13921
864.164	13890
864.296	13921
864.428	14092
864.559	14012
864.691	14077
864.823	13963
864.954	13982
865.086	13947
865.217	13894
865.349	13852
865.48	13913
865.612	13913
865.743	14126
865.875	13917
866.006	13837
866.137	13917
866.269	13883
866.4	13955
866.531	13845
866.662	13860
866.793	13818
866.924	13928
867.055	13982
867.186	13925
867.317	13852
867.448	13799
867.579	13803
867.71	13925
867.841	13841
867.972	13932
868.103	13894
868.233	13986
868.364	13936
868.495	13944
868.625	14225
868.756	14237
868.886	14096
869.017	14183
869.147	14256
869.278	14225
869.408	14225
869.539	14172
869.669	14294
869.799	14233
869.929	14237
870.06	14263
870.19	14545
870.32	14450
870.45	14507
870.58	14640
870.71	14686
870.84	14701
870.97	14575
871.1	14610
871.23	14712
871.36	14727
871.489	14663
871.619	14621
871.749	14735
871.879	14781
872.008	14857
872.138	14705
872.267	14796
872.397	14663
872.526	14522
872.656	14492
872.785	14663
872.915	14701
873.044	14842
873.173	14849
873.303	14743
873.432	14762
873.561	14845
873.69	14883
873.819	14826
873.948	14921
874.077	14842
874.206	14788
874.335	14819
874.464	14986
874.593	15146
874.722	15066
874.851	15154
874.979	15188
875.108	15207
875.237	15165
875.365	15005
875.494	15070
875.623	15211
875.751	15116
875.88	15138
876.008	15252
876.136	15329
876.265	15511
876.393	15705
876.521	15652
876.65	15705
876.778	15530
876.906	15481
877.034	15507
877.162	15492
877.29	15500
877.418	15553
877.546	15549
877.674	15587
877.802	15511
877.93	15534
878.058	15561
878.185	15458
878.313	15412
878.441	15599
878.568	15553
878.696	15511
878.824	15625
878.951	15568
879.079	15694
879.206	15797
879.333	15709
879.461	15675
879.588	15652
879.715	15633
879.842	15762
879.97	15682
880.097	15389
880.224	15511
880.351	15469
880.478	15469
880.605	15329
880.732	15389
880.859	15591
880.986	15450
881.112	15485
881.239	15351
881.366	15142
881.493	15173
881.619	15058
881.746	15024
881.872	14994
881.999	15097
882.125	14994
882.252	15226
882.378	15024
882.505	15203
882.631	14998
882.757	14853
882.883	14971
883.01	14864
883.136	14956
883.262	14800
883.388	14804
883.514	14975
883.64	14834
883.766	14838
883.892	14735
884.018	14705
884.143	14880
884.269	14941
884.395	14632
884.52	14598
884.646	14640
884.772	14469
884.897	14522
885.023	14530
885.148	14712
885.274	14815
885.399	14705
885.524	14610
885.65	14511
885.775	14663
885.9	14530
886.025	14785
886.15	14594
886.275	14606
886.4	14507
886.525	14518
886.65	14473
886.775	14518
886.9	14610
887.025	14868
887.149	14533
887.274	14518
887.399	14381
887.523	14454
887.648	14370
887.773	14286
887.897	14476
888.021	14518
888.146	14366
888.27	14495
888.395	14583
888.519	14602
888.643	14457
888.767	14526
888.891	14381
889.015	14244
889.139	14415
889.263	14202
889.387	14423
889.511	14606
889.635	14320
889.759	14240
889.883	14275
890.006	14309
890.13	14434
890.254	14233
890.377	14221
890.501	14073
890.624	14134
890.748	14187
890.871	13989
890.995	13936
891.118	13906
891.241	13925
891.364	13993
891.488	14062
891.611	13936
891.734	14024
891.857	14024
891.98	13978
892.103	14145
892.226	14012
892.349	13978
892.471	13826
892.594	13940
892.717	14081
892.839	13906
892.962	13970
893.085	14039
893.207	14043
893.33	13909
893.452	13928
893.575	13967
893.697	14020
893.819	14149
893.941	14199
894.064	14138
894.186	14005
894.308	14012
894.43	14130
894.552	14168
894.674	14092
894.796	13909
894.918	13909
895.04	13978
895.161	14073
895.283	14069
895.405	14088
895.526	14157
895.648	14126
895.769	14123
895.891	14218
896.012	14210
896.134	14161
896.255	14221
896.376	14134
896.498	14123
896.619	14221
896.74	14183
896.861	14191
896.982	14533
897.103	14625
897.224	14492
897.345	14355
897.466	14252
897.587	14415
897.708	14549
897.828	14434
897.949	14469
898.07	14240
898.19	14393
898.311	14568
898.431	14552
898.552	14526
898.672	14571
898.792	14568
898.913	14549
899.033	14427
899.153	14320
899.273	14358
899.393	14328
899.513	14309
899.633	14328
899.753	14389
899.873	14271
899.993	14415
900.113	14328
900.232	14393
900.352	14290
900.472	14271
900.591	14183
900.711	14290
900.83	14123
900.95	14275
901.069	14282
901.189	14142
901.308	13982
901.427	13833
901.546	13795
901.665	13894
901.784	13906
901.904	13818
902.023	13746
902.141	13601
902.26	13521
902.379	13552
902.498	13369
902.617	13384
902.735	13544
902.854	13487
902.973	13480
903.091	13293
903.21	13228
903.328	13179
903.446	13190
903.565	13122
903.683	13050
903.801	12924
903.919	13065
904.038	13110
904.156	12882
904.274	12905
904.392	12894
904.51	12821
904.627	12867
904.745	12920
904.863	12951
904.981	12631
905.098	12559
905.216	12521
905.334	12578
905.451	12608
905.569	12517
905.686	12540
905.803	12650
905.921	12475
906.038	12494
906.155	12403
906.272	12323
906.389	12380
906.506	12190
906.623	12114
906.74	12133
906.857	11980
906.974	12083
907.091	12235
907.208	12289
907.324	12121
907.441	12015
907.557	11961
907.674	11931
907.79	11813
907.907	11874
908.023	11836
908.139	11935
908.256	11874
908.372	11817
908.488	11798
908.604	11665
908.72	11642
908.836	11707
908.952	11592
909.068	11680
909.184	11836
909.3	11745
909.415	11733
909.531	11722
909.647	11501
909.762	11410
909.878	11383
909.993	11425
910.108	11417
910.224	11448
910.339	11337
910.454	11334
910.57	11258
910.685	11254
910.8	11547
910.915	11425
911.03	11269
911.145	11162
911.259	11181
911.374	11128
911.489	11079
911.604	10965
911.718	10976
911.833	10877
911.947	10740
912.062	10725
912.176	10805
912.291	10953
912.405	10835
912.519	11151
912.633	11102
912.748	11003
912.862	10881
912.976	10889
913.09	10755
913.204	10778
913.318	10831
913.431	10904
913.545	10908
913.659	10839
913.772	10717
913.886	10729
914	10592
914.113	10710
914.226	10767
914.34	10790
914.453	10679
914.566	10771
914.68	10634
914.793	10577
914.906	10474
915.019	10417
915.132	10322
915.245	10382
915.358	10394
915.47	10413
915.583	10428
915.696	10478
915.809	10500
915.921	10622
916.034	10451
916.146	10402
916.259	10333
916.371	10348
916.483	10398
916.595	10352
916.708	10337
916.82	10398
916.932	10215
917.044	10223
917.156	10299
917.268	10272
917.38	10207
917.491	10242
917.603	10207
917.715	10329
917.826	10337
917.938	10215
918.049	10177
918.161	10200
918.272	10341
918.384	10329
918.495	10249
918.606	10124
918.717	10116
918.828	10162
918.939	10082
919.05	9979
919.161	10059
919.272	9975
919.383	10059
919.494	10242
919.604	10314
919.715	10154
919.826	10006
919.936	10051
920.047	10223
920.157	10158
920.267	10337
920.378	10207
920.488	10067
920.598	10371
920.708	10538
920.818	10325
920.928	10325
921.038	10413
921.148	10363
921.258	10200
921.368	10143
921.477	10036
921.587	9972
921.697	9956
921.806	10048
921.916	9835
922.025	9724
922.134	9759
922.244	9633
922.353	9728
922.462	9584
922.571	9526
922.68	9401
922.789	9370
922.898	9466
923.007	9302
923.116	9561
923.224	9401
923.333	9355
923.442	9283
923.55	9264
923.659	9317
923.767	9275
923.876	9245
923.984	9412
924.092	9218
924.201	9294
924.309	9256
924.417	9294
924.525	9157
924.633	9154
924.741	10131
924.849	9081
924.956	9169
925.064	9074
925.172	8956
925.279	9028
925.387	9043
925.494	9097
925.602	9237
925.709	9119
925.816	9013
925.924	9119
926.031	9062
926.138	9032
926.245	9066
926.352	8956
926.459	9123
926.566	9157
926.673	9051
926.779	8979
926.886	8880
926.993	8800
927.099	8750
927.206	8678
927.312	8788
927.419	8902
927.525	8788
927.631	8807
927.737	8701
927.843	8739
927.95	8541
928.056	8720
928.162	8739
928.267	8644
928.373	9313
928.479	8807
928.585	8503
928.69	8606
928.796	8712
928.901	8545
929.007	8480
929.112	8549
929.218	8556
929.323	8488
929.428	8473
929.533	8625
929.638	8431
929.743	8415
929.848	8511
929.953	8454
930.058	8400
930.163	8191
930.267	8275
930.372	8355
930.477	8256
930.581	8438
930.685	8256
930.79	8210
930.894	8187
930.998	8172
931.103	8362
931.207	7967
931.311	7906
931.415	7803
931.519	7715
931.623	7643
