Data from test_V78500241_2007.txt Node
Date: Fri Mar 25 14:47:41 CST 2022
User: usil
Spectrometer: V785-0024
Trigger mode: 0
Integration Time (sec): 4.000000E-1
Scans to average: 1
Nonlinearity correction enabled: false
Boxcar width: 0
Storing dark spectrum: false
XAxis mode: Wavelengths
Number of Pixels in Spectrum: 1024
>>>>>Begin Spectral Data<<<<<
801.071	22006
801.214	22215
801.356	21709
801.499	21614
801.641	21561
801.783	21443
801.926	21534
802.068	21504
802.211	21477
802.353	21268
802.496	21058
802.638	21013
802.78	21020
802.923	20838
803.065	20849
803.208	20853
803.35	20788
803.492	20921
803.635	20906
803.777	20792
803.919	21013
804.061	21165
804.204	20914
804.346	20708
804.488	20754
804.63	20819
804.773	20583
804.915	20750
805.057	20853
805.199	20773
805.341	20834
805.483	20773
805.626	20765
805.768	20773
805.91	20667
806.052	20743
806.194	20682
806.336	20910
806.478	20678
806.62	20606
806.762	20754
806.904	20842
807.046	21108
807.188	21089
807.33	21001
807.472	21058
807.614	20868
807.756	20921
807.898	20804
808.04	20640
808.182	20701
808.324	20925
808.465	20861
808.607	21036
808.749	21100
808.891	21291
809.033	21264
809.174	21116
809.316	21074
809.458	21131
809.6	21093
809.741	21241
809.883	21138
810.025	21275
810.166	21275
810.308	21233
810.45	21085
810.591	21009
810.733	20910
810.875	20902
811.016	20743
811.158	20788
811.299	20963
811.441	21017
811.582	20933
811.724	20868
811.865	20830
812.007	20807
812.148	20933
812.29	20895
812.431	21017
812.573	21104
812.714	21260
812.855	21386
812.997	21523
813.138	21637
813.279	21416
813.421	21283
813.562	21294
813.703	21154
813.845	21077
813.986	20648
814.127	20545
814.268	20621
814.41	20537
814.551	20442
814.692	20442
814.833	20320
814.974	20301
815.115	20355
815.256	20157
815.397	20164
815.539	20305
815.68	20107
815.821	20119
815.962	20259
816.103	20206
816.244	19997
816.385	19932
816.526	19852
816.666	19677
816.807	19590
816.948	19742
817.089	19772
817.23	19567
817.371	19540
817.512	19491
817.653	19502
817.793	19396
817.934	19559
818.075	19556
818.216	19571
818.356	19483
818.497	19362
818.638	19217
818.778	19255
818.919	19145
819.06	19312
819.2	19384
819.341	19350
819.481	19472
819.622	19605
819.762	19746
819.903	19696
820.043	19685
820.184	19533
820.324	19693
820.465	19533
820.605	19556
820.746	19521
820.886	19384
821.026	19411
821.167	19491
821.307	19616
821.447	19506
821.588	19476
821.728	19335
821.868	19160
822.008	18951
822.149	18954
822.289	19419
822.429	18631
822.569	18612
822.709	18684
822.849	18589
822.99	18441
823.13	18403
823.27	18372
823.41	18327
823.55	18285
823.69	18247
823.83	18247
823.97	18239
824.11	18110
824.25	18022
824.389	17958
824.529	18026
824.669	18057
824.809	18117
824.949	18041
825.089	18129
825.228	18019
825.368	17756
825.508	17805
825.648	17893
825.787	17859
825.927	17908
826.067	17809
826.206	17710
826.346	17859
826.485	17901
826.625	17821
826.765	17920
826.904	17859
827.044	17577
827.183	17581
827.323	17528
827.462	17585
827.601	17532
827.741	17459
827.88	17505
828.02	17334
828.159	17471
828.298	17570
828.437	17554
828.577	17372
828.716	17703
828.855	17516
828.994	17254
829.134	17204
829.273	17330
829.412	17231
829.551	17258
829.69	17166
829.829	17299
829.968	17448
830.107	17311
830.246	17395
830.385	17185
830.524	17181
830.663	17189
830.802	17022
830.941	16938
831.08	16763
831.219	16919
831.357	17003
831.496	17128
831.635	16927
831.774	16847
831.913	16858
832.051	16664
832.19	16649
832.329	16691
832.467	16542
832.606	16478
832.744	16577
832.883	16558
833.022	16622
833.16	16675
833.299	16733
833.437	16615
833.576	16584
833.714	16683
833.852	16672
833.991	16584
834.129	16748
834.267	16805
834.406	16774
834.544	16588
834.682	16653
834.821	16664
834.959	16816
835.097	16626
835.235	16809
835.373	16535
835.511	16630
835.65	16569
835.788	16550
835.926	16394
836.064	16329
836.202	16417
836.34	16538
836.478	16637
836.615	16519
836.753	16573
836.891	16645
837.029	16577
837.167	16512
837.305	16485
837.443	16443
837.58	16310
837.718	16508
837.856	16451
837.993	16402
838.131	16451
838.269	16303
838.406	16299
838.544	16181
838.681	16055
838.819	16086
838.956	15922
839.094	16059
839.231	16029
839.369	16055
839.506	16352
839.643	16169
839.781	16013
839.918	15945
840.055	15998
840.193	15956
840.33	15865
840.467	16040
840.604	15987
840.742	16230
840.879	15861
841.016	15941
841.153	15979
841.29	15987
841.427	15922
841.564	15930
841.701	15975
841.838	15994
841.975	15888
842.112	15804
842.249	15743
842.385	15778
842.522	15968
842.659	15850
842.796	15717
842.933	15766
843.069	15682
843.206	15774
843.343	15774
843.479	15793
843.616	15739
843.752	15572
843.889	15526
844.025	15709
844.162	15568
844.298	15614
844.435	15526
844.571	15523
844.708	15553
844.844	15739
844.98	15622
845.117	15652
845.253	15523
845.389	15412
845.525	15447
845.661	15424
845.798	15268
845.934	15504
846.07	15329
846.206	15382
846.342	15454
846.478	15408
846.614	15119
846.75	15142
846.886	15108
847.022	15173
847.158	15127
847.294	15161
847.429	15146
847.565	15108
847.701	15325
847.837	14773
847.972	14861
848.108	14933
848.244	14872
848.379	14750
848.515	14636
848.65	14667
848.786	14693
848.921	14640
849.057	14823
849.192	14785
849.328	14762
849.463	14781
849.598	14705
849.734	14606
849.869	14617
850.004	14415
850.14	14518
850.275	14457
850.41	14393
850.545	14412
850.68	14484
850.815	14431
850.95	14522
851.085	14720
851.22	14590
851.355	14473
851.49	14446
851.625	14442
851.76	14526
851.895	14389
852.03	14362
852.165	14431
852.299	14446
852.434	14583
852.569	14461
852.703	14636
852.838	14541
852.973	14663
853.107	14743
853.242	14427
853.376	14339
853.511	14240
853.645	14336
853.78	14450
853.914	14381
854.048	14339
854.183	14290
854.317	14415
854.451	14522
854.585	14362
854.72	14336
854.854	14419
854.988	14271
855.122	14271
855.256	14138
855.39	14309
855.524	14495
855.658	14396
855.792	14370
855.926	14370
856.06	14343
856.194	14328
856.327	14259
856.461	14396
856.595	14347
856.729	14339
856.862	14484
856.996	14450
857.13	14431
857.263	14374
857.397	14457
857.53	14347
857.664	14465
857.797	14495
857.931	14495
858.064	14324
858.197	14507
858.331	14351
858.464	14313
858.597	14240
858.731	14309
858.864	14419
858.997	14275
859.13	14290
859.263	14393
859.396	14461
859.529	14324
859.662	14313
859.795	14362
859.928	14301
860.061	14568
860.194	14556
860.327	14317
860.46	14290
860.592	14476
860.725	14438
860.858	14351
860.99	14263
861.123	14229
861.256	14404
861.388	14332
861.521	14952
861.653	14221
861.786	14161
861.918	14145
862.05	14267
862.183	14248
862.315	14320
862.447	14332
862.58	14381
862.712	14126
862.844	14126
862.976	14221
863.108	14111
863.24	14461
863.372	14092
863.504	14035
863.636	14149
863.768	14218
863.9	14092
864.032	14096
864.164	14027
864.296	14130
864.428	14259
864.559	14218
864.691	14172
864.823	14145
864.954	14123
865.086	14111
865.217	14096
865.349	14016
865.48	14050
865.612	14126
865.743	14248
865.875	14172
866.006	14096
866.137	14123
866.269	14195
866.4	14096
866.531	14077
866.662	14027
866.793	14012
866.924	14084
867.055	14100
867.186	14115
867.317	13989
867.448	14073
867.579	14081
867.71	14069
867.841	14024
867.972	14020
868.103	14107
868.233	14115
868.364	14103
868.495	14161
868.625	14202
868.756	14492
868.886	14313
869.017	14343
869.147	14419
869.278	14495
869.408	14461
869.539	14328
869.669	14450
869.799	14389
869.929	14499
870.06	14454
870.19	14670
870.32	14651
870.45	14689
870.58	14712
870.71	14796
870.84	14750
870.97	14796
871.1	14727
871.23	14967
871.36	14944
871.489	14853
871.619	14861
871.749	14880
871.879	15009
872.008	14994
872.138	15036
872.267	14925
872.397	14800
872.526	14895
872.656	14746
872.785	14853
872.915	15032
873.044	15043
873.173	15013
873.303	15089
873.432	15089
873.561	14986
873.69	15112
873.819	15036
873.948	15024
874.077	15020
874.206	15020
874.335	15020
874.464	15169
874.593	15260
874.722	15310
874.851	15393
874.979	15412
875.108	15302
875.237	15329
875.365	15310
875.494	15249
875.623	15420
875.751	15302
875.88	15287
876.008	15439
876.136	15591
876.265	15656
876.393	15873
876.521	15739
876.65	15865
876.778	15751
876.906	15663
877.034	15648
877.162	15679
877.29	15705
877.418	15679
877.546	15785
877.674	15739
877.802	15797
877.93	15785
878.058	15774
878.185	15568
878.313	15785
878.441	15705
878.568	15564
878.696	15599
878.824	15827
878.951	15743
879.079	15857
879.206	16032
879.333	15960
879.461	15720
879.588	15869
879.715	15892
879.842	15987
879.97	15720
880.097	15515
880.224	15690
880.351	15492
880.478	15542
880.605	15496
880.732	15523
880.859	15835
880.986	15622
881.112	15526
881.239	15428
881.366	15313
881.493	15241
881.619	15287
881.746	15313
881.872	15283
881.999	15249
882.125	15222
882.252	15287
882.378	15169
882.505	15370
882.631	15188
882.757	14990
882.883	15032
883.01	15100
883.136	14952
883.262	15001
883.388	14883
883.514	15093
883.64	15039
883.766	15077
883.892	14899
884.018	14891
884.143	15028
884.269	15150
884.395	14735
884.52	14872
884.646	14758
884.772	14682
884.897	14762
885.023	14823
885.148	14788
885.274	14876
885.399	14845
885.524	14788
885.65	14765
885.775	14663
885.9	14697
886.025	14910
886.15	14906
886.275	14708
886.4	14727
886.525	14686
886.65	14636
886.775	14670
886.9	14910
887.025	14933
887.149	14762
887.274	14533
887.399	14560
887.523	14541
887.648	14571
887.773	14549
887.897	14533
888.021	14602
888.146	14495
888.27	14617
888.395	14731
888.519	14667
888.643	14636
888.767	14610
888.891	14499
889.015	14431
889.139	14518
889.263	14385
889.387	14503
889.511	14556
889.635	14590
889.759	14457
889.883	14465
890.006	14492
890.13	14514
890.254	14374
890.377	14343
890.501	14290
890.624	14134
890.748	14290
890.871	14240
890.995	14115
891.118	14031
891.241	14149
891.364	14168
891.488	14286
891.611	14180
891.734	14195
891.857	14271
891.98	14202
892.103	14237
892.226	14153
892.349	14187
892.471	14054
892.594	14172
892.717	14134
892.839	14161
892.962	14134
893.085	14195
893.207	14176
893.33	14012
893.452	14096
893.575	14126
893.697	14088
893.819	14332
893.941	14389
894.064	14271
894.186	14123
894.308	14084
894.43	14282
894.552	14263
894.674	14324
894.796	14153
894.918	14145
895.04	14202
895.161	14294
895.283	14294
895.405	14187
895.526	14237
895.648	14256
895.769	14248
895.891	14240
896.012	14324
896.134	14271
896.255	14259
896.376	14286
896.498	14324
896.619	14301
896.74	14339
896.861	14377
896.982	14716
897.103	14727
897.224	14590
897.345	14457
897.466	14499
897.587	14556
897.708	14701
897.828	14579
897.949	14526
898.07	14423
898.19	14575
898.311	14640
898.431	14621
898.552	14598
898.672	14724
898.792	14632
898.913	14674
899.033	14568
899.153	14564
899.273	14400
899.393	14541
899.513	14568
899.633	14503
899.753	14579
899.873	14537
899.993	14594
900.113	14499
900.232	14533
900.352	14442
900.472	14423
900.591	14332
900.711	14362
900.83	14408
900.95	14450
901.069	14549
901.189	14317
901.308	14142
901.427	14077
901.546	14062
901.665	14157
901.784	14077
901.904	13894
902.023	13856
902.141	13693
902.26	13586
902.379	13693
902.498	13582
902.617	13609
902.735	13655
902.854	13605
902.973	13468
903.091	13369
903.21	13312
903.328	13343
903.446	13358
903.565	13183
903.683	13213
903.801	13069
903.919	13088
904.038	13152
904.156	13008
904.274	13023
904.392	12977
904.51	12996
904.627	12951
904.745	13015
904.863	13091
904.981	12749
905.098	12730
905.216	12707
905.334	12703
905.451	12730
905.569	12673
905.686	12753
905.803	12779
905.921	12509
906.038	12692
906.155	12532
906.272	12486
906.389	12395
906.506	12300
906.623	12330
906.74	12281
906.857	12087
906.974	12220
907.091	12376
907.208	12422
907.324	12311
907.441	12186
907.557	12091
907.674	11999
907.79	12003
907.907	12026
908.023	12098
908.139	11999
908.256	11969
908.372	11939
908.488	11958
908.604	11813
908.72	11790
908.836	11802
908.952	11767
909.068	11775
909.184	11889
909.3	11798
909.415	11798
909.531	11843
909.647	11566
909.762	11547
909.878	11562
909.993	11600
910.108	11554
910.224	11516
910.339	11524
910.454	11482
910.57	11395
910.685	11406
910.8	11661
910.915	11543
911.03	11410
911.145	11261
911.259	11258
911.374	11265
911.489	11105
911.604	11109
911.718	10961
911.833	11014
911.947	10885
912.062	10892
912.176	11048
912.291	10999
912.405	10930
912.519	11216
912.633	11254
912.748	11045
912.862	10965
912.976	10949
913.09	10801
913.204	10877
913.318	10911
913.431	10934
913.545	10942
913.659	11067
913.772	10885
913.886	10710
914	10774
914.113	10850
914.226	10896
914.34	10786
914.453	10717
914.566	10831
914.68	10831
914.793	10691
914.906	10573
915.019	10493
915.132	10394
915.245	10478
915.358	10516
915.47	10474
915.583	10497
915.696	10573
915.809	10740
915.921	10721
916.034	10443
916.146	10485
916.259	10447
916.371	10550
916.483	10527
916.595	10478
916.708	10417
916.82	10455
916.932	10402
917.044	10500
917.156	10409
917.268	10303
917.38	10344
917.491	10367
917.603	10436
917.715	10459
917.826	10462
917.938	10371
918.049	10234
918.161	10306
918.272	10466
918.384	10481
918.495	10348
918.606	10242
918.717	10116
918.828	10238
918.939	10265
919.05	10169
919.161	10238
919.272	9972
919.383	10082
919.494	10223
919.604	10451
919.715	10303
919.826	10211
919.936	10185
920.047	10272
920.157	10215
920.267	10409
920.378	10409
920.488	10207
920.598	10443
920.708	10550
920.818	10455
920.928	10462
921.038	10622
921.148	10622
921.258	10188
921.368	10147
921.477	10135
921.587	10177
921.697	9888
921.806	10097
921.916	10048
922.025	9831
922.134	9762
922.244	9720
922.353	9785
922.462	9713
922.571	9584
922.68	9526
922.789	9572
922.898	9564
923.007	9458
923.116	9549
923.224	9408
923.333	9408
923.442	9382
923.55	9329
923.659	9462
923.767	9466
923.876	9359
923.984	9492
924.092	9386
924.201	9443
924.309	9344
924.417	9317
924.525	9279
924.633	9336
924.741	10253
924.849	9165
924.956	9233
925.064	9112
925.172	9017
925.279	9138
925.387	9161
925.494	9142
925.602	9378
925.709	9283
925.816	9062
925.924	9253
926.031	9226
926.138	9119
926.245	9150
926.352	9100
926.459	9165
926.566	9218
926.673	9176
926.779	9043
926.886	9085
926.993	8857
927.099	8826
927.206	8902
927.312	8777
927.419	8982
927.525	8925
927.631	8853
927.737	8842
927.843	8773
927.95	8663
928.056	8743
928.162	8773
928.267	8826
928.373	9408
928.479	8887
928.585	8579
928.69	8807
928.796	8781
928.901	8689
929.007	8492
929.112	8667
929.218	8617
929.323	8590
929.428	8556
929.533	8678
929.638	8484
929.743	8606
929.848	8598
929.953	8533
930.058	8461
930.163	8351
930.267	8309
930.372	8450
930.477	8385
930.581	8587
930.685	8423
930.79	8328
930.894	8328
930.998	8271
931.103	8415
931.207	8046
931.311	8031
931.415	7951
931.519	7799
931.623	7780
