Data from test_V78500241_2757.txt Node
Date: Fri Mar 25 14:52:54 CST 2022
User: usil
Spectrometer: V785-0024
Trigger mode: 0
Integration Time (sec): 4.000000E-1
Scans to average: 1
Nonlinearity correction enabled: false
Boxcar width: 0
Storing dark spectrum: false
XAxis mode: Wavelengths
Number of Pixels in Spectrum: 1024
>>>>>Begin Spectral Data<<<<<
801.071	22074
801.214	21907
801.356	21675
801.499	21667
801.641	21466
801.783	21428
801.926	21351
802.068	21408
802.211	21233
802.353	21184
802.496	20857
802.638	20777
802.78	20914
802.923	20670
803.065	20705
803.208	20632
803.35	20735
803.492	20750
803.635	20800
803.777	20708
803.919	20746
804.061	21051
804.204	20731
804.346	20682
804.488	20606
804.63	20640
804.773	20583
804.915	20625
805.057	20769
805.199	20507
805.341	20689
805.483	20777
805.626	20697
805.768	20564
805.91	20556
806.052	20708
806.194	20644
806.336	20792
806.478	20602
806.62	20465
806.762	20686
806.904	20777
807.046	21009
807.188	21009
807.33	20998
807.472	21047
807.614	20921
807.756	20838
807.898	20765
808.04	20606
808.182	20663
808.324	20765
808.465	20670
808.607	20960
808.749	20849
808.891	21150
809.033	21123
809.174	20998
809.316	20853
809.458	20952
809.6	20906
809.741	20982
809.883	21093
810.025	21058
810.166	21173
810.308	21146
810.45	21146
810.591	21009
810.733	20952
810.875	20792
811.016	20625
811.158	20594
811.299	20716
811.441	20941
811.582	20823
811.724	20765
811.865	20693
812.007	20781
812.148	20712
812.29	20765
812.431	20986
812.573	21024
812.714	21039
812.855	21195
812.997	21374
813.138	21545
813.279	21416
813.421	21226
813.562	21123
813.703	21043
813.845	20853
813.986	20686
814.127	20484
814.268	20469
814.41	20488
814.551	20225
814.692	20396
814.833	20286
814.974	20195
815.115	20317
815.256	20103
815.397	20172
815.539	20077
815.68	20062
815.821	19986
815.962	20016
816.103	19940
816.244	19875
816.385	19784
816.526	19712
816.666	19628
816.807	19388
816.948	19460
817.089	19491
817.23	19381
817.371	19483
817.512	19339
817.653	19266
817.793	19339
817.934	19339
818.075	19518
818.216	19331
818.356	19521
818.497	19228
818.638	19015
818.778	19103
818.919	19129
819.06	19198
819.2	19171
819.341	19354
819.481	19331
819.622	19301
819.762	19578
819.903	19548
820.043	19460
820.184	19525
820.324	19529
820.465	19449
820.605	19499
820.746	19396
820.886	19282
821.026	19365
821.167	19369
821.307	19491
821.447	19278
821.588	19274
821.728	19114
821.868	19050
822.008	18829
822.149	18916
822.289	18753
822.429	18544
822.569	18467
822.709	18445
822.849	18323
822.99	18384
823.13	18308
823.27	18285
823.41	18182
823.55	17988
823.69	18163
823.83	18125
823.97	18144
824.11	17996
824.25	17958
824.389	17912
824.529	18007
824.669	17889
824.809	17973
824.949	17958
825.089	18022
825.228	17878
825.368	17684
825.508	17661
825.648	17775
825.787	17676
825.927	17889
826.067	17691
826.206	17634
826.346	17885
826.485	17646
826.625	17722
826.765	17863
826.904	17703
827.044	17414
827.183	17528
827.323	17383
827.462	17417
827.601	17436
827.741	17425
827.88	17356
828.02	17246
828.159	17402
828.298	17414
828.437	17410
828.577	17372
828.716	17425
828.855	17345
828.994	17208
829.134	17113
829.273	17075
829.412	17109
829.551	17041
829.69	17098
829.829	17124
829.968	17147
830.107	17216
830.246	17185
830.385	17178
830.524	17041
830.663	16961
830.802	16908
830.941	16744
831.08	16786
831.219	16782
831.357	16812
831.496	16934
831.635	16748
831.774	16653
831.913	16615
832.051	16630
832.19	16523
832.329	16519
832.467	16394
832.606	16443
832.744	16497
832.883	16432
833.022	16356
833.16	16390
833.299	16485
833.437	16367
833.576	16550
833.714	16550
833.852	16455
833.991	16550
834.129	16527
834.267	16577
834.406	16459
834.544	16573
834.682	16527
834.821	16535
834.959	16675
835.097	16493
835.235	16565
835.373	16489
835.511	16455
835.65	16398
835.788	16379
835.926	16371
836.064	16246
836.202	16291
836.34	16432
836.478	16497
836.615	16455
836.753	16348
836.891	16493
837.029	16462
837.167	16337
837.305	16352
837.443	16306
837.58	16272
837.718	16276
837.856	16246
837.993	16192
838.131	16325
838.269	16246
838.406	16257
838.544	16329
838.681	15934
838.819	15945
838.956	15956
839.094	15831
839.231	15930
839.369	16010
839.506	16234
839.643	16040
839.781	15857
839.918	15736
840.055	15930
840.193	15869
840.33	15789
840.467	15759
840.604	15865
840.742	16109
840.879	15800
841.016	15755
841.153	15732
841.29	15926
841.427	15880
841.564	15903
841.701	15793
841.838	15793
841.975	15747
842.112	15835
842.249	15728
842.385	15633
842.522	15793
842.659	15656
842.796	15603
842.933	15618
843.069	15625
843.206	15580
843.343	15679
843.479	15641
843.616	15561
843.752	15462
843.889	15496
844.025	15538
844.162	15420
844.298	15473
844.435	15443
844.571	15336
844.708	15507
844.844	15553
844.98	15557
845.117	15496
845.253	15287
845.389	15287
845.525	15351
845.661	15287
845.798	15256
845.934	15214
846.07	15150
846.206	15325
846.342	15374
846.478	15214
846.614	15020
846.75	14914
846.886	14960
847.022	15188
847.158	15024
847.294	14982
847.429	14975
847.565	14925
847.701	15275
847.837	14689
847.972	14773
848.108	14807
848.244	14823
848.379	14610
848.515	14560
848.65	14621
848.786	14613
848.921	14648
849.057	14777
849.192	14743
849.328	14632
849.463	14621
849.598	14415
849.734	14530
849.869	14480
850.004	14454
850.14	14396
850.275	14385
850.41	14278
850.545	14202
850.68	14343
850.815	14473
850.95	14309
851.085	14533
851.22	14469
851.355	14377
851.49	14233
851.625	14252
851.76	14347
851.895	14233
852.03	14221
852.165	14313
852.299	14366
852.434	14400
852.569	14336
852.703	14374
852.838	14400
852.973	14480
853.107	14507
853.242	14263
853.376	14275
853.511	14172
853.645	14229
853.78	14450
853.914	14278
854.048	14271
854.183	14164
854.317	14210
854.451	14446
854.585	14195
854.72	14183
854.854	14282
854.988	14081
855.122	14244
855.256	14016
855.39	14229
855.524	14438
855.658	14256
855.792	14233
855.926	14218
856.06	14244
856.194	14415
856.327	14161
856.461	14256
856.595	14153
856.729	14161
856.862	14252
856.996	14244
857.13	14225
857.263	14374
857.397	14317
857.53	14233
857.664	14267
857.797	14339
857.931	14366
858.064	14256
858.197	14305
858.331	14278
858.464	14130
858.597	14107
858.731	14282
858.864	14282
858.997	14206
859.13	14240
859.263	14183
859.396	14244
859.529	14168
859.662	14172
859.795	14199
859.928	14218
860.061	14358
860.194	14438
860.327	14244
860.46	14172
860.592	14286
860.725	14347
860.858	14362
860.99	14248
861.123	14149
861.256	14084
861.388	14199
861.521	14887
861.653	14134
861.786	14164
861.918	14111
862.05	14153
862.183	14252
862.315	14301
862.447	14286
862.58	14142
862.712	14012
862.844	14058
862.976	14119
863.108	14107
863.24	14469
863.372	13944
863.504	14005
863.636	14020
863.768	14138
863.9	13989
864.032	13890
864.164	14054
864.296	13993
864.428	14081
864.559	14005
864.691	14103
864.823	14062
864.954	14039
865.086	13974
865.217	13963
865.349	14008
865.48	14012
865.612	13989
865.743	14138
865.875	14073
866.006	14024
866.137	13970
866.269	14065
866.4	14039
866.531	14008
866.662	13974
866.793	14027
866.924	13982
867.055	14024
867.186	14027
867.317	13936
867.448	13887
867.579	14020
867.71	13913
867.841	13856
867.972	13982
868.103	13989
868.233	14020
868.364	14103
868.495	14046
868.625	14256
868.756	14355
868.886	14233
869.017	14202
869.147	14298
869.278	14332
869.408	14286
869.539	14256
869.669	14252
869.799	14317
869.929	14423
870.06	14355
870.19	14545
870.32	14503
870.45	14537
870.58	14594
870.71	14686
870.84	14693
870.97	14667
871.1	14625
871.23	14834
871.36	14834
871.489	14716
871.619	14861
871.749	14834
871.879	14948
872.008	14921
872.138	14781
872.267	14857
872.397	14716
872.526	14663
872.656	14712
872.785	14625
872.915	14921
873.044	14914
873.173	14777
873.303	14910
873.432	14918
873.561	14933
873.69	14823
873.819	14910
873.948	14994
874.077	14902
874.206	14891
874.335	14857
874.464	15085
874.593	15222
874.722	15097
874.851	15241
874.979	15157
875.108	15283
875.237	15184
875.365	15036
875.494	15173
875.623	15241
875.751	15180
875.88	15321
876.008	15260
876.136	15401
876.265	15625
876.393	15667
876.521	15743
876.65	15724
876.778	15648
876.906	15469
877.034	15587
877.162	15648
877.29	15545
877.418	15576
877.546	15580
877.674	15549
877.802	15580
877.93	15622
878.058	15584
878.185	15397
878.313	15435
878.441	15663
878.568	15473
878.696	15603
878.824	15663
878.951	15728
879.079	15709
879.206	15934
879.333	15717
879.461	15709
879.588	15819
879.715	15789
879.842	15895
879.97	15747
880.097	15485
880.224	15408
880.351	15534
880.478	15488
880.605	15462
880.732	15462
880.859	15739
880.986	15507
881.112	15439
881.239	15424
881.366	15256
881.493	15260
881.619	15127
881.746	15074
881.872	15180
881.999	15062
882.125	15055
882.252	15184
882.378	15138
882.505	15283
882.631	15039
882.757	14971
882.883	14998
883.01	14933
883.136	14990
883.262	14739
883.388	14682
883.514	15005
883.64	14975
883.766	14914
883.892	14754
884.018	14769
884.143	14891
884.269	15081
884.395	14769
884.52	14617
884.646	14682
884.772	14606
884.897	14568
885.023	14541
885.148	14667
885.274	14796
885.399	14716
885.524	14552
885.65	14613
885.775	14674
885.9	14587
886.025	14792
886.15	14743
886.275	14625
886.4	14552
886.525	14724
886.65	14617
886.775	14488
886.9	14819
887.025	14891
887.149	14674
887.274	14476
887.399	14488
887.523	14427
887.648	14332
887.773	14389
887.897	14613
888.021	14518
888.146	14377
888.27	14507
888.395	14697
888.519	14484
888.643	14549
888.767	14507
888.891	14351
889.015	14362
889.139	14317
889.263	14328
889.387	14408
889.511	14598
889.635	14511
889.759	14366
889.883	14358
890.006	14328
890.13	14476
890.254	14313
890.377	14400
890.501	14187
890.624	14172
890.748	14229
890.871	14073
890.995	13978
891.118	13936
891.241	14024
891.364	14088
891.488	14164
891.611	14046
891.734	14039
891.857	14130
891.98	14119
892.103	14115
892.226	14115
892.349	14020
892.471	13868
892.594	13940
892.717	14100
892.839	13917
892.962	14138
893.085	14069
893.207	13989
893.33	13890
893.452	13936
893.575	14081
893.697	13986
893.819	14218
893.941	14332
894.064	14221
894.186	14043
894.308	13993
894.43	14138
894.552	14286
894.674	14252
894.796	14054
894.918	14115
895.04	14092
895.161	14214
895.283	14149
895.405	14062
895.526	14111
895.648	14176
895.769	14286
895.891	14161
896.012	14278
896.134	14180
896.255	14176
896.376	14164
896.498	14149
896.619	14252
896.74	14168
896.861	14301
896.982	14549
897.103	14705
897.224	14377
897.345	14533
897.466	14381
897.587	14454
897.708	14533
897.828	14564
897.949	14454
898.07	14370
898.19	14457
898.311	14693
898.431	14495
898.552	14629
898.672	14674
898.792	14655
898.913	14541
899.033	14533
899.153	14332
899.273	14362
899.393	14393
899.513	14469
899.633	14507
899.753	14381
899.873	14355
899.993	14438
900.113	14457
900.232	14370
900.352	14427
900.472	14427
900.591	14294
900.711	14431
900.83	14259
900.95	14408
901.069	14374
901.189	14172
901.308	14062
901.427	13890
901.546	13833
901.665	13967
901.784	13967
901.904	13936
902.023	13776
902.141	13582
902.26	13499
902.379	13696
902.498	13449
902.617	13480
902.735	13491
902.854	13525
902.973	13434
903.091	13270
903.21	13327
903.328	13194
903.446	13145
903.565	13069
903.683	13190
903.801	12985
903.919	13084
904.038	13122
904.156	12970
904.274	13000
904.392	12916
904.51	12909
904.627	12985
904.745	12985
904.863	12985
904.981	12639
905.098	12665
905.216	12635
905.334	12684
905.451	12627
905.569	12582
905.686	12566
905.803	12658
905.921	12395
906.038	12559
906.155	12456
906.272	12369
906.389	12372
906.506	12254
906.623	12205
906.74	12175
906.857	12083
906.974	12057
907.091	12216
907.208	12323
907.324	12289
907.441	12152
907.557	11935
907.674	11965
907.79	11954
907.907	11847
908.023	12049
908.139	11920
908.256	11931
908.372	11874
908.488	11824
908.604	11733
908.72	11672
908.836	11756
908.952	11680
909.068	11760
909.184	11916
909.3	11623
909.415	11790
909.531	11779
909.647	11452
909.762	11512
909.878	11493
909.993	11421
910.108	11444
910.224	11398
910.339	11490
910.454	11478
910.57	11292
910.685	11322
910.8	11566
910.915	11474
911.03	11395
911.145	11258
911.259	11261
911.374	11140
911.489	11071
911.604	11136
911.718	10957
911.833	10987
911.947	10915
912.062	10839
912.176	11018
912.291	10938
912.405	10892
912.519	11109
912.633	11147
912.748	10957
912.862	10984
912.976	10793
913.09	10687
913.204	10706
913.318	10786
913.431	10911
913.545	10968
913.659	10927
913.772	10805
913.886	10729
914	10740
914.113	10694
914.226	10793
914.34	10824
914.453	10637
914.566	10759
914.68	10714
914.793	10649
914.906	10436
915.019	10462
915.132	10367
915.245	10489
915.358	10459
915.47	10428
915.583	10455
915.696	10538
915.809	10561
915.921	10611
916.034	10447
916.146	10382
916.259	10386
916.371	10459
916.483	10451
916.595	10375
916.708	10428
916.82	10409
916.932	10310
917.044	10462
917.156	10344
917.268	10299
917.38	10325
917.491	10230
917.603	10371
917.715	10379
917.826	10344
917.938	10310
918.049	10207
918.161	10280
918.272	10470
918.384	10386
918.495	10284
918.606	10158
918.717	10086
918.828	10211
918.939	10185
919.05	10112
919.161	10105
919.272	9922
919.383	10021
919.494	10223
919.604	10375
919.715	10139
919.826	10109
919.936	10139
920.047	10185
920.157	10249
920.267	10348
920.378	10230
920.488	10158
920.598	10402
920.708	10588
920.818	10337
920.928	10344
921.038	10497
921.148	10519
921.258	10230
921.368	10147
921.477	10059
921.587	9960
921.697	9972
921.806	10116
921.916	9960
922.025	9759
922.134	9732
922.244	9705
922.353	9838
922.462	9622
922.571	9622
922.68	9435
922.789	9378
922.898	9523
923.007	9344
923.116	9424
923.224	9496
923.333	9420
923.442	9355
923.55	9321
923.659	9359
923.767	9355
923.876	9268
923.984	9397
924.092	9302
924.201	9332
924.309	9253
924.417	9291
924.525	9230
924.633	9256
924.741	10093
924.849	9062
924.956	9287
925.064	9108
925.172	9013
925.279	9051
925.387	9195
925.494	9112
925.602	9188
925.709	9123
925.816	9085
925.924	9119
926.031	9161
926.138	9104
926.245	9188
926.352	8921
926.459	9157
926.566	9253
926.673	9020
926.779	8986
926.886	9036
926.993	8857
927.099	8830
927.206	8766
927.312	8766
927.419	8857
927.525	8826
927.631	8823
927.737	8731
927.843	8758
927.95	8583
928.056	8670
928.162	8708
928.267	8731
928.373	9306
928.479	8785
928.585	8530
928.69	8720
928.796	8743
928.901	8587
929.007	8476
929.112	8583
929.218	8598
929.323	8552
929.428	8495
929.533	8629
929.638	8461
929.743	8480
929.848	8499
929.953	8522
930.058	8454
930.163	8221
930.267	8332
930.372	8427
930.477	8328
930.581	8488
930.685	8442
930.79	8267
930.894	8233
930.998	8199
931.103	8381
931.207	8024
931.311	7993
931.415	7894
931.519	7738
931.623	7712
