Data from test_V78500241_726.txt Node
Date: Fri Mar 25 14:38:46 CST 2022
User: usil
Spectrometer: V785-0024
Trigger mode: 0
Integration Time (sec): 4.000000E-1
Scans to average: 1
Nonlinearity correction enabled: false
Boxcar width: 0
Storing dark spectrum: false
XAxis mode: Wavelengths
Number of Pixels in Spectrum: 1024
>>>>>Begin Spectral Data<<<<<
801.071	27507
801.214	27416
801.356	27123
801.499	27150
801.641	27020
801.783	26864
801.926	26834
802.068	26773
802.211	26773
802.353	26625
802.496	26389
802.638	26480
802.78	26446
802.923	26374
803.065	26347
803.208	26317
803.35	26278
803.492	26419
803.635	26575
803.777	26560
803.919	26495
804.061	26868
804.204	26701
804.346	26632
804.488	26621
804.63	26587
804.773	26613
804.915	26708
805.057	26819
805.199	26880
805.341	27077
805.483	27127
805.626	27081
805.768	27127
805.91	27252
806.052	27473
806.194	27416
806.336	27827
806.478	27819
806.62	27941
806.762	28352
806.904	28831
807.046	29372
807.188	29611
807.33	30117
807.472	30616
807.614	31240
807.756	32317
807.898	33397
808.04	34908
808.182	37118
808.324	39964
808.465	42909
808.607	46519
808.749	49346
808.891	51207
809.033	51416
809.174	49696
809.316	46702
809.458	43050
809.6	39637
809.741	36700
809.883	34546
810.025	33028
810.166	31746
810.308	30875
810.45	30239
810.591	29718
810.733	29151
810.875	28748
811.016	28440
811.158	28207
811.299	28166
811.441	28101
811.582	27846
811.724	27492
811.865	27591
812.007	27454
812.148	27272
812.29	27142
812.431	27321
812.573	27538
812.714	27393
812.855	27439
812.997	27496
813.138	27736
813.279	27511
813.421	27279
813.562	27359
813.703	27039
813.845	26925
813.986	26503
814.127	26358
814.268	26328
814.41	26191
814.551	26043
814.692	26176
814.833	25986
814.974	25887
815.115	25940
815.256	25757
815.397	25795
815.539	25689
815.68	25818
815.821	25685
815.962	25765
816.103	25662
816.244	25316
816.385	25198
816.526	25183
816.666	25080
816.807	24924
816.948	25027
817.089	25042
817.23	25000
817.371	24757
817.512	24833
817.653	24859
817.793	24837
817.934	24802
818.075	24776
818.216	24814
818.356	24684
818.497	24589
818.638	24540
818.778	24486
818.919	24467
819.06	24559
819.2	24669
819.341	24764
819.481	24608
819.622	24722
819.762	24981
819.903	24932
820.043	24719
820.184	24734
820.324	24696
820.465	24798
820.605	24631
820.746	24601
820.886	24635
821.026	24753
821.167	24616
821.307	24665
821.447	24399
821.588	24361
821.728	24182
821.868	24095
822.008	23920
822.149	23824
822.289	23893
822.429	23691
822.569	23615
822.709	23642
822.849	23368
822.99	23406
823.13	23353
823.27	23242
823.41	23159
823.55	23105
823.69	23033
823.83	23208
823.97	23071
824.11	22946
824.25	22854
824.389	22828
824.529	22889
824.669	22824
824.809	22961
824.949	22904
825.089	23010
825.228	22908
825.368	22672
825.508	22763
825.648	22694
825.787	22702
825.927	22919
826.067	22622
826.206	22542
826.346	22683
826.485	22752
826.625	22626
826.765	22702
826.904	22660
827.044	22413
827.183	22394
827.323	22421
827.462	22379
827.601	22481
827.741	22337
827.88	22325
828.02	22223
828.159	22284
828.298	22219
828.437	22306
828.577	22105
828.716	22341
828.855	22246
828.994	22010
829.134	21956
829.273	22029
829.412	22002
829.551	21941
829.69	21880
829.829	22093
829.968	22074
830.107	22032
830.246	22067
830.385	21903
830.524	21857
830.663	21781
830.802	21542
830.941	21660
831.08	21595
831.219	21644
831.357	21713
831.496	21808
831.635	21511
831.774	21530
831.913	21389
832.051	21382
832.19	21488
832.329	21435
832.467	21435
832.606	21302
832.744	21386
832.883	21504
833.022	21488
833.16	21686
833.299	21800
833.437	21941
833.576	22010
833.714	22200
833.852	22443
833.991	22500
834.129	22672
834.267	22611
834.406	22542
834.544	22622
834.682	22394
834.821	22162
834.959	22226
835.097	21857
835.235	21922
835.373	21793
835.511	21641
835.65	21523
835.788	21443
835.926	21211
836.064	21154
836.202	21089
836.34	21291
836.478	21195
836.615	21116
836.753	21237
836.891	21150
837.029	21154
837.167	21055
837.305	21081
837.443	21028
837.58	20933
837.718	20967
837.856	20902
837.993	20804
838.131	20986
838.269	20788
838.406	20750
838.544	20758
838.681	20568
838.819	20541
838.956	20446
839.094	20355
839.231	20282
839.369	20461
839.506	20720
839.643	20579
839.781	20355
839.918	20328
840.055	20317
840.193	20347
840.33	20305
840.467	20313
840.604	20336
840.742	20575
840.879	20259
841.016	20199
841.153	20206
841.29	20343
841.427	20305
841.564	20415
841.701	20332
841.838	20252
841.975	20339
842.112	20248
842.249	20130
842.385	20001
842.522	20343
842.659	20244
842.796	20199
842.933	20164
843.069	20164
843.206	20096
843.343	20301
843.479	20366
843.616	20218
843.752	20134
843.889	20275
844.025	20282
844.162	20336
844.298	20465
844.435	20541
844.571	20663
844.708	21077
844.844	21500
844.98	22002
845.117	22527
845.253	23646
845.389	25616
845.525	29265
845.661	35543
845.798	42532
845.934	47855
846.07	49753
846.206	48372
846.342	43282
846.478	36163
846.614	30247
846.75	26126
846.886	23805
847.022	22390
847.158	21542
847.294	20918
847.429	20571
847.565	20339
847.701	20263
847.837	19769
847.972	19552
848.108	19502
848.244	19613
848.379	19320
848.515	19225
848.65	19266
848.786	19114
848.921	19141
849.057	19285
849.192	19251
849.328	19099
849.463	18970
849.598	19008
849.734	18943
849.869	18844
850.004	18859
850.14	18848
850.275	18806
850.41	18597
850.545	18570
850.68	18764
850.815	18757
850.95	18738
851.085	18970
851.22	18798
851.355	18776
851.49	18684
851.625	18772
851.76	18719
851.895	18669
852.03	18707
852.165	18749
852.299	18734
852.434	18886
852.569	18806
852.703	18783
852.838	18954
852.973	18962
853.107	18993
853.242	18817
853.376	18795
853.511	18658
853.645	18890
853.78	18920
853.914	18935
854.048	18935
854.183	18958
854.317	19012
854.451	19255
854.585	18924
854.72	18920
854.854	18935
854.988	18894
855.122	18867
855.256	18772
855.39	18696
855.524	18852
855.658	18715
855.792	18779
855.926	18696
856.06	18734
856.194	18753
856.327	18661
856.461	18589
856.595	18506
856.729	18540
856.862	18612
856.996	18612
857.13	18612
857.263	18684
857.397	18734
857.53	18551
857.664	18593
857.797	18635
857.931	18547
858.064	18517
858.197	18642
858.331	18395
858.464	18384
858.597	18342
858.731	18414
858.864	18239
858.997	18342
859.13	18372
859.263	18452
859.396	18445
859.529	18418
859.662	18410
859.795	18471
859.928	18429
860.061	18517
860.194	18578
860.327	18277
860.46	18369
860.592	18376
860.725	18437
860.858	18327
860.99	18433
861.123	18277
861.256	18239
861.388	18296
861.521	19015
861.653	18220
861.786	18258
861.918	18266
862.05	18243
862.183	18281
862.315	18399
862.447	18285
862.58	18266
862.712	18106
862.844	18015
862.976	18239
863.108	18083
863.24	18388
863.372	17954
863.504	17988
863.636	17996
863.768	18064
863.9	18019
864.032	17939
864.164	18015
864.296	18083
864.428	18106
864.559	18098
864.691	18174
864.823	17969
864.954	17992
865.086	18087
865.217	17927
865.349	17996
865.48	17798
865.612	17977
865.743	18011
865.875	17920
866.006	17878
866.137	17969
866.269	17954
866.4	17904
866.531	17916
866.662	17805
866.793	17836
866.924	17889
867.055	17950
867.186	18019
867.317	17908
867.448	17863
867.579	17790
867.71	17901
867.841	17855
867.972	17923
868.103	17931
868.233	17851
868.364	17950
868.495	17889
868.625	18019
868.756	18254
868.886	18136
869.017	18064
869.147	18296
869.278	18350
869.408	18224
869.539	18296
869.669	18315
869.799	18407
869.929	18319
870.06	18479
870.19	18437
870.32	18486
870.45	18525
870.58	18658
870.71	18760
870.84	18779
870.97	18665
871.1	18658
871.23	18707
871.36	18935
871.489	18817
871.619	18875
871.749	18833
871.879	18882
872.008	19000
872.138	18814
872.267	18928
872.397	18867
872.526	18795
872.656	18772
872.785	18722
872.915	18939
873.044	19050
873.173	19110
873.303	19095
873.432	19137
873.561	19179
873.69	19156
873.819	19187
873.948	19331
874.077	19198
874.206	19263
874.335	19320
874.464	19453
874.593	19514
874.722	19643
874.851	19708
874.979	19761
875.108	19788
875.237	19715
875.365	19723
875.494	19830
875.623	19928
875.751	19871
875.88	20005
876.008	20024
876.136	20317
876.265	20522
876.393	20762
876.521	20697
876.65	20659
876.778	20762
876.906	20659
877.034	20834
877.162	21020
877.29	20944
877.418	21096
877.546	21218
877.674	21294
877.802	21359
877.93	21523
878.058	21759
878.185	21922
878.313	22196
878.441	22508
878.568	22763
878.696	23497
878.824	24388
878.951	25700
879.079	27157
879.206	29315
879.333	31320
879.461	33184
879.588	34474
879.715	34295
879.842	33526
879.97	31419
880.097	29204
880.224	27534
880.351	26374
880.478	25544
880.605	24848
880.732	24452
880.859	24319
880.986	24018
881.112	23847
881.239	23710
881.366	23463
881.493	23501
881.619	23292
881.746	23433
881.872	23459
881.999	23646
882.125	23482
882.252	23638
882.378	23676
882.505	23752
882.631	23646
882.757	23558
882.883	23661
883.01	23531
883.136	23520
883.262	23391
883.388	23231
883.514	23547
883.64	23467
883.766	23322
883.892	23242
884.018	23220
884.143	23433
884.269	23509
884.395	23258
884.52	23189
884.646	23261
884.772	23105
884.897	23246
885.023	23143
885.148	23220
885.274	23391
885.399	23109
885.524	22923
885.65	22889
885.775	22668
885.9	22656
886.025	22455
886.15	22257
886.275	22090
886.4	21873
886.525	21774
886.65	21553
886.775	21576
886.9	21538
887.025	21504
887.149	21222
887.274	21028
887.399	20842
887.523	20876
887.648	20670
887.773	20446
887.897	20537
888.021	20499
888.146	20282
888.27	20446
888.395	20271
888.519	20248
888.643	20237
888.767	20233
888.891	20020
889.015	19811
889.139	19898
889.263	19742
889.387	19845
889.511	19890
889.635	19921
889.759	19658
889.883	19582
890.006	19651
890.13	19544
890.254	19453
890.377	19384
890.501	19145
890.624	19103
890.748	19221
890.871	19076
890.995	18913
891.118	18863
891.241	18890
891.364	18859
891.488	18973
891.611	18951
891.734	18768
891.857	18863
891.98	18871
892.103	18768
892.226	18700
892.349	18654
892.471	18467
892.594	18650
892.717	18525
892.839	18448
892.962	18578
893.085	18570
893.207	18330
893.33	18281
893.452	18266
893.575	18338
893.697	18228
893.819	18388
893.941	18380
894.064	18330
894.186	18102
894.308	18129
894.43	18254
894.552	18266
894.674	18174
894.796	17958
894.918	18060
895.04	17912
895.161	18087
895.283	18026
895.405	18022
895.526	17977
895.648	17988
895.769	17973
895.891	18019
896.012	18110
896.134	17999
896.255	17958
896.376	17973
896.498	17927
896.619	18072
896.74	17859
896.861	17961
896.982	18254
897.103	18296
897.224	18159
897.345	18148
897.466	18079
897.587	18182
897.708	18209
897.828	18140
897.949	18106
898.07	17855
898.19	18057
898.311	18171
898.431	18140
898.552	18011
898.672	18254
898.792	18182
898.913	18129
899.033	17973
899.153	17965
899.273	17847
899.393	17874
899.513	17935
899.633	17923
899.753	17866
899.873	17863
899.993	17870
900.113	17969
900.232	17923
900.352	17775
900.472	17851
900.591	17615
900.711	17680
900.83	17718
900.95	17798
901.069	17836
901.189	17516
901.308	17337
901.427	17162
901.546	17231
901.665	17288
901.784	17197
901.904	17094
902.023	16889
902.141	16793
902.26	16755
902.379	16854
902.498	16729
902.617	16645
902.735	16694
902.854	16577
902.973	16508
903.091	16249
903.21	16409
903.328	16314
903.446	16173
903.565	16154
903.683	16120
903.801	16013
903.919	15968
904.038	16063
904.156	15953
904.274	16021
904.392	15873
904.51	15755
904.627	15838
904.745	15857
904.863	15975
904.981	15599
905.098	15553
905.216	15561
905.334	15561
905.451	15488
905.569	15428
905.686	15515
905.803	15519
905.921	15374
906.038	15317
906.155	15435
906.272	15222
906.389	15161
906.506	15062
906.623	15188
906.74	14994
906.857	14845
906.974	14918
907.091	15097
907.208	15245
907.324	15058
907.441	14823
907.557	14788
907.674	14777
907.79	14697
907.907	14693
908.023	14811
908.139	14743
908.256	14674
908.372	14613
908.488	14514
908.604	14507
908.72	14393
908.836	14374
908.952	14381
909.068	14396
909.184	14541
909.3	14446
909.415	14511
909.531	14393
909.647	14233
909.762	14145
909.878	14126
909.993	14119
910.108	14191
910.224	14183
910.339	14164
910.454	14153
910.57	14001
910.685	13947
910.8	14271
910.915	14191
911.03	14001
911.145	13932
911.259	13837
911.374	13898
911.489	13727
911.604	13731
911.718	13655
911.833	13567
911.947	13480
912.062	13445
912.176	13476
912.291	13582
912.405	13514
912.519	13704
912.633	13628
912.748	13636
912.862	13556
912.976	13483
913.09	13266
913.204	13308
913.318	13422
913.431	13480
913.545	13533
913.659	13518
913.772	13422
913.886	13270
914	13297
914.113	13327
914.226	13422
914.34	13343
914.453	13198
914.566	13381
914.68	13114
914.793	13076
914.906	12996
915.019	13000
915.132	12871
915.245	12901
915.358	12973
915.47	12977
915.583	13023
915.696	13057
915.809	13156
915.921	13110
916.034	12913
916.146	12859
916.259	12875
916.371	12977
916.483	13038
916.595	12916
916.708	12924
916.82	12970
916.932	12920
917.044	12905
917.156	12890
917.268	12673
917.38	12783
917.491	12726
917.603	12760
917.715	12760
917.826	12852
917.938	12662
918.049	12612
918.161	12589
918.272	12844
918.384	12783
918.495	12623
918.606	12483
918.717	12544
918.828	12623
918.939	12445
919.05	12361
919.161	12467
919.272	12213
919.383	12281
919.494	12456
919.604	12623
919.715	12448
919.826	12311
919.936	12372
920.047	12521
920.157	12429
920.267	12719
920.378	12483
920.488	12475
920.598	12650
920.708	12848
920.818	12677
920.928	12597
921.038	12791
921.148	12620
921.258	12490
921.368	12330
921.477	12216
921.587	12148
921.697	12106
921.806	12182
921.916	12144
922.025	11942
922.134	11897
922.244	11813
922.353	11851
922.462	11764
922.571	11646
922.68	11562
922.789	11520
922.898	11577
923.007	11493
923.116	11600
923.224	11459
923.333	11478
923.442	11402
923.55	11379
923.659	11391
923.767	11440
923.876	11387
923.984	11368
924.092	11265
924.201	11376
924.309	11364
924.417	11292
924.525	11223
924.633	11284
924.741	12182
924.849	11102
924.956	11216
925.064	11045
925.172	11064
925.279	11113
925.387	11075
925.494	11098
925.602	11132
925.709	11105
925.816	11010
925.924	11022
926.031	11086
926.138	10991
926.245	11071
926.352	10953
926.459	11045
926.566	11216
926.673	10904
926.779	10889
926.886	10889
926.993	10675
927.099	10717
927.206	10630
927.312	10577
927.419	10778
927.525	10687
927.631	10755
927.737	10634
927.843	10531
927.95	10417
928.056	10550
928.162	10592
928.267	10649
928.373	11189
928.479	10607
928.585	10516
928.69	10535
928.796	10519
928.901	10443
929.007	10382
929.112	10371
929.218	10443
929.323	10325
929.428	10405
929.533	10561
929.638	10303
929.743	10363
929.848	10405
929.953	10421
930.058	10261
930.163	10093
930.267	10105
930.372	10154
930.477	10055
930.581	10333
930.685	10105
930.79	10017
930.894	9987
930.998	9960
931.103	10063
931.207	9728
931.311	9652
931.415	9580
931.519	9431
931.623	9401
