Data from test_V78500241_282.txt Node
Date: Fri Mar 25 14:35:41 CST 2022
User: usil
Spectrometer: V785-0024
Trigger mode: 0
Integration Time (sec): 4.000000E-1
Scans to average: 1
Nonlinearity correction enabled: false
Boxcar width: 0
Storing dark spectrum: false
XAxis mode: Wavelengths
Number of Pixels in Spectrum: 1024
>>>>>Begin Spectral Data<<<<<
801.071	27218
801.214	27317
801.356	26762
801.499	26895
801.641	26708
801.783	26674
801.926	26625
802.068	26590
802.211	26526
802.353	26374
802.496	26396
802.638	26286
802.78	26183
802.923	26244
803.065	26206
803.208	26172
803.35	26126
803.492	26358
803.635	26343
803.777	26202
803.919	26389
804.061	26476
804.204	26385
804.346	26081
804.488	26157
804.63	26157
804.773	26069
804.915	26191
805.057	26252
805.199	26172
805.341	26237
805.483	26195
805.626	26237
805.768	26214
805.91	26290
806.052	26298
806.194	26130
806.336	26552
806.478	26244
806.62	26301
806.762	26389
806.904	26393
807.046	26625
807.188	26609
807.33	26545
807.472	26655
807.614	26442
807.756	26644
807.898	26575
808.04	26362
808.182	26328
808.324	26667
808.465	26594
808.607	26743
808.749	26819
808.891	26838
809.033	26975
809.174	26940
809.316	26823
809.458	26727
809.6	26655
809.741	26910
809.883	26758
810.025	26914
810.166	26906
810.308	26937
810.45	26952
810.591	26823
810.733	26674
810.875	26659
811.016	26602
811.158	26511
811.299	26636
811.441	26750
811.582	26823
811.724	26507
811.865	26552
812.007	26507
812.148	26613
812.29	26727
812.431	26777
812.573	26891
812.714	27081
812.855	26979
812.997	27211
813.138	27169
813.279	27150
813.421	27013
813.562	26925
813.703	26891
813.845	26754
813.986	26511
814.127	26347
814.268	26275
814.41	26195
814.551	26149
814.692	26149
814.833	26088
814.974	26119
815.115	26168
815.256	25898
815.397	25970
815.539	26073
815.68	25894
815.821	25746
815.962	25974
816.103	25811
816.244	25753
816.385	25776
816.526	25635
816.666	25434
816.807	25247
816.948	25434
817.089	25388
817.23	25388
817.371	25228
817.512	25187
817.653	25217
817.793	25160
817.934	25263
818.075	25384
818.216	25384
818.356	25122
818.497	25034
818.638	24951
818.778	25133
818.919	24932
819.06	25000
819.2	25232
819.341	25202
819.481	25145
819.622	25251
819.762	25559
819.903	25362
820.043	25411
820.184	25282
820.324	25297
820.465	25285
820.605	25358
820.746	25202
820.886	25057
821.026	25228
821.167	25225
821.307	25137
821.447	25266
821.588	25019
821.728	24928
821.868	24764
822.008	24597
822.149	24513
822.289	24593
822.429	24319
822.569	24273
822.709	24296
822.849	24133
822.99	23946
823.13	24060
823.27	24022
823.41	23893
823.55	23786
823.69	24018
823.83	23897
823.97	23805
824.11	23642
824.25	23573
824.389	23646
824.529	23630
824.669	23608
824.809	23714
824.949	23718
825.089	23577
825.228	23581
825.368	23277
825.508	23376
825.648	23608
825.787	23417
825.927	23436
826.067	23395
826.206	23341
826.346	23341
826.485	23410
826.625	23387
826.765	23490
826.904	23478
827.044	23102
827.183	23109
827.323	23090
827.462	23151
827.601	23117
827.741	23033
827.88	23121
828.02	22919
828.159	22987
828.298	23064
828.437	23048
828.577	23006
828.716	23197
828.855	22934
828.994	22698
829.134	22736
829.273	22843
829.412	22736
829.551	22763
829.69	22729
829.829	22858
829.968	22793
830.107	22797
830.246	22687
830.385	22854
830.524	22611
830.663	22531
830.802	22531
830.941	22329
831.08	22284
831.219	22398
831.357	22360
831.496	22493
831.635	22371
831.774	22173
831.913	22265
832.051	22230
832.19	21960
832.329	22173
832.467	21998
832.606	21956
832.744	21892
832.883	21930
833.022	21968
833.16	22059
833.299	22055
833.437	21945
833.576	22017
833.714	22025
833.852	21964
833.991	21953
834.129	21956
834.267	22086
834.406	22017
834.544	22082
834.682	21850
834.821	21964
834.959	22150
835.097	21915
835.235	21979
835.373	22040
835.511	21975
835.65	21701
835.788	21701
835.926	21686
836.064	21827
836.202	21778
836.34	21804
836.478	21930
836.615	21739
836.753	21934
836.891	21926
837.029	21869
837.167	21835
837.305	21652
837.443	21720
837.58	21606
837.718	21724
837.856	21743
837.993	21401
838.131	21610
838.269	21580
838.406	21561
838.544	21447
838.681	21443
838.819	21298
838.956	21135
839.094	21169
839.231	21165
839.369	21291
839.506	21447
839.643	21355
839.781	21020
839.918	20990
840.055	21127
840.193	20941
840.33	21108
840.467	20842
840.604	21028
840.742	21348
840.879	20918
841.016	20891
841.153	20960
841.29	21146
841.427	20937
841.564	20998
841.701	20998
841.838	20975
841.975	20868
842.112	20861
842.249	20773
842.385	20773
842.522	20925
842.659	20796
842.796	20769
842.933	20842
843.069	20632
843.206	20686
843.343	20826
843.479	20762
843.616	20720
843.752	20495
843.889	20499
844.025	20693
844.162	20503
844.298	20625
844.435	20469
844.571	20499
844.708	20476
844.844	20594
844.98	20606
845.117	20598
845.253	20469
845.389	20294
845.525	20343
845.661	20442
845.798	20374
845.934	20324
846.07	20469
846.206	20503
846.342	20564
846.478	20294
846.614	20111
846.75	19928
846.886	19986
847.022	19989
847.158	19925
847.294	19890
847.429	19967
847.565	19921
847.701	20214
847.837	19662
847.972	19696
848.108	19696
848.244	19693
848.379	19521
848.515	19491
848.65	19521
848.786	19388
848.921	19495
849.057	19594
849.192	19567
849.328	19422
849.463	19487
849.598	19460
849.734	19476
849.869	19209
850.004	19183
850.14	19247
850.275	19183
850.41	19206
850.545	19274
850.68	19168
850.815	19225
850.95	19221
851.085	19373
851.22	19251
851.355	19206
851.49	19259
851.625	19187
851.76	19213
851.895	19118
852.03	19095
852.165	19088
852.299	19297
852.434	19251
852.569	19221
852.703	19156
852.838	19278
852.973	19369
853.107	19304
853.242	19069
853.376	19034
853.511	18878
853.645	19023
853.78	19179
853.914	19088
854.048	19023
854.183	19057
854.317	19057
854.451	19156
854.585	18996
854.72	18993
854.854	19187
854.988	19031
855.122	19031
855.256	18901
855.39	18905
855.524	18993
855.658	19179
855.792	19076
855.926	18993
856.06	19038
856.194	19042
856.327	19088
856.461	19046
856.595	18962
856.729	19069
856.862	19091
856.996	19126
857.13	19076
857.263	19122
857.397	19107
857.53	18913
857.664	19034
857.797	19042
857.931	19107
858.064	19023
858.197	19046
858.331	18962
858.464	18837
858.597	18878
858.731	18989
858.864	18970
858.997	18852
859.13	19004
859.263	19008
859.396	19072
859.529	18928
859.662	18951
859.795	18905
859.928	18924
860.061	19187
860.194	19084
860.327	18920
860.46	18875
860.592	19034
860.725	19050
860.858	19042
860.99	18973
861.123	18829
861.256	18962
861.388	18958
861.521	19487
861.653	18840
861.786	18730
861.918	18726
862.05	18996
862.183	19084
862.315	19012
862.447	19012
862.58	19008
862.712	18772
862.844	18719
862.976	18795
863.108	18749
863.24	19008
863.372	18658
863.504	18745
863.636	18631
863.768	18802
863.9	18650
864.032	18532
864.164	18620
864.296	18563
864.428	18741
864.559	18753
864.691	18749
864.823	18661
864.954	18604
865.086	18631
865.217	18528
865.349	18585
865.48	18528
865.612	18585
865.743	18681
865.875	18604
866.006	18585
866.137	18677
866.269	18616
866.4	18460
866.531	18612
866.662	18388
866.793	18585
866.924	18490
867.055	18528
867.186	18570
867.317	18486
867.448	18452
867.579	18513
867.71	18509
867.841	18445
867.972	18566
868.103	18521
868.233	18479
868.364	18452
868.495	18555
868.625	18741
868.756	18913
868.886	18688
869.017	18787
869.147	18901
869.278	18848
869.408	18726
869.539	18639
869.669	18856
869.799	18707
869.929	18833
870.06	18894
870.19	19008
870.32	19050
870.45	19057
870.58	19183
870.71	19343
870.84	19251
870.97	19084
871.1	19175
871.23	19179
871.36	19297
871.489	19156
871.619	19324
871.749	19324
871.879	19343
872.008	19453
872.138	19259
872.267	19434
872.397	19289
872.526	19194
872.656	19198
872.785	19247
872.915	19362
873.044	19358
873.173	19320
873.303	19358
873.432	19441
873.561	19533
873.69	19457
873.819	19327
873.948	19407
874.077	19441
874.206	19434
874.335	19464
874.464	19506
874.593	19567
874.722	19605
874.851	19776
874.979	19666
875.108	19628
875.237	19715
875.365	19556
875.494	19635
875.623	19712
875.751	19662
875.88	19769
876.008	19818
876.136	19807
876.265	20035
876.393	20134
876.521	20043
876.65	20153
876.778	20111
876.906	19932
877.034	20035
877.162	20103
877.29	20016
877.418	20062
877.546	20077
877.674	20115
877.802	20122
877.93	19921
878.058	19955
878.185	19959
878.313	20012
878.441	20005
878.568	19868
878.696	19947
878.824	20111
878.951	20187
879.079	20214
879.206	20461
879.333	20252
879.461	20195
879.588	20221
879.715	20328
879.842	20377
879.97	20161
880.097	19898
880.224	19909
880.351	19967
880.478	19887
880.605	19731
880.732	19811
880.859	20149
880.986	19875
881.112	19864
881.239	19715
881.366	19605
881.493	19529
881.619	19518
881.746	19525
881.872	19422
881.999	19411
882.125	19422
882.252	19594
882.378	19563
882.505	19590
882.631	19422
882.757	19293
882.883	19320
883.01	19247
883.136	19194
883.262	19122
883.388	19179
883.514	19251
883.64	19148
883.766	19232
883.892	18932
884.018	19107
884.143	19183
884.269	19259
884.395	19057
884.52	18882
884.646	19061
884.772	18928
884.897	18833
885.023	18996
885.148	19046
885.274	19023
885.399	18943
885.524	18875
885.65	18928
885.775	19000
885.9	18890
886.025	19137
886.15	18981
886.275	18886
886.4	18856
886.525	18783
886.65	18787
886.775	18989
886.9	19015
887.025	18981
887.149	18909
887.274	18684
887.399	18681
887.523	18658
887.648	18730
887.773	18563
887.897	18684
888.021	18749
888.146	18623
888.27	18646
888.395	18745
888.519	18703
888.643	18620
888.767	18757
888.891	18608
889.015	18441
889.139	18544
889.263	18384
889.387	18642
889.511	18734
889.635	18593
889.759	18357
889.883	18357
890.006	18460
890.13	18593
890.254	18395
890.377	18422
890.501	18296
890.624	18182
890.748	18273
890.871	18102
890.995	18045
891.118	17969
891.241	18140
891.364	18129
891.488	18102
891.611	18049
891.734	18148
891.857	18121
891.98	18102
892.103	18144
892.226	18110
892.349	17961
892.471	17802
892.594	17931
892.717	18038
892.839	17980
892.962	18022
893.085	18022
893.207	18121
893.33	17931
893.452	18049
893.575	18057
893.697	18011
893.819	18201
893.941	18292
894.064	18076
894.186	18022
894.308	17965
894.43	18041
894.552	18247
894.674	18091
894.796	17946
894.918	17984
895.04	18045
895.161	18129
895.283	18117
895.405	17920
895.526	18057
895.648	18045
895.769	17954
895.891	18209
896.012	18076
896.134	18133
896.255	18087
896.376	18095
896.498	17988
896.619	18102
896.74	18140
896.861	18216
896.982	18475
897.103	18547
897.224	18521
897.345	18315
897.466	18319
897.587	18216
897.708	18388
897.828	18376
897.949	18296
898.07	18079
898.19	18186
898.311	18365
898.431	18239
898.552	18418
898.672	18330
898.792	18319
898.913	18342
899.033	18251
899.153	18091
899.273	18060
899.393	18095
899.513	18095
899.633	18106
899.753	18178
899.873	18015
899.993	18152
900.113	18038
900.232	18049
900.352	17889
900.472	17996
900.591	17904
900.711	18034
900.83	17939
900.95	18019
901.069	18057
901.189	17805
901.308	17695
901.427	17573
901.546	17474
901.665	17539
901.784	17619
901.904	17448
902.023	17143
902.141	17193
902.26	17071
902.379	17212
902.498	17166
902.617	17124
902.735	17075
902.854	17003
902.973	17014
903.091	16771
903.21	16641
903.328	16748
903.446	16664
903.565	16584
903.683	16599
903.801	16451
903.919	16512
904.038	16535
904.156	16379
904.274	16409
904.392	16299
904.51	16314
904.627	16287
904.745	16405
904.863	16310
904.981	16120
905.098	16051
905.216	16013
905.334	16021
905.451	16071
905.569	15873
905.686	16032
905.803	15915
905.921	15732
906.038	15861
906.155	15892
906.272	15717
906.389	15641
906.506	15545
906.623	15618
906.74	15511
906.857	15397
906.974	15374
907.091	15534
907.208	15663
907.324	15530
907.441	15378
907.557	15374
907.674	15283
907.79	15116
907.907	15127
908.023	15127
908.139	15294
908.256	15222
908.372	15161
908.488	15013
908.604	14883
908.72	14880
908.836	14967
908.952	14937
909.068	14956
909.184	15097
909.3	14868
909.415	14967
909.531	14800
909.647	14674
909.762	14613
909.878	14648
909.993	14651
910.108	14659
910.224	14571
910.339	14602
910.454	14476
910.57	14511
910.685	14473
910.8	14670
910.915	14606
911.03	14377
911.145	14301
911.259	14168
911.374	14115
911.489	14142
911.604	14020
911.718	14001
911.833	13978
911.947	13871
912.062	13898
912.176	14027
912.291	13978
912.405	14016
912.519	14126
912.633	14252
912.748	14058
912.862	13936
912.976	13875
913.09	13742
913.204	13765
913.318	13860
913.431	13883
913.545	13894
913.659	13906
913.772	13811
913.886	13620
914	13594
914.113	13811
914.226	13753
914.34	13689
914.453	13594
914.566	13727
914.68	13601
914.793	13495
914.906	13316
915.019	13327
915.132	13293
915.245	13316
915.358	13324
915.47	13350
915.583	13358
915.696	13339
915.809	13419
915.921	13453
916.034	13255
916.146	13320
916.259	13244
916.371	13324
916.483	13369
916.595	13160
916.708	13259
916.82	13221
916.932	13175
917.044	13076
917.156	13031
917.268	13008
917.38	13103
917.491	13000
917.603	13046
917.715	13126
917.826	13301
917.938	12989
918.049	12954
918.161	13065
918.272	13217
918.384	13053
918.495	13008
918.606	12859
918.717	12787
918.828	12916
918.939	12848
919.05	12711
919.161	12730
919.272	12486
919.383	12703
919.494	12848
919.604	13027
919.715	12848
919.826	12757
919.936	12707
920.047	12833
920.157	12833
920.267	12970
920.378	12749
920.488	12783
920.598	12867
920.708	13080
920.818	12909
920.928	12913
921.038	13137
921.148	13057
921.258	12719
921.368	12654
921.477	12536
921.587	12528
921.697	12361
921.806	12589
921.916	12395
922.025	12296
922.134	12133
922.244	12175
922.353	12304
922.462	12205
922.571	12060
922.68	11942
922.789	11828
922.898	11882
923.007	11828
923.116	11893
923.224	11798
923.333	11786
923.442	11802
923.55	11771
923.659	11783
923.767	11786
923.876	11737
923.984	11733
924.092	11680
924.201	11722
924.309	11661
924.417	11657
924.525	11661
924.633	11596
924.741	12574
924.849	11493
924.956	11512
925.064	11444
925.172	11296
925.279	11391
925.387	11455
925.494	11410
925.602	11429
925.709	11459
925.816	11345
925.924	11326
926.031	11455
926.138	11414
926.245	11414
926.352	11315
926.459	11387
926.566	11467
926.673	11258
926.779	11239
926.886	11170
926.993	11029
927.099	10987
927.206	10942
927.312	11037
927.419	11094
927.525	11037
927.631	11041
927.737	10972
927.843	10839
927.95	10820
928.056	10889
928.162	10843
928.267	10923
928.373	11410
928.479	10908
928.585	10649
928.69	10748
928.796	10828
928.901	10778
929.007	10626
929.112	10771
929.218	10649
929.323	10580
929.428	10653
929.533	10664
929.638	10615
929.743	10637
929.848	10603
929.953	10523
930.058	10504
930.163	10276
930.267	10329
930.372	10527
930.477	10341
930.581	10573
930.685	10409
930.79	10204
930.894	10287
930.998	10173
931.103	10348
931.207	9945
931.311	9949
931.415	9827
931.519	9622
931.623	9633
