Data from test_V78500241_2724.txt Node
Date: Fri Mar 25 14:52:40 CST 2022
User: usil
Spectrometer: V785-0024
Trigger mode: 0
Integration Time (sec): 4.000000E-1
Scans to average: 1
Nonlinearity correction enabled: false
Boxcar width: 0
Storing dark spectrum: false
XAxis mode: Wavelengths
Number of Pixels in Spectrum: 1024
>>>>>Begin Spectral Data<<<<<
801.071	22093
801.214	21949
801.356	21709
801.499	21568
801.641	21416
801.783	21420
801.926	21500
802.068	21397
802.211	21291
802.353	21279
802.496	20986
802.638	20891
802.78	20788
802.923	20792
803.065	20769
803.208	20617
803.35	20743
803.492	20864
803.635	20861
803.777	20689
803.919	20743
804.061	21047
804.204	20746
804.346	20636
804.488	20568
804.63	20655
804.773	20651
804.915	20560
805.057	20739
805.199	20545
805.341	20689
805.483	20651
805.626	20769
805.768	20492
805.91	20686
806.052	20598
806.194	20575
806.336	20781
806.478	20552
806.62	20530
806.762	20743
806.904	20800
807.046	21013
807.188	21024
807.33	20975
807.472	21032
807.614	20895
807.756	20838
807.898	20712
808.04	20621
808.182	20689
808.324	20796
808.465	20758
808.607	20914
808.749	21058
808.891	21074
809.033	21165
809.174	21062
809.316	20998
809.458	20948
809.6	20868
809.741	20986
809.883	20990
810.025	21062
810.166	21192
810.308	21051
810.45	21058
810.591	20918
810.733	20921
810.875	20815
811.016	20708
811.158	20750
811.299	20842
811.441	20914
811.582	20918
811.724	20693
811.865	20651
812.007	20686
812.148	20773
812.29	20724
812.431	20849
812.573	21005
812.714	21138
812.855	21272
812.997	21344
813.138	21397
813.279	21351
813.421	21245
813.562	21192
813.703	20998
813.845	20925
813.986	20644
814.127	20492
814.268	20233
814.41	20278
814.551	20336
814.692	20294
814.833	20275
814.974	20206
815.115	20339
815.256	20187
815.397	20248
815.539	20180
815.68	20050
815.821	19936
815.962	20039
816.103	19909
816.244	19784
816.385	19860
816.526	19738
816.666	19616
816.807	19411
816.948	19544
817.089	19563
817.23	19426
817.371	19282
817.512	19487
817.653	19400
817.793	19251
817.934	19346
818.075	19354
818.216	19384
818.356	19285
818.497	19255
818.638	19103
818.778	19122
818.919	19133
819.06	19179
819.2	19343
819.341	19358
819.481	19343
819.622	19331
819.762	19556
819.903	19544
820.043	19381
820.184	19415
820.324	19506
820.465	19575
820.605	19396
820.746	19403
820.886	19255
821.026	19453
821.167	19419
821.307	19510
821.447	19335
821.588	19160
821.728	19091
821.868	18916
822.008	18791
822.149	18856
822.289	18821
822.429	18597
822.569	18452
822.709	18509
822.849	18403
822.99	18262
823.13	18262
823.27	18251
823.41	18057
823.55	17992
823.69	18155
823.83	18095
823.97	18030
824.11	17798
824.25	17901
824.389	17870
824.529	17821
824.669	17897
824.809	18106
824.949	17908
825.089	17958
825.228	17912
825.368	17733
825.508	17726
825.648	17661
825.787	17577
825.927	17733
826.067	17714
826.206	17493
826.346	17710
826.485	17604
826.625	17570
826.765	17646
826.904	17547
827.044	17364
827.183	17334
827.323	17337
827.462	17395
827.601	17436
827.741	17250
827.88	17493
828.02	17102
828.159	17414
828.298	17402
828.437	17436
828.577	17337
828.716	17486
828.855	17258
828.994	17105
829.134	17102
829.273	17227
829.412	17098
829.551	16995
829.69	17143
829.829	17227
829.968	17113
830.107	17159
830.246	17109
830.385	17025
830.524	17071
830.663	16938
830.802	16831
830.941	16710
831.08	16725
831.219	16790
831.357	16896
831.496	16908
831.635	16656
831.774	16653
831.913	16694
832.051	16611
832.19	16478
832.329	16527
832.467	16462
832.606	16428
832.744	16409
832.883	16371
833.022	16310
833.16	16295
833.299	16489
833.437	16497
833.576	16402
833.714	16508
833.852	16485
833.991	16546
834.129	16523
834.267	16516
834.406	16538
834.544	16538
834.682	16504
834.821	16531
834.959	16634
835.097	16474
835.235	16607
835.373	16459
835.511	16443
835.65	16455
835.788	16344
835.926	16196
836.064	16284
836.202	16204
836.34	16436
836.478	16447
836.615	16440
836.753	16413
836.891	16428
837.029	16436
837.167	16519
837.305	16249
837.443	16306
837.58	16124
837.718	16371
837.856	16333
837.993	16306
838.131	16291
838.269	16238
838.406	16265
838.544	16173
838.681	15934
838.819	15949
838.956	15808
839.094	15663
839.231	15888
839.369	16036
839.506	16299
839.643	16131
839.781	15827
839.918	15816
840.055	15781
840.193	15747
840.33	15755
840.467	15759
840.604	15945
840.742	16032
840.879	15561
841.016	15728
841.153	15808
841.29	15865
841.427	15888
841.564	15823
841.701	15861
841.838	15759
841.975	15808
842.112	15717
842.249	15534
842.385	15542
842.522	15808
842.659	15660
842.796	15534
842.933	15717
843.069	15606
843.206	15500
843.343	15675
843.479	15652
843.616	15618
843.752	15405
843.889	15408
844.025	15447
844.162	15435
844.298	15443
844.435	15287
844.571	15348
844.708	15431
844.844	15473
844.98	15591
845.117	15629
845.253	15317
845.389	15176
845.525	15351
845.661	15249
845.798	15222
845.934	15279
846.07	15138
846.206	15222
846.342	15378
846.478	15264
846.614	15013
846.75	14929
846.886	14979
847.022	15024
847.158	14944
847.294	15028
847.429	15009
847.565	15024
847.701	15214
847.837	14686
847.972	14720
848.108	14853
848.244	14754
848.379	14545
848.515	14568
848.65	14476
848.786	14571
848.921	14564
849.057	14667
849.192	14693
849.328	14667
849.463	14575
849.598	14590
849.734	14473
849.869	14393
850.004	14259
850.14	14461
850.275	14362
850.41	14221
850.545	14199
850.68	14290
850.815	14320
850.95	14328
851.085	14495
851.22	14446
851.355	14351
851.49	14313
851.625	14290
851.76	14187
851.895	14244
852.03	14161
852.165	14263
852.299	14309
852.434	14324
852.569	14484
852.703	14282
852.838	14442
852.973	14461
853.107	14438
853.242	14294
853.376	14259
853.511	14111
853.645	14229
853.78	14229
853.914	14195
854.048	14180
854.183	14225
854.317	14248
854.451	14290
854.585	14195
854.72	14240
854.854	14336
854.988	14195
855.122	14145
855.256	14050
855.39	14168
855.524	14282
855.658	14218
855.792	14282
855.926	14229
856.06	14172
856.194	14240
856.327	14301
856.461	14134
856.595	14168
856.729	14142
856.862	14290
856.996	14210
857.13	14237
857.263	14374
857.397	14374
857.53	14199
857.664	14244
857.797	14366
857.931	14385
858.064	14233
858.197	14351
858.331	14191
858.464	14172
858.597	14138
858.731	14237
858.864	14187
858.997	14218
859.13	14142
859.263	14229
859.396	14278
859.529	14290
859.662	14126
859.795	14096
859.928	14313
860.061	14385
860.194	14358
860.327	14267
860.46	14206
860.592	14320
860.725	14328
860.858	14317
860.99	14233
861.123	14183
861.256	14077
861.388	14218
861.521	14830
861.653	14103
861.786	13974
861.918	14027
862.05	14183
862.183	14134
862.315	14206
862.447	14240
862.58	14187
862.712	13913
862.844	13963
862.976	14054
863.108	14039
863.24	14526
863.372	13890
863.504	13906
863.636	13967
863.768	14024
863.9	14001
864.032	13852
864.164	14016
864.296	13986
864.428	14164
864.559	14115
864.691	14081
864.823	13989
864.954	14046
865.086	13978
865.217	13951
865.349	13868
865.48	13955
865.612	14069
865.743	14100
865.875	13993
866.006	13951
866.137	13936
866.269	14069
866.4	13944
866.531	13890
866.662	13947
866.793	13989
866.924	13963
867.055	13925
867.186	14035
867.317	13921
867.448	13947
867.579	13875
867.71	13906
867.841	13860
867.972	14001
868.103	14020
868.233	13989
868.364	13928
868.495	14050
868.625	14256
868.756	14286
868.886	14138
869.017	14161
869.147	14332
869.278	14377
869.408	14275
869.539	14252
869.669	14374
869.799	14142
869.929	14343
870.06	14336
870.19	14575
870.32	14484
870.45	14541
870.58	14701
870.71	14667
870.84	14750
870.97	14571
871.1	14571
871.23	14743
871.36	14830
871.489	14674
871.619	14800
871.749	14815
871.879	14861
872.008	14883
872.138	14773
872.267	14788
872.397	14792
872.526	14598
872.656	14594
872.785	14697
872.915	14830
873.044	14994
873.173	14842
873.303	14910
873.432	14982
873.561	15051
873.69	14838
873.819	14853
873.948	14895
874.077	14941
874.206	14918
874.335	14887
874.464	14990
874.593	15097
874.722	15119
874.851	15195
874.979	15195
875.108	15348
875.237	15138
875.365	15123
875.494	15104
875.623	15211
875.751	15222
875.88	15298
876.008	15272
876.136	15412
876.265	15576
876.393	15736
876.521	15694
876.65	15778
876.778	15603
876.906	15622
877.034	15530
877.162	15507
877.29	15526
877.418	15671
877.546	15648
877.674	15496
877.802	15610
877.93	15511
878.058	15530
878.185	15545
878.313	15629
878.441	15572
878.568	15462
878.696	15534
878.824	15576
878.951	15667
879.079	15827
879.206	15926
879.333	15812
879.461	15690
879.588	15747
879.715	15751
879.842	15819
879.97	15641
880.097	15408
880.224	15374
880.351	15507
880.478	15504
880.605	15454
880.732	15435
880.859	15648
880.986	15454
881.112	15526
881.239	15416
881.366	15211
881.493	15161
881.619	15108
881.746	15127
881.872	15013
881.999	15150
882.125	15005
882.252	15176
882.378	15150
882.505	15325
882.631	15032
882.757	14956
882.883	14941
883.01	14952
883.136	14956
883.262	14678
883.388	14670
883.514	15081
883.64	15009
883.766	14891
883.892	14686
884.018	14765
884.143	14971
884.269	15104
884.395	14697
884.52	14583
884.646	14674
884.772	14560
884.897	14522
885.023	14621
885.148	14693
885.274	14750
885.399	14727
885.524	14686
885.65	14705
885.775	14648
885.9	14659
886.025	14853
886.15	14785
886.275	14598
886.4	14552
886.525	14568
886.65	14663
886.775	14621
886.9	14739
887.025	14891
887.149	14659
887.274	14476
887.399	14415
887.523	14514
887.648	14495
887.773	14317
887.897	14556
888.021	14533
888.146	14393
888.27	14629
888.395	14549
888.519	14473
888.643	14568
888.767	14549
888.891	14488
889.015	14358
889.139	14385
889.263	14256
889.387	14377
889.511	14552
889.635	14446
889.759	14202
889.883	14309
890.006	14419
890.13	14450
890.254	14229
890.377	14298
890.501	14210
890.624	14111
890.748	14332
890.871	14069
890.995	14062
891.118	14001
891.241	13936
891.364	14103
891.488	14138
891.611	14050
891.734	14020
891.857	14050
891.98	14054
892.103	14172
892.226	14069
892.349	14050
892.471	13925
892.594	13959
892.717	14111
892.839	14050
892.962	14168
893.085	14096
893.207	14069
893.33	13864
893.452	14035
893.575	14115
893.697	13970
893.819	14161
893.941	14252
894.064	14202
894.186	13940
894.308	13970
894.43	14126
894.552	14278
894.674	14123
894.796	14054
894.918	14031
895.04	14046
895.161	14210
895.283	14172
895.405	14187
895.526	14111
895.648	14130
895.769	14206
895.891	14123
896.012	14168
896.134	14259
896.255	14244
896.376	14164
896.498	14221
896.619	14225
896.74	14305
896.861	14252
896.982	14522
897.103	14689
897.224	14503
897.345	14469
897.466	14427
897.587	14473
897.708	14526
897.828	14552
897.949	14552
898.07	14343
898.19	14454
898.311	14549
898.431	14533
898.552	14476
898.672	14689
898.792	14724
898.913	14560
899.033	14495
899.153	14480
899.273	14339
899.393	14442
899.513	14377
899.633	14473
899.753	14419
899.873	14427
899.993	14545
900.113	14355
900.232	14415
900.352	14381
900.472	14259
900.591	14320
900.711	14343
900.83	14202
900.95	14385
901.069	14370
901.189	14237
901.308	13986
901.427	13906
901.546	14020
901.665	13997
901.784	14084
901.904	13833
902.023	13791
902.141	13518
902.26	13468
902.379	13594
902.498	13499
902.617	13381
902.735	13537
902.854	13578
902.973	13445
903.091	13282
903.21	13232
903.328	13251
903.446	13247
903.565	13065
903.683	13110
903.801	12973
903.919	13110
904.038	13065
904.156	12825
904.274	12970
904.392	12863
904.51	12894
904.627	12935
904.745	12856
904.863	12989
904.981	12741
905.098	12563
905.216	12563
905.334	12597
905.451	12658
905.569	12642
905.686	12570
905.803	12635
905.921	12391
906.038	12551
906.155	12429
906.272	12323
906.389	12369
906.506	12201
906.623	12251
906.74	12205
906.857	12076
906.974	12167
907.091	12235
907.208	12289
907.324	12205
907.441	12163
907.557	11965
907.674	11999
907.79	11901
907.907	11916
908.023	11977
908.139	11980
908.256	11946
908.372	11882
908.488	11824
908.604	11748
908.72	11608
908.836	11707
908.952	11589
909.068	11661
909.184	11813
909.3	11668
909.415	11752
909.531	11771
909.647	11471
909.762	11414
909.878	11429
909.993	11490
910.108	11528
910.224	11410
910.339	11425
910.454	11349
910.57	11391
910.685	11277
910.8	11611
910.915	11516
911.03	11387
911.145	11174
911.259	11170
911.374	11208
911.489	11075
911.604	11041
911.718	10919
911.833	11025
911.947	10889
912.062	10752
912.176	10965
912.291	10877
912.405	10949
912.519	11155
912.633	11208
912.748	11067
912.862	10839
912.976	10847
913.09	10748
913.204	10831
913.318	10809
913.431	10953
913.545	10885
913.659	10885
913.772	10763
913.886	10710
914	10786
914.113	10820
914.226	10847
914.34	10752
914.453	10649
914.566	10805
914.68	10637
914.793	10641
914.906	10432
915.019	10398
915.132	10341
915.245	10428
915.358	10485
915.47	10428
915.583	10497
915.696	10508
915.809	10550
915.921	10596
916.034	10386
916.146	10421
916.259	10341
916.371	10481
916.483	10424
916.595	10360
916.708	10363
916.82	10325
916.932	10443
917.044	10337
917.156	10287
917.268	10196
917.38	10329
917.491	10314
917.603	10356
917.715	10356
917.826	10344
917.938	10318
918.049	10188
918.161	10242
918.272	10398
918.384	10363
918.495	10371
918.606	10124
918.717	10082
918.828	10181
918.939	10204
919.05	10128
919.161	10162
919.272	9991
919.383	10055
919.494	10333
919.604	10409
919.715	10204
919.826	10093
919.936	10158
920.047	10238
920.157	10188
920.267	10352
920.378	10223
920.488	10211
920.598	10322
920.708	10527
920.818	10405
920.928	10405
921.038	10592
921.148	10523
921.258	10280
921.368	10154
921.477	10040
921.587	10021
921.697	9930
921.806	10074
921.916	9930
922.025	9838
922.134	9724
922.244	9724
922.353	9789
922.462	9679
922.571	9561
922.68	9443
922.789	9359
922.898	9473
923.007	9359
923.116	9492
923.224	9443
923.333	9393
923.442	9355
923.55	9279
923.659	9291
923.767	9424
923.876	9245
923.984	9340
924.092	9256
924.201	9344
924.309	9253
924.417	9317
924.525	9218
924.633	9188
924.741	10006
924.849	9066
924.956	9283
925.064	9055
925.172	8994
925.279	9013
925.387	9097
925.494	9070
925.602	9245
925.709	9176
925.816	8982
925.924	9085
926.031	9123
926.138	9097
926.245	9154
926.352	9028
926.459	9173
926.566	9161
926.673	9009
926.779	8963
926.886	8925
926.993	8834
927.099	8754
927.206	8769
927.312	8781
927.419	8826
927.525	8834
927.631	8872
927.737	8708
927.843	8667
927.95	8556
928.056	8708
928.162	8659
928.267	8731
928.373	9306
928.479	8750
928.585	8514
928.69	8667
928.796	8693
928.901	8545
929.007	8461
929.112	8655
929.218	8564
929.323	8518
929.428	8518
929.533	8602
929.638	8389
929.743	8503
929.848	8450
929.953	8533
930.058	8355
930.163	8225
930.267	8351
930.372	8488
930.477	8199
930.581	8530
930.685	8393
930.79	8199
930.894	8248
930.998	8248
931.103	8374
931.207	8012
931.311	7974
931.415	7883
931.519	7769
931.623	7666
