Data from test_V78500241_3509.txt Node
Date: Fri Mar 25 14:58:09 CST 2022
User: usil
Spectrometer: V785-0024
Trigger mode: 0
Integration Time (sec): 4.000000E-1
Scans to average: 1
Nonlinearity correction enabled: false
Boxcar width: 0
Storing dark spectrum: false
XAxis mode: Wavelengths
Number of Pixels in Spectrum: 1024
>>>>>Begin Spectral Data<<<<<
801.071	22021
801.214	21869
801.356	21561
801.499	21549
801.641	21477
801.783	21302
801.926	21294
802.068	21211
802.211	21154
802.353	21157
802.496	20792
802.638	20777
802.78	20762
802.923	20651
803.065	20457
803.208	20556
803.35	20617
803.492	20758
803.635	20785
803.777	20621
803.919	20674
804.061	21055
804.204	20621
804.346	20621
804.488	20522
804.63	20518
804.773	20571
804.915	20526
805.057	20499
805.199	20530
805.341	20442
805.483	20674
805.626	20689
805.768	20328
805.91	20545
806.052	20583
806.194	20404
806.336	20625
806.478	20499
806.62	20343
806.762	20606
806.904	20609
807.046	20921
807.188	20941
807.33	20899
807.472	20891
807.614	20716
807.756	20788
807.898	20560
808.04	20564
808.182	20518
808.324	20632
808.465	20697
808.607	20762
808.749	20864
808.891	20967
809.033	21081
809.174	20918
809.316	20838
809.458	20708
809.6	20902
809.741	20918
809.883	20937
810.025	21058
810.166	20990
810.308	20979
810.45	20895
810.591	20864
810.733	20678
810.875	20689
811.016	20636
811.158	20476
811.299	20743
811.441	20819
811.582	20727
811.724	20594
811.865	20648
812.007	20571
812.148	20708
812.29	20648
812.431	20739
812.573	20944
812.714	21058
812.855	21142
812.997	21241
813.138	21325
813.279	21348
813.421	21218
813.562	21005
813.703	20861
813.845	20640
813.986	20499
814.127	20351
814.268	20202
814.41	20210
814.551	20134
814.692	20191
814.833	20168
814.974	20130
815.115	20130
815.256	20092
815.397	20027
815.539	19944
815.68	19913
815.821	19860
815.962	19936
816.103	19803
816.244	19757
816.385	19609
816.526	19514
816.666	19464
816.807	19308
816.948	19312
817.089	19312
817.23	19297
817.371	19274
817.512	19304
817.653	19301
817.793	19263
817.934	19297
818.075	19373
818.216	19244
818.356	19335
818.497	19171
818.638	18886
818.778	19000
818.919	19023
819.06	19145
819.2	19137
819.341	19168
819.481	19152
819.622	19396
819.762	19422
819.903	19502
820.043	19419
820.184	19365
820.324	19274
820.465	19381
820.605	19354
820.746	19263
820.886	19198
821.026	19225
821.167	19312
821.307	19320
821.447	19217
821.588	19107
821.728	19046
821.868	18894
822.008	18795
822.149	18620
822.289	18620
822.429	18467
822.569	18502
822.709	18433
822.849	18190
822.99	18133
823.13	18235
823.27	18201
823.41	17965
823.55	18030
823.69	18072
823.83	18095
823.97	17927
824.11	17817
824.25	17748
824.389	17798
824.529	17855
824.669	17604
824.809	17946
824.949	17794
825.089	17786
825.228	17695
825.368	17524
825.508	17562
825.648	17585
825.787	17589
825.927	17657
826.067	17600
826.206	17490
826.346	17608
826.485	17551
826.625	17539
826.765	17672
826.904	17585
827.044	17296
827.183	17284
827.323	17128
827.462	17334
827.601	17254
827.741	17185
827.88	17311
828.02	17064
828.159	17273
828.298	17330
828.437	17261
828.577	17220
828.716	17383
828.855	17124
828.994	17060
829.134	16904
829.273	17014
829.412	16919
829.551	16873
829.69	16957
829.829	16984
829.968	17022
830.107	17128
830.246	16980
830.385	17003
830.524	16923
830.663	16778
830.802	16763
830.941	16607
831.08	16611
831.219	16691
831.357	16645
831.496	16835
831.635	16641
831.774	16531
831.913	16508
832.051	16352
832.19	16451
832.329	16470
832.467	16386
832.606	16230
832.744	16360
832.883	16352
833.022	16249
833.16	16413
833.299	16348
833.437	16417
833.576	16314
833.714	16318
833.852	16314
833.991	16462
834.129	16478
834.267	16443
834.406	16508
834.544	16466
834.682	16447
834.821	16371
834.959	16607
835.097	16344
835.235	16474
835.373	16371
835.511	16546
835.65	16352
835.788	16287
835.926	16147
836.064	15972
836.202	16120
836.34	16299
836.478	16447
836.615	16284
836.753	16402
836.891	16386
837.029	16341
837.167	16276
837.305	16211
837.443	16162
837.58	16173
837.718	16291
837.856	16246
837.993	16128
838.131	16234
838.269	16135
838.406	16158
838.544	16040
838.681	15873
838.819	15816
838.956	15766
839.094	15755
839.231	15762
839.369	15922
839.506	16192
839.643	15869
839.781	15800
839.918	15622
840.055	15724
840.193	15667
840.33	15766
840.467	15728
840.604	15743
840.742	15998
840.879	15553
841.016	15717
841.153	15644
841.29	15850
841.427	15842
841.564	15701
841.701	15759
841.838	15629
841.975	15660
842.112	15675
842.249	15622
842.385	15416
842.522	15713
842.659	15584
842.796	15526
842.933	15538
843.069	15511
843.206	15519
843.343	15545
843.479	15542
843.616	15595
843.752	15272
843.889	15363
844.025	15496
844.162	15321
844.298	15374
844.435	15298
844.571	15344
844.708	15374
844.844	15466
844.98	15454
845.117	15454
845.253	15279
845.389	15176
845.525	15332
845.661	15279
845.798	15077
845.934	15074
846.07	15138
846.206	15176
846.342	15249
846.478	15024
846.614	14906
846.75	14842
846.886	14880
847.022	14956
847.158	14838
847.294	14937
847.429	14876
847.565	14853
847.701	15100
847.837	14686
847.972	14552
848.108	14762
848.244	14629
848.379	14507
848.515	14537
848.65	14408
848.786	14419
848.921	14579
849.057	14522
849.192	14480
849.328	14537
849.463	14476
849.598	14450
849.734	14484
849.869	14419
850.004	14415
850.14	14278
850.275	14180
850.41	14084
850.545	14244
850.68	14214
850.815	14256
850.95	14259
851.085	14499
851.22	14347
851.355	14328
851.49	14244
851.625	14183
851.76	14142
851.895	14157
852.03	14092
852.165	14214
852.299	14180
852.434	14278
852.569	14343
852.703	14313
852.838	14339
852.973	14427
853.107	14385
853.242	14134
853.376	14210
853.511	13986
853.645	14005
853.78	14138
853.914	14157
854.048	14043
854.183	14065
854.317	14168
854.451	14374
854.585	14107
854.72	14065
854.854	14149
854.988	14016
855.122	14077
855.256	13868
855.39	14103
855.524	14218
855.658	14176
855.792	14081
855.926	14119
856.06	14187
856.194	14218
856.327	14115
856.461	14016
856.595	14084
856.729	14123
856.862	14202
856.996	14218
857.13	14172
857.263	14267
857.397	14263
857.53	14214
857.664	14172
857.797	14142
857.931	14214
858.064	14145
858.197	14176
858.331	14172
858.464	13982
858.597	14008
858.731	14039
858.864	14130
858.997	14100
859.13	14142
859.263	14191
859.396	14240
859.529	14161
859.662	14153
859.795	14111
859.928	14065
860.061	14183
860.194	14290
860.327	14119
860.46	14081
860.592	14244
860.725	14343
860.858	14187
860.99	14134
861.123	14046
861.256	13993
861.388	14130
861.521	14929
861.653	14058
861.786	13852
861.918	13978
862.05	14016
862.183	14096
862.315	14111
862.447	14103
862.58	14016
862.712	13868
862.844	13818
862.976	13967
863.108	13852
863.24	14229
863.372	13852
863.504	13986
863.636	13993
863.768	13989
863.9	13860
864.032	13826
864.164	13868
864.296	13978
864.428	13997
864.559	14077
864.691	14031
864.823	13967
864.954	13978
865.086	13947
865.217	13940
865.349	13826
865.48	13898
865.612	13883
865.743	14050
865.875	13902
866.006	13769
866.137	13940
866.269	13875
866.4	13837
866.531	13909
866.662	13765
866.793	13868
866.924	13795
867.055	13864
867.186	13868
867.317	13879
867.448	13860
867.579	13826
867.71	13845
867.841	13784
867.972	13856
868.103	13902
868.233	13875
868.364	13890
868.495	13955
868.625	14077
868.756	14191
868.886	14157
869.017	14077
869.147	14195
869.278	14138
869.408	14172
869.539	14271
869.669	14214
869.799	14206
869.929	14343
870.06	14195
870.19	14438
870.32	14404
870.45	14393
870.58	14514
870.71	14689
870.84	14712
870.97	14598
871.1	14590
871.23	14826
871.36	14781
871.489	14682
871.619	14773
871.749	14720
871.879	14849
872.008	14861
872.138	14743
872.267	14758
872.397	14625
872.526	14556
872.656	14594
872.785	14587
872.915	14815
873.044	14918
873.173	14819
873.303	14838
873.432	14845
873.561	14979
873.69	14807
873.819	14762
873.948	14979
874.077	14857
874.206	14876
874.335	14891
874.464	14963
874.593	15157
874.722	15097
874.851	15268
874.979	15260
875.108	15211
875.237	15203
875.365	15108
875.494	15161
875.623	15260
875.751	15142
875.88	15188
876.008	15336
876.136	15370
876.265	15507
876.393	15648
876.521	15720
876.65	15682
876.778	15568
876.906	15572
877.034	15523
877.162	15595
877.29	15504
877.418	15595
877.546	15572
877.674	15561
877.802	15538
877.93	15477
878.058	15504
878.185	15477
878.313	15542
878.441	15545
878.568	15469
878.696	15439
878.824	15648
878.951	15625
879.079	15717
879.206	15865
879.333	15800
879.461	15622
879.588	15682
879.715	15797
879.842	15808
879.97	15667
880.097	15370
880.224	15336
880.351	15447
880.478	15431
880.605	15424
880.732	15351
880.859	15660
880.986	15473
881.112	15473
881.239	15321
881.366	15294
881.493	15097
881.619	15085
881.746	15070
881.872	15051
881.999	14979
882.125	15032
882.252	15100
882.378	15055
882.505	15203
882.631	15036
882.757	14906
882.883	15062
883.01	14883
883.136	14872
883.262	14765
883.388	14743
883.514	15062
883.64	14952
883.766	14895
883.892	14716
884.018	14743
884.143	14918
884.269	14929
884.395	14663
884.52	14511
884.646	14583
884.772	14533
884.897	14556
885.023	14560
885.148	14674
885.274	14792
885.399	14792
885.524	14564
885.65	14632
885.775	14590
885.9	14545
886.025	14720
886.15	14663
886.275	14507
886.4	14552
886.525	14552
886.65	14507
886.775	14499
886.9	14689
887.025	14796
887.149	14594
887.274	14431
887.399	14404
887.523	14343
887.648	14278
887.773	14240
887.897	14522
888.021	14427
888.146	14358
888.27	14511
888.395	14587
888.519	14461
888.643	14552
888.767	14499
888.891	14396
889.015	14263
889.139	14267
889.263	14286
889.387	14317
889.511	14408
889.635	14385
889.759	14298
889.883	14248
890.006	14362
890.13	14400
890.254	14290
890.377	14244
890.501	14062
890.624	14115
890.748	14161
890.871	14123
890.995	14031
891.118	13944
891.241	14008
891.364	14058
891.488	14157
891.611	13993
891.734	13997
891.857	14058
891.98	14088
892.103	14191
892.226	14046
892.349	13982
892.471	13879
892.594	14024
892.717	13989
892.839	13917
892.962	14008
893.085	14077
893.207	13982
893.33	13906
893.452	13879
893.575	14016
893.697	13978
893.819	14233
893.941	14275
894.064	14115
894.186	14039
894.308	13940
894.43	14161
894.552	14206
894.674	14240
894.796	14012
894.918	14084
895.04	14092
895.161	14183
895.283	14145
895.405	14043
895.526	14115
895.648	14172
895.769	14145
895.891	14130
896.012	14214
896.134	14267
896.255	14176
896.376	14229
896.498	14092
896.619	14134
896.74	14126
896.861	14282
896.982	14545
897.103	14606
897.224	14469
897.345	14480
897.466	14339
897.587	14396
897.708	14617
897.828	14495
897.949	14408
898.07	14301
898.19	14381
898.311	14526
898.431	14476
898.552	14579
898.672	14670
898.792	14571
898.913	14610
899.033	14476
899.153	14298
899.273	14240
899.393	14385
899.513	14385
899.633	14389
899.753	14366
899.873	14336
899.993	14457
900.113	14290
900.232	14396
900.352	14290
900.472	14370
900.591	14271
900.711	14290
900.83	14225
900.95	14267
901.069	14301
901.189	14221
901.308	14016
901.427	13799
901.546	13932
901.665	13982
901.784	13921
901.904	13791
902.023	13723
902.141	13556
902.26	13426
902.379	13559
902.498	13548
902.617	13358
902.735	13552
902.854	13483
902.973	13434
903.091	13263
903.21	13244
903.328	13244
903.446	13259
903.565	13057
903.683	13057
903.801	12977
903.919	13019
904.038	13042
904.156	12863
904.274	12939
904.392	12856
904.51	12882
904.627	12840
904.745	12932
904.863	12886
904.981	12749
905.098	12631
905.216	12513
905.334	12639
905.451	12604
905.569	12570
905.686	12597
905.803	12616
905.921	12418
906.038	12566
906.155	12403
906.272	12270
906.389	12350
906.506	12232
906.623	12209
906.74	12186
906.857	12060
906.974	12129
907.091	12304
907.208	12346
907.324	12239
907.441	12064
907.557	11954
907.674	11916
907.79	11904
907.907	11901
908.023	11946
908.139	11893
908.256	11828
908.372	11798
908.488	11931
908.604	11707
908.72	11646
908.836	11653
908.952	11691
909.068	11691
909.184	11790
909.3	11615
909.415	11748
909.531	11699
909.647	11493
909.762	11398
909.878	11471
909.993	11490
910.108	11391
910.224	11398
910.339	11478
910.454	11334
910.57	11349
910.685	11288
910.8	11528
910.915	11482
911.03	11284
911.145	11204
911.259	11132
911.374	11147
911.489	11033
911.604	11102
911.718	10881
911.833	10942
911.947	10809
912.062	10706
912.176	10881
912.291	10938
912.405	10965
912.519	11079
912.633	11033
912.748	10915
912.862	10862
912.976	10831
913.09	10656
913.204	10816
913.318	10763
913.431	10862
913.545	10949
913.659	10911
913.772	10736
913.886	10664
914	10634
914.113	10797
914.226	10763
914.34	10793
914.453	10645
914.566	10710
914.68	10615
914.793	10588
914.906	10421
915.019	10356
915.132	10409
915.245	10421
915.358	10447
915.47	10436
915.583	10489
915.696	10394
915.809	10554
915.921	10618
916.034	10371
916.146	10341
916.259	10341
916.371	10504
916.483	10459
916.595	10417
916.708	10398
916.82	10405
916.932	10371
917.044	10409
917.156	10333
917.268	10207
917.38	10291
917.491	10185
917.603	10272
917.715	10360
917.826	10413
917.938	10230
918.049	10158
918.161	10238
918.272	10386
918.384	10394
918.495	10238
918.606	10044
918.717	10112
918.828	10124
918.939	10185
919.05	10074
919.161	10074
919.272	9968
919.383	9991
919.494	10166
919.604	10375
919.715	10112
919.826	10078
919.936	10109
920.047	10223
920.157	10169
920.267	10348
920.378	10173
920.488	10139
920.598	10360
920.708	10485
920.818	10318
920.928	10322
921.038	10443
921.148	10500
921.258	10249
921.368	10158
921.477	10025
921.587	10017
921.697	9953
921.806	10010
921.916	9808
922.025	9781
922.134	9686
922.244	9743
922.353	9732
922.462	9591
922.571	9545
922.68	9435
922.789	9302
922.898	9401
923.007	9378
923.116	9435
923.224	9348
923.333	9424
923.442	9329
923.55	9256
923.659	9321
923.767	9367
923.876	9275
923.984	9332
924.092	9192
924.201	9310
924.309	9321
924.417	9241
924.525	9222
924.633	9207
924.741	10032
924.849	9020
924.956	9146
925.064	9093
925.172	9001
925.279	9077
925.387	9100
925.494	9097
925.602	9230
925.709	9135
925.816	8990
925.924	9093
926.031	9150
926.138	9074
926.245	9093
926.352	9005
926.459	9108
926.566	9146
926.673	9085
926.779	8948
926.886	8975
926.993	8834
927.099	8754
927.206	8754
927.312	8735
927.419	8845
927.525	8769
927.631	8815
927.737	8651
927.843	8708
927.95	8606
928.056	8583
928.162	8693
928.267	8655
928.373	9370
928.479	8849
928.585	8495
928.69	8655
928.796	8724
928.901	8602
929.007	8431
929.112	8602
929.218	8568
929.323	8469
929.428	8484
929.533	8545
929.638	8404
929.743	8454
929.848	8564
929.953	8518
930.058	8324
930.163	8271
930.267	8271
930.372	8438
930.477	8225
930.581	8442
930.685	8408
930.79	8195
930.894	8244
930.998	8176
931.103	8313
931.207	8012
931.311	8012
931.415	7913
931.519	7719
931.623	7708
