Data from test_V78500241_488.txt Node
Date: Fri Mar 25 14:37:07 CST 2022
User: usil
Spectrometer: V785-0024
Trigger mode: 0
Integration Time (sec): 4.000000E-1
Scans to average: 1
Nonlinearity correction enabled: false
Boxcar width: 0
Storing dark spectrum: false
XAxis mode: Wavelengths
Number of Pixels in Spectrum: 1024
>>>>>Begin Spectral Data<<<<<
801.071	26465
801.214	26450
801.356	26282
801.499	26199
801.641	26020
801.783	25970
801.926	26058
802.068	25811
802.211	25944
802.353	25807
802.496	25761
802.638	25594
802.78	25563
802.923	25556
803.065	25422
803.208	25578
803.35	25628
803.492	25548
803.635	25651
803.777	25457
803.919	25518
804.061	25894
804.204	25479
804.346	25381
804.488	25438
804.63	25445
804.773	25377
804.915	25415
805.057	25620
805.199	25453
805.341	25495
805.483	25647
805.626	25369
805.768	25362
805.91	25514
806.052	25464
806.194	25415
806.336	25521
806.478	25651
806.62	25453
806.762	25518
806.904	25830
807.046	25989
807.188	25826
807.33	25864
807.472	25875
807.614	25849
807.756	25795
807.898	25811
808.04	25662
808.182	25719
808.324	25814
808.465	26043
808.607	26138
808.749	26298
808.891	26313
809.033	26431
809.174	26332
809.316	26263
809.458	26142
809.6	26126
809.741	26153
809.883	26271
810.025	26290
810.166	26290
810.308	26244
810.45	26168
810.591	26210
810.733	25986
810.875	25932
811.016	25791
811.158	25750
811.299	25852
811.441	25913
811.582	25841
811.724	25799
811.865	25769
812.007	25700
812.148	25837
812.29	25833
812.431	26024
812.573	26161
812.714	26168
812.855	26218
812.997	26545
813.138	26598
813.279	26396
813.421	26252
813.562	26263
813.703	26073
813.845	25944
813.986	25772
814.127	25521
814.268	25403
814.41	25479
814.551	25358
814.692	25381
814.833	25259
814.974	25308
815.115	25293
815.256	25198
815.397	25259
815.539	25255
815.68	25012
815.821	25091
815.962	25251
816.103	25156
816.244	24954
816.385	24844
816.526	24833
816.666	24616
816.807	24559
816.948	24540
817.089	24593
817.23	24597
817.371	24517
817.512	24494
817.653	24422
817.793	24513
817.934	24445
818.075	24479
818.216	24547
818.356	24338
818.497	24315
818.638	24247
818.778	24140
818.919	24209
819.06	24163
819.2	24304
819.341	24353
819.481	24353
819.622	24540
819.762	24669
819.903	24517
820.043	24604
820.184	24426
820.324	24570
820.465	24494
820.605	24475
820.746	24372
820.886	24311
821.026	24475
821.167	24426
821.307	24479
821.447	24319
821.588	24174
821.728	24140
821.868	23874
822.008	23954
822.149	23908
822.289	23843
822.429	23482
822.569	23444
822.709	23349
822.849	23292
822.99	23337
823.13	23208
823.27	23197
823.41	23006
823.55	22934
823.69	22965
823.83	23083
823.97	22869
824.11	22854
824.25	22706
824.389	22908
824.529	22892
824.669	22778
824.809	22858
824.949	22927
825.089	22949
825.228	22698
825.368	22649
825.508	22664
825.648	22440
825.787	22649
825.927	22649
826.067	22603
826.206	22584
826.346	22634
826.485	22641
826.625	22527
826.765	22733
826.904	22664
827.044	22280
827.183	22382
827.323	22188
827.462	22314
827.601	22246
827.741	22238
827.88	22185
828.02	22299
828.159	22261
828.298	22200
828.437	22291
828.577	22204
828.716	22333
828.855	22268
828.994	22070
829.134	22029
829.273	22029
829.412	21854
829.551	21694
829.69	21968
829.829	21983
829.968	21945
830.107	21922
830.246	22010
830.385	21918
830.524	21808
830.663	21842
830.802	21671
830.941	21576
831.08	21492
831.219	21526
831.357	21656
831.496	21789
831.635	21515
831.774	21492
831.913	21428
832.051	21420
832.19	21272
832.329	21317
832.467	21287
832.606	21135
832.744	20998
832.883	21058
833.022	21112
833.16	21169
833.299	21169
833.437	21256
833.576	21218
833.714	21203
833.852	21173
833.991	21272
834.129	21344
834.267	21226
834.406	21214
834.544	21116
834.682	21211
834.821	21173
834.959	21249
835.097	21233
835.235	21313
835.373	21188
835.511	21203
835.65	21024
835.788	21150
835.926	20944
836.064	20910
836.202	20914
836.34	20963
836.478	21116
836.615	21074
836.753	21051
836.891	21058
837.029	21074
837.167	21028
837.305	20883
837.443	20864
837.58	20834
837.718	21077
837.856	20933
837.993	20872
838.131	20918
838.269	20811
838.406	20811
838.544	20682
838.681	20560
838.819	20518
838.956	20343
839.094	20370
839.231	20351
839.369	20431
839.506	20735
839.643	20495
839.781	20317
839.918	20305
840.055	20275
840.193	20495
840.33	20221
840.467	20286
840.604	20244
840.742	20454
840.879	20062
841.016	20134
841.153	20122
841.29	20282
841.427	20362
841.564	20271
841.701	20199
841.838	20252
841.975	20210
842.112	20145
842.249	20103
842.385	19978
842.522	20214
842.659	20046
842.796	19856
842.933	20024
843.069	19959
843.206	19955
843.343	20031
843.479	19925
843.616	19959
843.752	19765
843.889	19826
844.025	19932
844.162	19734
844.298	19837
844.435	19704
844.571	19818
844.708	19746
844.844	19913
844.98	19974
845.117	19898
845.253	19814
845.389	19651
845.525	19700
845.661	19788
845.798	19704
845.934	19868
846.07	19856
846.206	19940
846.342	19959
846.478	19719
846.614	19495
846.75	19240
846.886	19297
847.022	19365
847.158	19183
847.294	19304
847.429	19259
847.565	19160
847.701	19403
847.837	19027
847.972	19012
848.108	19008
848.244	18973
848.379	18935
848.515	18730
848.65	18779
848.786	18787
848.921	18856
849.057	18875
849.192	18897
849.328	18806
849.463	18760
849.598	18783
849.734	18696
849.869	18570
850.004	18570
850.14	18578
850.275	18654
850.41	18532
850.545	18448
850.68	18467
850.815	18506
850.95	18441
851.085	18711
851.22	18582
851.355	18544
851.49	18456
851.625	18456
851.76	18467
851.895	18376
852.03	18361
852.165	18376
852.299	18544
852.434	18506
852.569	18456
852.703	18498
852.838	18490
852.973	18597
853.107	18654
853.242	18407
853.376	18422
853.511	18224
853.645	18251
853.78	18456
853.914	18311
854.048	18273
854.183	18235
854.317	18445
854.451	18532
854.585	18281
854.72	18235
854.854	18506
854.988	18247
855.122	18323
855.256	18182
855.39	18300
855.524	18399
855.658	18292
855.792	18399
855.926	18308
856.06	18289
856.194	18490
856.327	18357
856.461	18391
856.595	18327
856.729	18311
856.862	18376
856.996	18190
857.13	18384
857.263	18296
857.397	18285
857.53	18262
857.664	18441
857.797	18403
857.931	18369
858.064	18433
858.197	18292
858.331	18243
858.464	18148
858.597	18167
858.731	18190
858.864	18239
858.997	18254
859.13	18239
859.263	18239
859.396	18475
859.529	18182
859.662	18258
859.795	18209
859.928	18190
860.061	18414
860.194	18418
860.327	18327
860.46	18205
860.592	18384
860.725	18330
860.858	18277
860.99	18167
861.123	18114
861.256	18243
861.388	18319
861.521	18935
861.653	18076
861.786	18079
861.918	18076
862.05	18159
862.183	18327
862.315	18277
862.447	18365
862.58	18258
862.712	18038
862.844	17893
862.976	18030
863.108	18030
863.24	18498
863.372	17946
863.504	18011
863.636	18022
863.768	18026
863.9	17920
864.032	17969
864.164	17824
864.296	18030
864.428	18076
864.559	18121
864.691	17916
864.823	18038
864.954	17946
865.086	17980
865.217	17927
865.349	17859
865.48	17882
865.612	18038
865.743	17996
865.875	17920
866.006	17821
866.137	17935
866.269	17893
866.4	17863
866.531	17916
866.662	17847
866.793	18003
866.924	17897
867.055	17897
867.186	17802
867.317	17771
867.448	17760
867.579	17885
867.71	17798
867.841	17817
867.972	17866
868.103	17840
868.233	17817
868.364	17828
868.495	17969
868.625	18007
868.756	18194
868.886	17973
869.017	18087
869.147	18205
869.278	18163
869.408	17965
869.539	18064
869.669	18209
869.799	18106
869.929	18197
870.06	18087
870.19	18361
870.32	18346
870.45	18452
870.58	18467
870.71	18498
870.84	18707
870.97	18471
871.1	18399
871.23	18597
871.36	18669
871.489	18525
871.619	18574
871.749	18681
871.879	18601
872.008	18867
872.138	18639
872.267	18673
872.397	18593
872.526	18464
872.656	18509
872.785	18521
872.915	18696
873.044	18688
873.173	18635
873.303	18772
873.432	18726
873.561	18669
873.69	18646
873.819	18726
873.948	18741
874.077	18745
874.206	18726
874.335	18776
874.464	18825
874.593	18996
874.722	18939
874.851	18954
874.979	19061
875.108	18951
875.237	18913
875.365	18863
875.494	18878
875.623	19076
875.751	19076
875.88	19050
876.008	19076
876.136	19225
876.265	19396
876.393	19434
876.521	19453
876.65	19544
876.778	19464
876.906	19358
877.034	19354
877.162	19556
877.29	19331
877.418	19514
877.546	19293
877.674	19445
877.802	19388
877.93	19339
878.058	19316
878.185	19339
878.313	19453
878.441	19415
878.568	19141
878.696	19350
878.824	19506
878.951	19460
879.079	19685
879.206	19868
879.333	19727
879.461	19609
879.588	19753
879.715	19841
879.842	19871
879.97	19529
880.097	19381
880.224	19339
880.351	19362
880.478	19358
880.605	19263
880.732	19301
880.859	19582
880.986	19324
881.112	19266
881.239	19217
881.366	19038
881.493	19053
881.619	18920
881.746	18981
881.872	18882
881.999	18848
882.125	18837
882.252	18954
882.378	18928
882.505	19042
882.631	18719
882.757	18719
882.883	18715
883.01	18753
883.136	18738
883.262	18506
883.388	18486
883.514	18639
883.64	18753
883.766	18620
883.892	18418
884.018	18479
884.143	18585
884.269	18726
884.395	18433
884.52	18353
884.646	18369
884.772	18235
884.897	18311
885.023	18357
885.148	18369
885.274	18506
885.399	18384
885.524	18361
885.65	18384
885.775	18319
885.9	18338
886.025	18296
886.15	18433
886.275	18178
886.4	18114
886.525	18262
886.65	18243
886.775	18167
886.9	18357
887.025	18429
887.149	18247
887.274	18117
887.399	18098
887.523	18125
887.648	17946
887.773	17942
887.897	18171
888.021	18068
888.146	18007
888.27	18102
888.395	18171
888.519	18091
888.643	18007
888.767	17999
888.891	18007
889.015	17870
889.139	17923
889.263	17939
889.387	18030
889.511	18114
889.635	17977
889.759	17870
889.883	17885
890.006	17954
890.13	17973
890.254	17889
890.377	17802
890.501	17764
890.624	17691
890.748	17737
890.871	17642
890.995	17520
891.118	17395
891.241	17573
891.364	17532
891.488	17600
891.611	17551
891.734	17406
891.857	17497
891.98	17482
892.103	17482
892.226	17600
892.349	17395
892.471	17235
892.594	17452
892.717	17520
892.839	17364
892.962	17406
893.085	17505
893.207	17368
893.33	17349
893.452	17417
893.575	17554
893.697	17459
893.819	17642
893.941	17699
894.064	17478
894.186	17406
894.308	17395
894.43	17554
894.552	17627
894.674	17490
894.796	17231
894.918	17501
895.04	17425
895.161	17547
895.283	17497
895.405	17379
895.526	17490
895.648	17292
895.769	17509
895.891	17455
896.012	17554
896.134	17581
896.255	17539
896.376	17611
896.498	17611
896.619	17440
896.74	17528
896.861	17570
896.982	17882
897.103	17923
897.224	17863
897.345	17847
897.466	17668
897.587	17676
897.708	17851
897.828	17847
897.949	17695
898.07	17646
898.19	17741
898.311	17843
898.431	17729
898.552	17821
898.672	17885
898.792	17786
898.913	17851
899.033	17703
899.153	17608
899.273	17524
899.393	17512
899.513	17638
899.633	17459
899.753	17630
899.873	17524
899.993	17566
900.113	17528
900.232	17535
900.352	17524
900.472	17322
900.591	17395
900.711	17425
900.83	17353
900.95	17535
901.069	17493
901.189	17334
901.308	17132
901.427	17113
901.546	16946
901.665	17071
901.784	16976
901.904	16831
902.023	16835
902.141	16717
902.26	16656
902.379	16596
902.498	16504
902.617	16561
902.735	16653
902.854	16405
902.973	16440
903.091	16242
903.21	16078
903.328	16287
903.446	16169
903.565	16074
903.683	16082
903.801	16002
903.919	16055
904.038	15972
904.156	15797
904.274	15823
904.392	15827
904.51	15846
904.627	15778
904.745	15884
904.863	15804
904.981	15633
905.098	15557
905.216	15469
905.334	15557
905.451	15454
905.569	15458
905.686	15526
905.803	15477
905.921	15230
906.038	15306
906.155	15287
906.272	15131
906.389	15173
906.506	14933
906.623	15043
906.74	15005
906.857	14895
906.974	14887
907.091	15154
907.208	15108
907.324	15093
907.441	14811
907.557	14724
907.674	14701
907.79	14678
907.907	14697
908.023	14648
908.139	14697
908.256	14568
908.372	14693
908.488	14648
908.604	14518
908.72	14412
908.836	14438
908.952	14484
909.068	14488
909.184	14514
909.3	14400
909.415	14450
909.531	14465
909.647	14214
909.762	14195
909.878	14054
909.993	14225
910.108	14168
910.224	14103
910.339	14126
910.454	14005
910.57	13921
910.685	13917
910.8	14168
910.915	14130
911.03	13936
911.145	13841
911.259	13731
911.374	13681
911.489	13696
911.604	13685
911.718	13521
911.833	13605
911.947	13343
912.062	13453
912.176	13483
912.291	13582
912.405	13529
912.519	13738
912.633	13746
912.748	13616
912.862	13518
912.976	13270
913.09	13304
913.204	13365
913.318	13358
913.431	13381
913.545	13464
913.659	13472
913.772	13343
913.886	13198
914	13156
914.113	13316
914.226	13392
914.34	13240
914.453	13141
914.566	13285
914.68	13198
914.793	13069
914.906	12981
915.019	12886
915.132	12856
915.245	13000
915.358	12905
915.47	13038
915.583	12951
915.696	12989
915.809	13023
915.921	13057
916.034	12939
916.146	12802
916.259	12802
916.371	12916
916.483	12897
916.595	12787
916.708	12772
916.82	12715
916.932	12730
917.044	12726
917.156	12757
917.268	12608
917.38	12566
917.491	12601
917.603	12715
917.715	12726
917.826	12726
917.938	12616
918.049	12521
918.161	12574
918.272	12703
918.384	12669
918.495	12692
918.606	12544
918.717	12410
918.828	12544
918.939	12418
919.05	12273
919.161	12350
919.272	12209
919.383	12277
919.494	12448
919.604	12612
919.715	12525
919.826	12376
919.936	12452
920.047	12494
920.157	12532
920.267	12604
920.378	12437
920.488	12418
920.598	12566
920.708	12764
920.818	12612
920.928	12578
921.038	12734
921.148	12700
921.258	12441
921.368	12384
921.477	12232
921.587	12201
921.697	12167
921.806	12197
921.916	11977
922.025	11927
922.134	11866
922.244	11885
922.353	11821
922.462	11672
922.571	11733
922.68	11528
922.789	11539
922.898	11604
923.007	11455
923.116	11554
923.224	11501
923.333	11520
923.442	11459
923.55	11349
923.659	11463
923.767	11436
923.876	11349
923.984	11395
924.092	11216
924.201	11376
924.309	11349
924.417	11345
924.525	11326
924.633	11277
924.741	12220
924.849	11048
924.956	11181
925.064	11109
925.172	10972
925.279	11048
925.387	11064
925.494	11090
925.602	11212
925.709	11117
925.816	11064
925.924	11075
926.031	11128
926.138	11090
926.245	11121
926.352	11037
926.459	11079
926.566	11075
926.673	11003
926.779	10904
926.886	10908
926.993	10767
927.099	10706
927.206	10672
927.312	10717
927.419	10877
927.525	10714
927.631	10679
927.737	10599
927.843	10554
927.95	10527
928.056	10603
928.162	10565
928.267	10577
928.373	11132
928.479	10714
928.585	10405
928.69	10455
928.796	10573
928.901	10508
929.007	10291
929.112	10462
929.218	10436
929.323	10299
929.428	10303
929.533	10459
929.638	10295
929.743	10310
929.848	10432
929.953	10295
930.058	10196
930.163	10036
930.267	10078
930.372	10215
930.477	10036
930.581	10253
930.685	10139
930.79	9876
930.894	9945
930.998	9941
931.103	10044
931.207	9694
931.311	9633
931.415	9591
931.519	9382
931.623	9367
