Data from test_V78500241_2513.txt Node
Date: Fri Mar 25 14:51:12 CST 2022
User: usil
Spectrometer: V785-0024
Trigger mode: 0
Integration Time (sec): 4.000000E-1
Scans to average: 1
Nonlinearity correction enabled: false
Boxcar width: 0
Storing dark spectrum: false
XAxis mode: Wavelengths
Number of Pixels in Spectrum: 1024
>>>>>Begin Spectral Data<<<<<
801.071	22086
801.214	21880
801.356	21781
801.499	21656
801.641	21424
801.783	21488
801.926	21420
802.068	21344
802.211	21378
802.353	21233
802.496	21100
802.638	20937
802.78	20967
802.923	20788
803.065	20667
803.208	20632
803.35	20758
803.492	20792
803.635	20963
803.777	20735
803.919	20792
804.061	21192
804.204	20883
804.346	20602
804.488	20659
804.63	20826
804.773	20587
804.915	20731
805.057	20781
805.199	20651
805.341	20735
805.483	20800
805.626	20781
805.768	20754
805.91	20712
806.052	20720
806.194	20621
806.336	20941
806.478	20625
806.62	20636
806.762	20705
806.904	20864
807.046	21096
807.188	21032
807.33	20994
807.472	21001
807.614	20933
807.756	20891
807.898	20807
808.04	20762
808.182	20716
808.324	20712
808.465	20857
808.607	20815
808.749	21074
808.891	21081
809.033	21214
809.174	21074
809.316	20880
809.458	20982
809.6	21013
809.741	21051
809.883	20998
810.025	21184
810.166	21218
810.308	21119
810.45	21176
810.591	21081
810.733	20979
810.875	20823
811.016	20701
811.158	20819
811.299	20811
811.441	20956
811.582	20876
811.724	20842
811.865	20796
812.007	20659
812.148	20845
812.29	20914
812.431	20998
812.573	21123
812.714	21249
812.855	21313
812.997	21420
813.138	21500
813.279	21428
813.421	21317
813.562	21233
813.703	21085
813.845	21039
813.986	20712
814.127	20495
814.268	20415
814.41	20476
814.551	20389
814.692	20404
814.833	20309
814.974	20347
815.115	20389
815.256	20164
815.397	20229
815.539	20263
815.68	20138
815.821	20126
815.962	20096
816.103	20100
816.244	19871
816.385	19932
816.526	19856
816.666	19609
816.807	19415
816.948	19525
817.089	19578
817.23	19518
817.371	19472
817.512	19514
817.653	19563
817.793	19480
817.934	19464
818.075	19476
818.216	19487
818.356	19403
818.497	19324
818.638	19160
818.778	19293
818.919	19088
819.06	19133
819.2	19365
819.341	19453
819.481	19384
819.622	19544
819.762	19590
819.903	19487
820.043	19472
820.184	19434
820.324	19362
820.465	19480
820.605	19449
820.746	19510
820.886	19377
821.026	19331
821.167	19362
821.307	19521
821.447	19343
821.588	19324
821.728	19236
821.868	19027
822.008	18878
822.149	18916
822.289	18821
822.429	18574
822.569	18623
822.709	18532
822.849	18327
822.99	18353
823.13	18380
823.27	18239
823.41	18209
823.55	18019
823.69	18201
823.83	18194
823.97	18152
824.11	18015
824.25	17954
824.389	18022
824.529	17923
824.669	17889
824.809	18022
824.949	18007
825.089	18034
825.228	17992
825.368	17813
825.508	17771
825.648	17790
825.787	17817
825.927	17752
826.067	17596
826.206	17714
826.346	17809
826.485	17786
826.625	17790
826.765	17863
826.904	17672
827.044	17501
827.183	17509
827.323	17376
827.462	17493
827.601	17448
827.741	17459
827.88	17448
828.02	17315
828.159	17364
828.298	17440
828.437	17467
828.577	17444
828.716	17486
828.855	17322
828.994	17223
829.134	17033
829.273	17185
829.412	17136
829.551	17147
829.69	17105
829.829	17208
829.968	17284
830.107	17121
830.246	17193
830.385	17227
830.524	17189
830.663	16953
830.802	16809
830.941	16816
831.08	16763
831.219	16820
831.357	16790
831.496	17124
831.635	16816
831.774	16733
831.913	16691
832.051	16542
832.19	16634
832.329	16637
832.467	16538
832.606	16443
832.744	16565
832.883	16493
833.022	16443
833.16	16493
833.299	16637
833.437	16516
833.576	16500
833.714	16455
833.852	16596
833.991	16516
834.129	16443
834.267	16546
834.406	16554
834.544	16599
834.682	16691
834.821	16577
834.959	16767
835.097	16417
835.235	16744
835.373	16645
835.511	16584
835.65	16447
835.788	16459
835.926	16318
836.064	16306
836.202	16318
836.34	16443
836.478	16478
836.615	16443
836.753	16599
836.891	16531
837.029	16550
837.167	16432
837.305	16356
837.443	16413
837.58	16226
837.718	16360
837.856	16280
837.993	16310
838.131	16333
838.269	16272
838.406	16280
838.544	16162
838.681	16082
838.819	16051
838.956	15819
839.094	15884
839.231	15911
839.369	16036
839.506	16295
839.643	16112
839.781	15937
839.918	15968
840.055	15873
840.193	15869
840.33	15888
840.467	15926
840.604	15876
840.742	16131
840.879	15652
841.016	15846
841.153	15732
841.29	15991
841.427	15831
841.564	15899
841.701	15899
841.838	15804
841.975	15785
842.112	15781
842.249	15694
842.385	15591
842.522	15869
842.659	15667
842.796	15701
842.933	15557
843.069	15610
843.206	15553
843.343	15717
843.479	15633
843.616	15709
843.752	15450
843.889	15496
844.025	15568
844.162	15393
844.298	15454
844.435	15405
844.571	15393
844.708	15534
844.844	15534
844.98	15572
845.117	15584
845.253	15389
845.389	15313
845.525	15397
845.661	15351
845.798	15195
845.934	15283
846.07	15249
846.206	15291
846.342	15386
846.478	15272
846.614	15039
846.75	15009
846.886	14883
847.022	15093
847.158	15013
847.294	15051
847.429	14979
847.565	14925
847.701	15203
847.837	14735
847.972	14819
848.108	14769
848.244	14895
848.379	14674
848.515	14568
848.65	14594
848.786	14629
848.921	14648
849.057	14788
849.192	14762
849.328	14594
849.463	14651
849.598	14530
849.734	14526
849.869	14446
850.004	14434
850.14	14431
850.275	14415
850.41	14366
850.545	14324
850.68	14362
850.815	14320
850.95	14419
851.085	14533
851.22	14488
851.355	14377
851.49	14332
851.625	14446
851.76	14358
851.895	14309
852.03	14317
852.165	14324
852.299	14419
852.434	14423
852.569	14446
852.703	14480
852.838	14408
852.973	14629
853.107	14560
853.242	14328
853.376	14320
853.511	14103
853.645	14202
853.78	14370
853.914	14153
854.048	14187
854.183	14237
854.317	14237
854.451	14412
854.585	14244
854.72	14218
854.854	14328
854.988	14271
855.122	14305
855.256	14134
855.39	14187
855.524	14366
855.658	14370
855.792	14320
855.926	14377
856.06	14377
856.194	14423
856.327	14305
856.461	14157
856.595	14180
856.729	14286
856.862	14347
856.996	14298
857.13	14358
857.263	14366
857.397	14492
857.53	14278
857.664	14320
857.797	14328
857.931	14480
858.064	14366
858.197	14404
858.331	14218
858.464	14252
858.597	14275
858.731	14237
858.864	14214
858.997	14210
859.13	14336
859.263	14309
859.396	14240
859.529	14225
859.662	14229
859.795	14267
859.928	14347
860.061	14393
860.194	14427
860.327	14339
860.46	14309
860.592	14351
860.725	14396
860.858	14332
860.99	14237
861.123	14218
861.256	14191
861.388	14263
861.521	14944
861.653	14084
861.786	14077
861.918	14157
862.05	14263
862.183	14309
862.315	14362
862.447	14374
862.58	14218
862.712	14054
862.844	14027
862.976	14164
863.108	14103
863.24	14484
863.372	13967
863.504	14008
863.636	14039
863.768	14027
863.9	14031
864.032	14039
864.164	13986
864.296	14008
864.428	14138
864.559	14149
864.691	14126
864.823	14096
864.954	14142
865.086	14100
865.217	14069
865.349	13947
865.48	14050
865.612	14027
865.743	14164
865.875	14100
866.006	14107
866.137	14016
866.269	14050
866.4	14043
866.531	13917
866.662	13959
866.793	13982
866.924	14088
867.055	14046
867.186	14103
867.317	13936
867.448	13875
867.579	13936
867.71	13879
867.841	14031
867.972	14054
868.103	14058
868.233	14050
868.364	14039
868.495	14111
868.625	14320
868.756	14404
868.886	14221
869.017	14237
869.147	14404
869.278	14419
869.408	14381
869.539	14275
869.669	14347
869.799	14358
869.929	14347
870.06	14427
870.19	14594
870.32	14541
870.45	14625
870.58	14644
870.71	14697
870.84	14800
870.97	14674
871.1	14606
871.23	14887
871.36	14868
871.489	14762
871.619	14739
871.749	14933
871.879	14895
872.008	14986
872.138	14857
872.267	14815
872.397	14769
872.526	14804
872.656	14796
872.785	14636
872.915	14975
873.044	14956
873.173	14994
873.303	14952
873.432	15036
873.561	15051
873.69	14895
873.819	14944
873.948	15032
874.077	14967
874.206	14883
874.335	15024
874.464	15184
874.593	15207
874.722	15169
874.851	15249
874.979	15264
875.108	15325
875.237	15291
875.365	15272
875.494	15169
875.623	15408
875.751	15268
875.88	15336
876.008	15458
876.136	15534
876.265	15660
876.393	15835
876.521	15739
876.65	15724
876.778	15667
876.906	15504
877.034	15595
877.162	15587
877.29	15553
877.418	15793
877.546	15762
877.674	15591
877.802	15679
877.93	15728
878.058	15671
878.185	15637
878.313	15637
878.441	15660
878.568	15500
878.696	15698
878.824	15724
878.951	15690
879.079	15819
879.206	15895
879.333	15842
879.461	15713
879.588	15732
879.715	15972
879.842	15945
879.97	15755
880.097	15534
880.224	15545
880.351	15595
880.478	15477
880.605	15447
880.732	15454
880.859	15690
880.986	15519
881.112	15454
881.239	15462
881.366	15355
881.493	15252
881.619	15161
881.746	15233
881.872	15161
881.999	15051
882.125	15154
882.252	15207
882.378	15222
882.505	15302
882.631	15066
882.757	14956
882.883	15017
883.01	15119
883.136	14883
883.262	14887
883.388	14823
883.514	15032
883.64	15032
883.766	14982
883.892	14800
884.018	14895
884.143	15005
884.269	15085
884.395	14708
884.52	14659
884.646	14788
884.772	14571
884.897	14587
885.023	14731
885.148	14826
885.274	14944
885.399	14804
885.524	14644
885.65	14693
885.775	14823
885.9	14617
886.025	14819
886.15	14777
886.275	14632
886.4	14583
886.525	14613
886.65	14579
886.775	14533
886.9	14868
887.025	14921
887.149	14716
887.274	14518
887.399	14412
887.523	14514
887.648	14507
887.773	14457
887.897	14556
888.021	14590
888.146	14507
888.27	14621
888.395	14708
888.519	14530
888.643	14541
888.767	14617
888.891	14469
889.015	14412
889.139	14362
889.263	14320
889.387	14393
889.511	14693
889.635	14484
889.759	14355
889.883	14381
890.006	14317
890.13	14454
890.254	14351
890.377	14400
890.501	14161
890.624	14183
890.748	14248
890.871	14062
890.995	14073
891.118	14043
891.241	14096
891.364	14073
891.488	14172
891.611	14096
891.734	14035
891.857	14123
891.98	13982
892.103	14195
892.226	14096
892.349	14142
892.471	13860
892.594	14123
892.717	14111
892.839	14012
892.962	14153
893.085	14157
893.207	14134
893.33	14008
893.452	14008
893.575	14187
893.697	14050
893.819	14191
893.941	14278
894.064	14248
894.186	14054
894.308	14142
894.43	14252
894.552	14237
894.674	14313
894.796	14012
894.918	14138
895.04	14214
895.161	14138
895.283	14237
895.405	14225
895.526	14210
895.648	14214
895.769	14240
895.891	14149
896.012	14278
896.134	14252
896.255	14278
896.376	14252
896.498	14168
896.619	14233
896.74	14278
896.861	14324
896.982	14568
897.103	14746
897.224	14560
897.345	14499
897.466	14461
897.587	14495
897.708	14587
897.828	14522
897.949	14423
898.07	14393
898.19	14461
898.311	14674
898.431	14678
898.552	14648
898.672	14689
898.792	14648
898.913	14636
899.033	14598
899.153	14404
899.273	14278
899.393	14533
899.513	14511
899.633	14457
899.753	14469
899.873	14450
899.993	14450
900.113	14469
900.232	14499
900.352	14396
900.472	14339
900.591	14290
900.711	14366
900.83	14248
900.95	14454
901.069	14393
901.189	14248
901.308	14008
901.427	13997
901.546	14069
901.665	14001
901.784	14081
901.904	13898
902.023	13746
902.141	13632
902.26	13514
902.379	13795
902.498	13624
902.617	13407
902.735	13575
902.854	13567
902.973	13499
903.091	13232
903.21	13339
903.328	13327
903.446	13251
903.565	13088
903.683	13149
903.801	13012
903.919	13099
904.038	13091
904.156	12996
904.274	12989
904.392	12962
904.51	12962
904.627	12878
904.745	12909
904.863	13027
904.981	12760
905.098	12719
905.216	12620
905.334	12700
905.451	12642
905.569	12559
905.686	12631
905.803	12753
905.921	12498
906.038	12540
906.155	12547
906.272	12380
906.389	12384
906.506	12304
906.623	12243
906.74	12270
906.857	12114
906.974	12171
907.091	12289
907.208	12346
907.324	12281
907.441	12194
907.557	12030
907.674	11961
907.79	11901
907.907	11893
908.023	12053
908.139	11999
908.256	11939
908.372	11931
908.488	11859
908.604	11748
908.72	11718
908.836	11760
908.952	11672
909.068	11756
909.184	11851
909.3	11699
909.415	11729
909.531	11748
909.647	11562
909.762	11532
909.878	11516
909.993	11509
910.108	11425
910.224	11391
910.339	11493
910.454	11425
910.57	11398
910.685	11250
910.8	11703
910.915	11543
911.03	11356
911.145	11193
911.259	11170
911.374	11258
911.489	11159
911.604	11124
911.718	11045
911.833	11022
911.947	10877
912.062	10778
912.176	10949
912.291	10999
912.405	10866
912.519	11223
912.633	11254
912.748	11018
912.862	10946
912.976	10938
913.09	10721
913.204	10702
913.318	10774
913.431	10908
913.545	10965
913.659	10957
913.772	10824
913.886	10679
914	10683
914.113	10869
914.226	10900
914.34	10839
914.453	10611
914.566	10763
914.68	10683
914.793	10736
914.906	10493
915.019	10417
915.132	10432
915.245	10497
915.358	10485
915.47	10561
915.583	10538
915.696	10527
915.809	10580
915.921	10565
916.034	10485
916.146	10447
916.259	10333
916.371	10580
916.483	10451
916.595	10417
916.708	10443
916.82	10421
916.932	10440
917.044	10394
917.156	10371
917.268	10223
917.38	10382
917.491	10360
917.603	10352
917.715	10432
917.826	10493
917.938	10318
918.049	10173
918.161	10318
918.272	10409
918.384	10474
918.495	10325
918.606	10177
918.717	10143
918.828	10188
918.939	10188
919.05	10036
919.161	10139
919.272	9953
919.383	10055
919.494	10295
919.604	10337
919.715	10234
919.826	10192
919.936	10265
920.047	10337
920.157	10249
920.267	10371
920.378	10204
920.488	10234
920.598	10466
920.708	10512
920.818	10470
920.928	10421
921.038	10596
921.148	10519
921.258	10287
921.368	10158
921.477	10071
921.587	9972
921.697	9934
921.806	10067
921.916	9934
922.025	9743
922.134	9770
922.244	9770
922.353	9797
922.462	9724
922.571	9637
922.68	9515
922.789	9431
922.898	9408
923.007	9428
923.116	9496
923.224	9435
923.333	9329
923.442	9374
923.55	9351
923.659	9268
923.767	9393
923.876	9291
923.984	9462
924.092	9237
924.201	9310
924.309	9351
924.417	9344
924.525	9237
924.633	9348
924.741	10246
924.849	9070
924.956	9287
925.064	9066
925.172	8998
925.279	9085
925.387	9203
925.494	9097
925.602	9298
925.709	9184
925.816	9051
925.924	9074
926.031	9241
926.138	9119
926.245	9089
926.352	9024
926.459	9173
926.566	9195
926.673	9055
926.779	8986
926.886	8952
926.993	8819
927.099	8777
927.206	8792
927.312	8773
927.419	8883
927.525	8883
927.631	8838
927.737	8746
927.843	8720
927.95	8560
928.056	8640
928.162	8701
928.267	8766
928.373	9420
928.479	8842
928.585	8613
928.69	8705
928.796	8716
928.901	8598
929.007	8556
929.112	8552
929.218	8571
929.323	8625
929.428	8560
929.533	8678
929.638	8518
929.743	8514
929.848	8655
929.953	8552
930.058	8438
930.163	8259
930.267	8328
930.372	8454
930.477	8290
930.581	8537
930.685	8431
930.79	8290
930.894	8267
930.998	8214
931.103	8412
931.207	8077
931.311	7982
931.415	7932
931.519	7738
931.623	7727
