Data from test_V78500241_1470.txt Node
Date: Fri Mar 25 14:43:57 CST 2022
User: usil
Spectrometer: V785-0024
Trigger mode: 0
Integration Time (sec): 4.000000E-1
Scans to average: 1
Nonlinearity correction enabled: false
Boxcar width: 0
Storing dark spectrum: false
XAxis mode: Wavelengths
Number of Pixels in Spectrum: 1024
>>>>>Begin Spectral Data<<<<<
801.071	22318
801.214	22375
801.356	22025
801.499	21926
801.641	21762
801.783	21876
801.926	21850
802.068	21644
802.211	21519
802.353	21644
802.496	21367
802.638	21359
802.78	21268
802.923	21077
803.065	21203
803.208	21169
803.35	21135
803.492	21252
803.635	21161
803.777	21135
803.919	21188
804.061	21526
804.204	21142
804.346	21085
804.488	20998
804.63	21039
804.773	20990
804.915	21066
805.057	21123
805.199	21119
805.341	21195
805.483	21138
805.626	21214
805.768	21081
805.91	21142
806.052	21017
806.194	20967
806.336	21150
806.478	21150
806.62	21024
806.762	21176
806.904	21245
807.046	21469
807.188	21450
807.33	21405
807.472	21370
807.614	21408
807.756	21408
807.898	21348
808.04	21161
808.182	21176
808.324	21336
808.465	21367
808.607	21496
808.749	21774
808.891	21679
809.033	21903
809.174	21682
809.316	21614
809.458	21576
809.6	21496
809.741	21679
809.883	21507
810.025	21743
810.166	21618
810.308	21648
810.45	21572
810.591	21568
810.733	21317
810.875	21317
811.016	21154
811.158	21104
811.299	21214
811.441	21397
811.582	21370
811.724	21298
811.865	21233
812.007	21138
812.148	21317
812.29	21264
812.431	21538
812.573	21606
812.714	21515
812.855	21724
812.997	21842
813.138	21812
813.279	21930
813.421	21774
813.562	21622
813.703	21412
813.845	21488
813.986	21070
814.127	20990
814.268	20781
814.41	20773
814.551	20792
814.692	20830
814.833	20735
814.974	20777
815.115	20724
815.256	20560
815.397	20651
815.539	20590
815.68	20488
815.821	20533
815.962	20594
816.103	20514
816.244	20381
816.385	20298
816.526	20153
816.666	20050
816.807	19936
816.948	20020
817.089	20054
817.23	19970
817.371	19970
817.512	20001
817.653	19852
817.793	19890
817.934	19871
818.075	19944
818.216	19879
818.356	19811
818.497	19772
818.638	19578
818.778	19666
818.919	19674
819.06	19651
819.2	19761
819.341	19883
819.481	19826
819.622	19986
819.762	20024
819.903	20065
820.043	19944
820.184	19898
820.324	19902
820.465	19940
820.605	19898
820.746	19868
820.886	19696
821.026	19837
821.167	19944
821.307	19932
821.447	19871
821.588	19635
821.728	19521
821.868	19449
822.008	19346
822.149	19263
822.289	19339
822.429	19065
822.569	19023
822.709	18924
822.849	18738
822.99	18867
823.13	18802
823.27	18642
823.41	18574
823.55	18585
823.69	18593
823.83	18517
823.97	18547
824.11	18426
824.25	18407
824.389	18361
824.529	18456
824.669	18395
824.809	18502
824.949	18437
825.089	18525
825.228	18445
825.368	18273
825.508	18174
825.648	18091
825.787	18235
825.927	18140
826.067	18209
826.206	17996
826.346	18011
826.485	18167
826.625	18152
826.765	18216
826.904	18114
827.044	17927
827.183	17893
827.323	17821
827.462	17935
827.601	17817
827.741	17714
827.88	17874
828.02	17676
828.159	17790
828.298	17824
828.437	17942
828.577	17733
828.716	17965
828.855	17767
828.994	17558
829.134	17581
829.273	17558
829.412	17699
829.551	17577
829.69	17615
829.829	17615
829.968	17653
830.107	17543
830.246	17512
830.385	17490
830.524	17623
830.663	17414
830.802	17364
830.941	17181
831.08	17102
831.219	17208
831.357	17322
831.496	17478
831.635	17166
831.774	17124
831.913	17094
832.051	17124
832.19	17086
832.329	17121
832.467	16774
832.606	16839
832.744	16923
832.883	16866
833.022	16915
833.16	16889
833.299	16984
833.437	16953
833.576	16862
833.714	16946
833.852	16968
833.991	16995
834.129	17022
834.267	17121
834.406	16771
834.544	17033
834.682	17052
834.821	16816
834.959	17105
835.097	16927
835.235	17045
835.373	16942
835.511	16987
835.65	16805
835.788	16698
835.926	16687
836.064	16672
836.202	16816
836.34	16889
836.478	17003
836.615	16812
836.753	16927
836.891	16927
837.029	16889
837.167	16828
837.305	16729
837.443	16694
837.58	16561
837.718	16740
837.856	16660
837.993	16679
838.131	16809
838.269	16519
838.406	16630
838.544	16603
838.681	16588
838.819	16489
838.956	16154
839.094	16242
839.231	16371
839.369	16318
839.506	16626
839.643	16523
839.781	16306
839.918	16169
840.055	16322
840.193	16246
840.33	16215
840.467	16215
840.604	16299
840.742	16512
840.879	16082
841.016	16105
841.153	16188
841.29	16432
841.427	16291
841.564	16295
841.701	16280
841.838	16234
841.975	16093
842.112	16246
842.249	16109
842.385	15960
842.522	16139
842.659	16063
842.796	16029
842.933	16086
843.069	15899
843.206	16013
843.343	16124
843.479	16025
843.616	16071
843.752	15785
843.889	15751
844.025	16002
844.162	15717
844.298	15854
844.435	15842
844.571	15724
844.708	15823
844.844	15953
844.98	16078
845.117	15945
845.253	15751
845.389	15819
845.525	15884
845.661	15865
845.798	15770
845.934	15865
846.07	15865
846.206	15960
846.342	15934
846.478	15698
846.614	15549
846.75	15412
846.886	15321
847.022	15405
847.158	15534
847.294	15298
847.429	15420
847.565	15302
847.701	15587
847.837	15142
847.972	14933
848.108	15203
848.244	15123
848.379	15119
848.515	14998
848.65	14933
848.786	14910
848.921	14845
849.057	15123
849.192	15081
849.328	15047
849.463	14967
849.598	14918
849.734	14899
849.869	14880
850.004	14765
850.14	14781
850.275	14731
850.41	14651
850.545	14697
850.68	14758
850.815	14758
850.95	14823
851.085	14967
851.22	14815
851.355	14701
851.49	14712
851.625	14701
851.76	14674
851.895	14606
852.03	14587
852.165	14727
852.299	14724
852.434	14887
852.569	14716
852.703	14754
852.838	14670
852.973	14849
853.107	14891
853.242	14678
853.376	14617
853.511	14514
853.645	14617
853.78	14739
853.914	14659
854.048	14610
854.183	14541
854.317	14590
854.451	14785
854.585	14651
854.72	14473
854.854	14598
854.988	14541
855.122	14602
855.256	14556
855.39	14594
855.524	14705
855.658	14575
855.792	14590
855.926	14621
856.06	14583
856.194	14705
856.327	14568
856.461	14503
856.595	14526
856.729	14636
856.862	14682
856.996	14610
857.13	14571
857.263	14708
857.397	14667
857.53	14621
857.664	14648
857.797	14651
857.931	14762
858.064	14632
858.197	14743
858.331	14526
858.464	14560
858.597	14381
858.731	14568
858.864	14533
858.997	14575
859.13	14613
859.263	14689
859.396	14686
859.529	14583
859.662	14571
859.795	14495
859.928	14598
860.061	14743
860.194	14769
860.327	14545
860.46	14499
860.592	14667
860.725	14667
860.858	14708
860.99	14659
861.123	14533
861.256	14541
861.388	14571
861.521	15192
861.653	14514
861.786	14377
861.918	14503
862.05	14537
862.183	14434
862.315	14484
862.447	14663
862.58	14476
862.712	14442
862.844	14336
862.976	14404
863.108	14370
863.24	14842
863.372	14313
863.504	14461
863.636	14370
863.768	14480
863.9	14442
864.032	14317
864.164	14309
864.296	14362
864.428	14476
864.559	14480
864.691	14457
864.823	14385
864.954	14408
865.086	14358
865.217	14336
865.349	14214
865.48	14370
865.612	14332
865.743	14480
865.875	14419
866.006	14294
866.137	14332
866.269	14320
866.4	14389
866.531	14370
866.662	14324
866.793	14377
866.924	14377
867.055	14400
867.186	14286
867.317	14240
867.448	14263
867.579	14214
867.71	14206
867.841	14142
867.972	14366
868.103	14355
868.233	14355
868.364	14396
868.495	14427
868.625	14590
868.756	14689
868.886	14434
869.017	14556
869.147	14716
869.278	14587
869.408	14514
869.539	14686
869.669	14735
869.799	14720
869.929	14708
870.06	14686
870.19	14967
870.32	14807
870.45	14849
870.58	15062
870.71	15127
870.84	15077
870.97	15017
871.1	14963
871.23	15188
871.36	15241
871.489	14998
871.619	15173
871.749	15157
871.879	15233
872.008	15241
872.138	15218
872.267	15264
872.397	15058
872.526	14948
872.656	14948
872.785	14982
872.915	15176
873.044	15306
873.173	15180
873.303	15211
873.432	15245
873.561	15294
873.69	15203
873.819	15241
873.948	15203
874.077	15222
874.206	15169
874.335	15241
874.464	15386
874.593	15568
874.722	15439
874.851	15443
874.979	15542
875.108	15679
875.237	15549
875.365	15542
875.494	15488
875.623	15606
875.751	15485
875.88	15530
876.008	15679
876.136	15781
876.265	15918
876.393	16055
876.521	16048
876.65	16029
876.778	15968
876.906	15975
877.034	15831
877.162	15865
877.29	15937
877.418	15956
877.546	15953
877.674	15953
877.802	16013
877.93	15941
878.058	15964
878.185	15800
878.313	16021
878.441	15968
878.568	15724
878.696	15998
878.824	15983
878.951	16097
879.079	16158
879.206	16272
879.333	16234
879.461	16200
879.588	16169
879.715	16276
879.842	16417
879.97	16169
880.097	15964
880.224	15888
880.351	15884
880.478	15899
880.605	15869
880.732	15861
880.859	16063
880.986	15880
881.112	15854
881.239	15736
881.366	15572
881.493	15580
881.619	15496
881.746	15549
881.872	15500
881.999	15443
882.125	15386
882.252	15545
882.378	15530
882.505	15584
882.631	15462
882.757	15306
882.883	15355
883.01	15416
883.136	15272
883.262	15173
883.388	15169
883.514	15329
883.64	15389
883.766	15233
883.892	15066
884.018	15157
884.143	15275
884.269	15302
884.395	15055
884.52	15077
884.646	15024
884.772	14937
884.897	14895
885.023	14967
885.148	15100
885.274	15146
885.399	15112
885.524	15009
885.65	14994
885.775	15077
885.9	14895
886.025	15100
886.15	15097
886.275	15074
886.4	14967
886.525	14941
886.65	14781
886.775	14895
886.9	15173
887.025	15226
887.149	15001
887.274	14750
887.399	14686
887.523	14834
887.648	14663
887.773	14769
887.897	14933
888.021	14823
888.146	14781
888.27	14891
888.395	14979
888.519	14906
888.643	14845
888.767	14861
888.891	14705
889.015	14697
889.139	14739
889.263	14678
889.387	14731
889.511	14883
889.635	14804
889.759	14552
889.883	14663
890.006	14686
890.13	14845
890.254	14598
890.377	14659
890.501	14412
890.624	14438
890.748	14419
890.871	14450
890.995	14275
891.118	14336
891.241	14332
891.364	14332
891.488	14549
891.611	14263
891.734	14328
891.857	14457
891.98	14320
892.103	14457
892.226	14419
892.349	14332
892.471	14206
892.594	14336
892.717	14374
892.839	14290
892.962	14366
893.085	14381
893.207	14347
893.33	14168
893.452	14298
893.575	14377
893.697	14328
893.819	14522
893.941	14560
894.064	14507
894.186	14347
894.308	14271
894.43	14488
894.552	14549
894.674	14533
894.796	14366
894.918	14484
895.04	14408
895.161	14511
895.283	14522
895.405	14423
895.526	14446
895.648	14507
895.769	14465
895.891	14499
896.012	14511
896.134	14571
896.255	14571
896.376	14522
896.498	14533
896.619	14575
896.74	14606
896.861	14670
896.982	14899
897.103	15074
897.224	14906
897.345	14800
897.466	14868
897.587	14880
897.708	15047
897.828	14872
897.949	14743
898.07	14773
898.19	14785
898.311	14918
898.431	14868
898.552	14868
898.672	14967
898.792	15017
898.913	14857
899.033	14815
899.153	14830
899.273	14667
899.393	14712
899.513	14705
899.633	14834
899.753	14807
899.873	14762
899.993	14727
900.113	14705
900.232	14807
900.352	14697
900.472	14632
900.591	14610
900.711	14575
900.83	14526
900.95	14746
901.069	14686
901.189	14678
901.308	14404
901.427	14294
901.546	14366
901.665	14358
901.784	14404
901.904	14221
902.023	14126
902.141	13822
902.26	13871
902.379	13940
902.498	13856
902.617	13871
902.735	13807
902.854	13826
902.973	13811
903.091	13563
903.21	13616
903.328	13578
903.446	13343
903.565	13445
903.683	13518
903.801	13335
903.919	13438
904.038	13339
904.156	13316
904.274	13335
904.392	13206
904.51	13175
904.627	13240
904.745	13274
904.863	13274
904.981	13027
905.098	12951
905.216	12890
905.334	12951
905.451	12947
905.569	12928
905.686	12928
905.803	12966
905.921	12798
906.038	12734
906.155	12817
906.272	12684
906.389	12684
906.506	12570
906.623	12551
906.74	12471
906.857	12369
906.974	12403
907.091	12601
907.208	12631
907.324	12521
907.441	12460
907.557	12270
907.674	12262
907.79	12182
907.907	12262
908.023	12342
908.139	12273
908.256	12178
908.372	12205
908.488	12152
908.604	12015
908.72	12026
908.836	12003
908.952	12019
909.068	11992
909.184	12072
909.3	12026
909.415	12064
909.531	12003
909.647	11737
909.762	11916
909.878	11745
909.993	11767
910.108	11760
910.224	11760
910.339	11794
910.454	11668
910.57	11600
910.685	11551
910.8	11866
910.915	11737
911.03	11638
911.145	11486
911.259	11493
911.374	11452
911.489	11387
911.604	11379
911.718	11269
911.833	11227
911.947	11075
912.062	11048
912.176	11216
912.291	11147
912.405	11239
912.519	11395
912.633	11440
912.748	11265
912.862	11235
912.976	11113
913.09	10915
913.204	11033
913.318	11048
913.431	11166
913.545	11121
913.659	11128
913.772	11056
913.886	10934
914	10892
914.113	11105
914.226	11155
914.34	11037
914.453	10858
914.566	11029
914.68	10919
914.793	10972
914.906	10782
915.019	10755
915.132	10637
915.245	10717
915.358	10710
915.47	10710
915.583	10752
915.696	10778
915.809	10930
915.921	10847
916.034	10675
916.146	10698
916.259	10618
916.371	10774
916.483	10706
916.595	10664
916.708	10672
916.82	10637
916.932	10672
917.044	10687
917.156	10630
917.268	10542
917.38	10580
917.491	10500
917.603	10569
917.715	10615
917.826	10607
917.938	10436
918.049	10497
918.161	10535
918.272	10744
918.384	10668
918.495	10599
918.606	10447
918.717	10333
918.828	10531
918.939	10402
919.05	10333
919.161	10390
919.272	10223
919.383	10325
919.494	10470
919.604	10596
919.715	10363
919.826	10363
919.936	10379
920.047	10516
920.157	10485
920.267	10626
920.378	10409
920.488	10440
920.598	10656
920.708	10759
920.818	10622
920.928	10607
921.038	10786
921.148	10793
921.258	10413
921.368	10371
921.477	10295
921.587	10238
921.697	10188
921.806	10325
921.916	10169
922.025	10013
922.134	9972
922.244	10032
922.353	10025
922.462	9869
922.571	9857
922.68	9652
922.789	9675
922.898	9717
923.007	9625
923.116	9679
923.224	9591
923.333	9701
923.442	9530
923.55	9500
923.659	9584
923.767	9633
923.876	9534
923.984	9629
924.092	9485
924.201	9580
924.309	9545
924.417	9492
924.525	9526
924.633	9545
924.741	10325
924.849	9294
924.956	9412
925.064	9313
925.172	9192
925.279	9283
925.387	9351
925.494	9294
925.602	9428
925.709	9336
925.816	9256
925.924	9302
926.031	9329
926.138	9336
926.245	9355
926.352	9218
926.459	9386
926.566	9359
926.673	9275
926.779	9184
926.886	9100
926.993	9062
927.099	9066
927.206	8975
927.312	8925
927.419	9039
927.525	9020
927.631	9009
927.737	8986
927.843	8899
927.95	8777
928.056	8868
928.162	8929
928.267	9001
928.373	9557
928.479	9085
928.585	8788
928.69	8941
928.796	8933
928.901	8804
929.007	8670
929.112	8800
929.218	8727
929.323	8720
929.428	8724
929.533	8944
929.638	8621
929.743	8735
929.848	8766
929.953	8769
930.058	8667
930.163	8507
930.267	8507
930.372	8579
930.477	8476
930.581	8727
930.685	8530
930.79	8476
930.894	8480
930.998	8419
931.103	8594
931.207	8142
931.311	8206
931.415	8103
931.519	7944
931.623	7871
