Data from test_V78500241_167.txt Node
Date: Fri Mar 25 14:34:53 CST 2022
User: usil
Spectrometer: V785-0024
Trigger mode: 0
Integration Time (sec): 4.000000E-1
Scans to average: 1
Nonlinearity correction enabled: false
Boxcar width: 0
Storing dark spectrum: false
XAxis mode: Wavelengths
Number of Pixels in Spectrum: 1024
>>>>>Begin Spectral Data<<<<<
801.071	28664
801.214	28497
801.356	28234
801.499	28367
801.641	28211
801.783	28162
801.926	28211
802.068	28086
802.211	28048
802.353	27975
802.496	27789
802.638	27842
802.78	27793
802.923	27717
803.065	27762
803.208	27564
803.35	27876
803.492	27759
803.635	27865
803.777	27850
803.919	27949
804.061	28230
804.204	28025
804.346	27835
804.488	27793
804.63	27861
804.773	27759
804.915	27888
805.057	27911
805.199	27895
805.341	28006
805.483	28059
805.626	27964
805.768	27800
805.91	28070
806.052	28074
806.194	27953
806.336	28379
806.478	28105
806.62	28040
806.762	28200
806.904	28394
807.046	28607
807.188	28717
807.33	28759
807.472	28797
807.614	28767
807.756	29151
807.898	28934
808.04	29326
808.182	29520
808.324	30098
808.465	30418
808.607	30947
808.749	31392
808.891	31712
809.033	31750
809.174	31434
809.316	30958
809.458	30456
809.6	29950
809.741	29767
809.883	29509
810.025	29326
810.166	29258
810.308	29048
810.45	28976
810.591	28942
810.733	28691
810.875	28599
811.016	28401
811.158	28265
811.299	28557
811.441	28637
811.582	28554
811.724	28428
811.865	28272
812.007	28356
812.148	28390
812.29	28413
812.431	28588
812.573	28698
812.714	28538
812.855	28980
812.997	28748
813.138	28942
813.279	28923
813.421	28812
813.562	28805
813.703	28573
813.845	28611
813.986	28131
814.127	27876
814.268	27907
814.41	27838
814.551	27648
814.692	27979
814.833	27724
814.974	27964
815.115	27888
815.256	27743
815.397	27667
815.539	27781
815.68	27625
815.821	27507
815.962	27679
816.103	27488
816.244	27427
816.385	27233
816.526	27260
816.666	27047
816.807	26921
816.948	26982
817.089	27104
817.23	26891
817.371	26929
817.512	27089
817.653	26823
817.793	26960
817.934	26910
818.075	26994
818.216	26914
818.356	26819
818.497	26762
818.638	26651
818.778	26640
818.919	26674
819.06	26716
819.2	26834
819.341	26876
819.481	26861
819.622	27055
819.762	27119
819.903	26998
820.043	26990
820.184	26929
820.324	26834
820.465	27036
820.605	26933
820.746	26982
820.886	26705
821.026	26838
821.167	27024
821.307	26826
821.447	26857
821.588	26564
821.728	26457
821.868	26419
822.008	26237
822.149	26317
822.289	26282
822.429	25970
822.569	25921
822.709	25917
822.849	25552
822.99	25658
823.13	25605
823.27	25613
823.41	25514
823.55	25422
823.69	25460
823.83	25453
823.97	25373
824.11	25202
824.25	25103
824.389	25308
824.529	25202
824.669	25244
824.809	25392
824.949	25225
825.089	25377
825.228	25377
825.368	25141
825.508	25061
825.648	25129
825.787	25042
825.927	25057
826.067	25000
826.206	24913
826.346	25145
826.485	25057
826.625	25038
826.765	25129
826.904	25080
827.044	24806
827.183	24844
827.323	24623
827.462	24932
827.601	24749
827.741	24665
827.88	24639
828.02	24631
828.159	24650
828.298	24757
828.437	24791
828.577	24658
828.716	24829
828.855	24547
828.994	24452
829.134	24540
829.273	24391
829.412	24281
829.551	24281
829.69	24456
829.829	24483
829.968	24429
830.107	24486
830.246	24391
830.385	24418
830.524	24319
830.663	24110
830.802	24030
830.941	24030
831.08	23904
831.219	24121
831.357	23927
831.496	24190
831.635	23828
831.774	23843
831.913	23973
832.051	23737
832.19	23741
832.329	23699
832.467	23634
832.606	23691
832.744	23741
832.883	23691
833.022	23524
833.16	23554
833.299	23752
833.437	23649
833.576	23729
833.714	23790
833.852	23824
833.991	23878
834.129	23912
834.267	23813
834.406	23699
834.544	23866
834.682	23847
834.821	23638
834.959	23889
835.097	23604
835.235	23699
835.373	23596
835.511	23657
835.65	23463
835.788	23307
835.926	23360
836.064	23258
836.202	23227
836.34	23551
836.478	23566
836.615	23303
836.753	23433
836.891	23433
837.029	23505
837.167	23235
837.305	23296
837.443	23284
837.58	23212
837.718	23193
837.856	23121
837.993	23185
838.131	23311
838.269	23071
838.406	23185
838.544	23071
838.681	22850
838.819	22797
838.956	22645
839.094	22710
839.231	22767
839.369	22847
839.506	23029
839.643	22927
839.781	22744
839.918	22561
840.055	22607
840.193	22618
840.33	22485
840.467	22691
840.604	22504
840.742	22847
840.879	22417
841.016	22466
841.153	22493
841.29	22713
841.427	22550
841.564	22603
841.701	22466
841.838	22440
841.975	22443
842.112	22409
842.249	22337
842.385	22192
842.522	22398
842.659	22284
842.796	22382
842.933	22367
843.069	22131
843.206	22086
843.343	22238
843.479	22291
843.616	22322
843.752	22067
843.889	22051
844.025	22211
844.162	22032
844.298	22242
844.435	21960
844.571	22048
844.708	22226
844.844	22413
844.98	22394
845.117	22409
845.253	22409
845.389	22611
845.525	23159
845.661	23794
845.798	24627
845.934	25502
846.07	25811
846.206	25502
846.342	25065
846.478	24068
846.614	23124
846.75	22436
846.886	22185
847.022	21975
847.158	21682
847.294	21720
847.429	21656
847.565	21530
847.701	21793
847.837	21287
847.972	21294
848.108	21397
848.244	21214
848.379	21245
848.515	21165
848.65	21051
848.786	21005
848.921	20979
849.057	21173
849.192	21150
849.328	21020
849.463	21047
849.598	21020
849.734	20975
849.869	20876
850.004	20823
850.14	20750
850.275	20765
850.41	20659
850.545	20705
850.68	20701
850.815	20682
850.95	20765
851.085	20921
851.22	20857
851.355	20602
851.49	20762
851.625	20670
851.76	20609
851.895	20640
852.03	20754
852.165	20689
852.299	20823
852.434	20830
852.569	20750
852.703	20754
852.838	20788
852.973	20895
853.107	20899
853.242	20655
853.376	20670
853.511	20526
853.645	20488
853.78	20735
853.914	20731
854.048	20473
854.183	20609
854.317	20552
854.451	20758
854.585	20568
854.72	20495
854.854	20625
854.988	20579
855.122	20621
855.256	20579
855.39	20530
855.524	20594
855.658	20556
855.792	20549
855.926	20590
856.06	20686
856.194	20549
856.327	20537
856.461	20530
856.595	20495
856.729	20518
856.862	20632
856.996	20609
857.13	20606
857.263	20571
857.397	20632
857.53	20564
857.664	20469
857.797	20602
857.931	20594
858.064	20522
858.197	20648
858.331	20484
858.464	20358
858.597	20446
858.731	20446
858.864	20366
858.997	20377
859.13	20499
859.263	20412
859.396	20552
859.529	20541
859.662	20396
859.795	20415
859.928	20598
860.061	20560
860.194	20609
860.327	20374
860.46	20507
860.592	20393
860.725	20522
860.858	20480
860.99	20431
861.123	20393
861.256	20305
861.388	20461
861.521	20925
861.653	20343
861.786	20366
861.918	20343
862.05	20427
862.183	20495
862.315	20514
862.447	20594
862.58	20438
862.712	20210
862.844	20183
862.976	20355
863.108	20221
863.24	20514
863.372	20126
863.504	20218
863.636	20077
863.768	20191
863.9	20195
864.032	20005
864.164	20031
864.296	20069
864.428	20195
864.559	20214
864.691	20195
864.823	20149
864.954	20062
865.086	20050
865.217	20168
865.349	19982
865.48	19989
865.612	20027
865.743	20157
865.875	20096
866.006	20016
866.137	20134
866.269	20058
866.4	20073
866.531	20054
866.662	19894
866.793	19917
866.924	19955
867.055	19898
867.186	20024
867.317	19902
867.448	19921
867.579	20016
867.71	19898
867.841	19833
867.972	19970
868.103	19898
868.233	19967
868.364	19986
868.495	20008
868.625	20077
868.756	20210
868.886	20122
869.017	20195
869.147	20328
869.278	20343
869.408	20252
869.539	20275
869.669	20180
869.799	20183
869.929	20275
870.06	20286
870.19	20541
870.32	20370
870.45	20564
870.58	20659
870.71	20716
870.84	20689
870.97	20579
871.1	20564
871.23	20826
871.36	20674
871.489	20632
871.619	20682
871.749	20826
871.879	20902
872.008	21017
872.138	20826
872.267	20853
872.397	20644
872.526	20746
872.656	20655
872.785	20587
872.915	20880
873.044	20914
873.173	20864
873.303	20914
873.432	20838
873.561	20891
873.69	20807
873.819	20853
873.948	20952
874.077	20937
874.206	20830
874.335	20864
874.464	20952
874.593	21180
874.722	21100
874.851	21199
874.979	21237
875.108	21184
875.237	21161
875.365	21017
875.494	21218
875.623	21237
875.751	21203
875.88	21237
876.008	21370
876.136	21412
876.265	21561
876.393	21629
876.521	21595
876.65	21606
876.778	21679
876.906	21549
877.034	21633
877.162	21633
877.29	21500
877.418	21717
877.546	21686
877.674	21633
877.802	21739
877.93	21652
878.058	21656
878.185	21637
878.313	21827
878.441	21854
878.568	21823
878.696	21880
878.824	21960
878.951	22295
879.079	22645
879.206	22930
879.333	23166
879.461	23410
879.588	23547
879.715	23558
879.842	23634
879.97	23041
880.097	22584
880.224	22447
880.351	22310
880.478	22249
880.605	22116
880.732	21911
880.859	22109
880.986	22017
881.112	21861
881.239	21831
881.366	21774
881.493	21591
881.619	21515
881.746	21523
881.872	21405
881.999	21469
882.125	21340
882.252	21466
882.378	21553
882.505	21553
882.631	21389
882.757	21287
882.883	21317
883.01	21310
883.136	21256
883.262	21131
883.388	21157
883.514	21317
883.64	21317
883.766	21161
883.892	20975
884.018	21119
884.143	21310
884.269	21207
884.395	20960
884.52	20925
884.646	21020
884.772	20933
884.897	20762
885.023	20952
885.148	20929
885.274	21032
885.399	21020
885.524	20891
885.65	20944
885.775	20796
885.9	20705
886.025	20796
886.15	20868
886.275	20590
886.4	20511
886.525	20613
886.65	20469
886.775	20514
886.9	20693
887.025	20815
887.149	20522
887.274	20427
887.399	20393
887.523	20313
887.648	20275
887.773	20161
887.897	20332
888.021	20351
888.146	20195
888.27	20309
888.395	20339
888.519	20229
888.643	20263
888.767	20347
888.891	20214
889.015	20111
889.139	20214
889.263	19951
889.387	20199
889.511	20240
889.635	20183
889.759	20058
889.883	20073
890.006	19955
890.13	20050
890.254	19936
890.377	19917
890.501	19795
890.624	19685
890.748	19757
890.871	19674
890.995	19571
891.118	19563
891.241	19578
891.364	19594
891.488	19674
891.611	19483
891.734	19468
891.857	19613
891.98	19472
892.103	19472
892.226	19540
892.349	19415
892.471	19316
892.594	19491
892.717	19518
892.839	19415
892.962	19422
893.085	19445
893.207	19335
893.33	19457
893.452	19316
893.575	19483
893.697	19362
893.819	19537
893.941	19544
894.064	19601
894.186	19263
894.308	19293
894.43	19449
894.552	19476
894.674	19460
894.796	19354
894.918	19434
895.04	19255
895.161	19343
895.283	19358
895.405	19213
895.526	19301
895.648	19251
895.769	19331
895.891	19365
896.012	19445
896.134	19346
896.255	19362
896.376	19228
896.498	19354
896.619	19411
896.74	19518
896.861	19472
896.982	19670
897.103	19837
897.224	19552
897.345	19548
897.466	19506
897.587	19620
897.708	19670
897.828	19582
897.949	19499
898.07	19419
898.19	19419
898.311	19635
898.431	19449
898.552	19548
898.672	19544
898.792	19453
898.913	19422
899.033	19426
899.153	19297
899.273	19148
899.393	19266
899.513	19426
899.633	19110
899.753	19263
899.873	19274
899.993	19282
900.113	19213
900.232	19164
900.352	19168
900.472	18977
900.591	18981
900.711	19088
900.83	18993
900.95	19126
901.069	19099
901.189	18966
901.308	18783
901.427	18650
901.546	18642
901.665	18703
901.784	18681
901.904	18528
902.023	18460
902.141	18338
902.26	18167
902.379	18239
902.498	18098
902.617	18114
902.735	18197
902.854	18167
902.973	18064
903.091	17813
903.21	17855
903.328	17832
903.446	17771
903.565	17653
903.683	17752
903.801	17562
903.919	17638
904.038	17760
904.156	17337
904.274	17554
904.392	17414
904.51	17322
904.627	17368
904.745	17372
904.863	17528
904.981	17246
905.098	17041
905.216	16984
905.334	17193
905.451	17056
905.569	17121
905.686	17098
905.803	17136
905.921	16911
906.038	16892
906.155	16854
906.272	16797
906.389	16801
906.506	16550
906.623	16615
906.74	16596
906.857	16542
906.974	16409
907.091	16637
907.208	16771
907.324	16592
907.441	16470
907.557	16185
907.674	16318
907.79	16162
907.907	16223
908.023	16246
908.139	16295
908.256	16196
908.372	16097
908.488	16200
908.604	15937
908.72	15937
908.836	16036
908.952	15857
909.068	15956
909.184	16017
909.3	15899
909.415	16051
909.531	15922
909.647	15709
909.762	15603
909.878	15618
909.993	15720
910.108	15667
910.224	15694
910.339	15660
910.454	15519
910.57	15545
910.685	15477
910.8	15637
910.915	15625
911.03	15511
911.145	15382
911.259	15294
911.374	15256
911.489	15313
911.604	15176
911.718	15157
911.833	15043
911.947	14929
912.062	14819
912.176	14990
912.291	14948
912.405	15020
912.519	15135
912.633	15195
912.748	15036
912.862	14994
912.976	14864
913.09	14689
913.204	14815
913.318	14830
913.431	14891
913.545	14902
913.659	14986
913.772	14777
913.886	14708
914	14499
914.113	14678
914.226	14800
914.34	14663
914.453	14511
914.566	14708
914.68	14556
914.793	14632
914.906	14332
915.019	14282
915.132	14275
915.245	14252
915.358	14358
915.47	14298
915.583	14282
915.696	14374
915.809	14385
915.921	14389
916.034	14214
916.146	14096
916.259	14225
916.371	14305
916.483	14290
916.595	14103
916.708	14218
916.82	14199
916.932	14153
917.044	14039
917.156	13989
917.268	13894
917.38	13925
917.491	13963
917.603	14027
917.715	14027
917.826	14065
917.938	13925
918.049	13841
918.161	13833
918.272	13993
918.384	14001
918.495	13898
918.606	13681
918.717	13742
918.828	13772
918.939	13822
919.05	13594
919.161	13658
919.272	13499
919.383	13525
919.494	13788
919.604	13860
919.715	13719
919.826	13559
919.936	13708
920.047	13765
920.157	13544
920.267	13738
920.378	13628
920.488	13677
920.598	13814
920.708	14065
920.818	13765
920.928	13788
921.038	13963
921.148	13868
921.258	13613
921.368	13468
921.477	13422
921.587	13384
921.697	13324
921.806	13483
921.916	13312
922.025	13114
922.134	13107
922.244	12985
922.353	13152
922.462	12951
922.571	13004
922.68	12692
922.789	12673
922.898	12711
923.007	12612
923.116	12795
923.224	12749
923.333	12658
923.442	12593
923.55	12490
923.659	12563
923.767	12555
923.876	12559
923.984	12551
924.092	12429
924.201	12547
924.309	12388
924.417	12521
924.525	12376
924.633	12372
924.741	13320
924.849	12186
924.956	12239
925.064	12209
925.172	12209
925.279	12159
925.387	12251
925.494	12171
925.602	12372
925.709	12228
925.816	12091
925.924	12133
926.031	12178
926.138	12106
926.245	12163
926.352	12049
926.459	12220
926.566	12197
926.673	11996
926.779	11969
926.886	11889
926.993	11783
927.099	11756
927.206	11707
927.312	11623
927.419	11767
927.525	11786
927.631	11741
927.737	11638
927.843	11562
927.95	11433
928.056	11493
928.162	11566
928.267	11649
928.373	12281
928.479	11726
928.585	11501
928.69	11505
928.796	11520
928.901	11387
929.007	11402
929.112	11516
929.218	11410
929.323	11330
929.428	11425
929.533	11467
929.638	11265
929.743	11299
929.848	11303
929.953	11360
930.058	11185
930.163	11018
930.267	10968
930.372	11117
930.477	10953
930.581	11223
930.685	11140
930.79	10930
930.894	10946
930.998	10866
931.103	10999
931.207	10645
931.311	10573
931.415	10550
931.519	10314
931.623	10314
