Data from test_V78500241_3466.txt Node
Date: Fri Mar 25 14:57:51 CST 2022
User: usil
Spectrometer: V785-0024
Trigger mode: 0
Integration Time (sec): 4.000000E-1
Scans to average: 1
Nonlinearity correction enabled: false
Boxcar width: 0
Storing dark spectrum: false
XAxis mode: Wavelengths
Number of Pixels in Spectrum: 1024
>>>>>Begin Spectral Data<<<<<
801.071	21987
801.214	21747
801.356	21519
801.499	21408
801.641	21405
801.783	21306
801.926	21252
802.068	21287
802.211	21146
802.353	21138
802.496	20815
802.638	20819
802.78	20773
802.923	20712
803.065	20667
803.208	20564
803.35	20507
803.492	20689
803.635	20632
803.777	20682
803.919	20613
804.061	20982
804.204	20629
804.346	20507
804.488	20552
804.63	20609
804.773	20446
804.915	20446
805.057	20625
805.199	20381
805.341	20648
805.483	20560
805.626	20476
805.768	20507
805.91	20560
806.052	20526
806.194	20374
806.336	20579
806.478	20514
806.62	20461
806.762	20465
806.904	20724
807.046	20918
807.188	20693
807.33	20857
807.472	20785
807.614	20636
807.756	20762
807.898	20594
808.04	20609
808.182	20602
808.324	20560
808.465	20629
808.607	20800
808.749	20834
808.891	20887
809.033	21047
809.174	20921
809.316	20834
809.458	20792
809.6	20838
809.741	20804
809.883	20933
810.025	20986
810.166	21169
810.308	20948
810.45	20880
810.591	20891
810.733	20644
810.875	20556
811.016	20712
811.158	20499
811.299	20689
811.441	20765
811.582	20682
811.724	20499
811.865	20640
812.007	20686
812.148	20602
812.29	20530
812.431	20678
812.573	20864
812.714	21005
812.855	21176
812.997	21283
813.138	21386
813.279	21291
813.421	21081
813.562	21051
813.703	20857
813.845	20777
813.986	20488
814.127	20248
814.268	20202
814.41	20199
814.551	20103
814.692	20191
814.833	20107
814.974	20024
815.115	20088
815.256	20062
815.397	20005
815.539	20073
815.68	19951
815.821	19784
815.962	19849
816.103	19909
816.244	19761
816.385	19609
816.526	19639
816.666	19407
816.807	19346
816.948	19350
817.089	19422
817.23	19289
817.371	19285
817.512	19232
817.653	19187
817.793	19232
817.934	19285
818.075	19343
818.216	19266
818.356	19228
818.497	19137
818.638	18962
818.778	18916
818.919	18863
819.06	19023
819.2	19072
819.341	19095
819.481	19179
819.622	19251
819.762	19457
819.903	19422
820.043	19320
820.184	19316
820.324	19335
820.465	19369
820.605	19187
820.746	19168
820.886	19141
821.026	19247
821.167	19228
821.307	19263
821.447	19148
821.588	19107
821.728	18875
821.868	18825
822.008	18730
822.149	18677
822.289	18661
822.429	18380
822.569	18372
822.709	18323
822.849	18251
822.99	18232
823.13	18083
823.27	18095
823.41	18007
823.55	17946
823.69	17946
823.83	18015
823.97	17935
824.11	17722
824.25	17752
824.389	17767
824.529	17813
824.669	17722
824.809	17863
824.949	17783
825.089	17843
825.228	17726
825.368	17581
825.508	17501
825.648	17600
825.787	17528
825.927	17581
826.067	17490
826.206	17516
826.346	17665
826.485	17486
826.625	17509
826.765	17638
826.904	17547
827.044	17269
827.183	17292
827.323	17200
827.462	17242
827.601	17269
827.741	17162
827.88	17318
828.02	17124
828.159	17246
828.298	17303
828.437	17277
828.577	17185
828.716	17299
828.855	17140
828.994	17075
829.134	17014
829.273	17014
829.412	16957
829.551	16892
829.69	17025
829.829	17041
829.968	17010
830.107	17086
830.246	17056
830.385	16885
830.524	16881
830.663	16862
830.802	16645
830.941	16554
831.08	16500
831.219	16702
831.357	16759
831.496	16866
831.635	16584
831.774	16447
831.913	16440
832.051	16337
832.19	16352
832.329	16474
832.467	16417
832.606	16291
832.744	16348
832.883	16295
833.022	16238
833.16	16310
833.299	16443
833.437	16371
833.576	16306
833.714	16413
833.852	16394
833.991	16421
834.129	16440
834.267	16382
834.406	16325
834.544	16432
834.682	16371
834.821	16402
834.959	16527
835.097	16379
835.235	16405
835.373	16394
835.511	16367
835.65	16318
835.788	16207
835.926	16162
836.064	16124
836.202	16090
836.34	16356
836.478	16390
836.615	16238
836.753	16329
836.891	16329
837.029	16314
837.167	16185
837.305	16223
837.443	16124
837.58	16177
837.718	16150
837.856	16093
837.993	16162
838.131	16158
838.269	16177
838.406	16082
838.544	16025
838.681	15907
838.819	15812
838.956	15701
839.094	15667
839.231	15762
839.369	15865
839.506	16002
839.643	15972
839.781	15713
839.918	15709
840.055	15743
840.193	15698
840.33	15637
840.467	15652
840.604	15724
840.742	15953
840.879	15610
841.016	15663
841.153	15610
841.29	15800
841.427	15827
841.564	15808
841.701	15751
841.838	15660
841.975	15587
842.112	15637
842.249	15507
842.385	15519
842.522	15812
842.659	15469
842.796	15507
842.933	15561
843.069	15454
843.206	15412
843.343	15549
843.479	15488
843.616	15485
843.752	15218
843.889	15203
844.025	15450
844.162	15298
844.298	15389
844.435	15340
844.571	15249
844.708	15340
844.844	15348
844.98	15549
845.117	15397
845.253	15294
845.389	15165
845.525	15291
845.661	15268
845.798	15100
845.934	15089
846.07	15123
846.206	15047
846.342	15226
846.478	15070
846.614	14982
846.75	14792
846.886	14899
847.022	14994
847.158	14819
847.294	15013
847.429	14834
847.565	14899
847.701	15112
847.837	14625
847.972	14568
848.108	14651
848.244	14579
848.379	14492
848.515	14492
848.65	14450
848.786	14446
848.921	14507
849.057	14640
849.192	14594
849.328	14564
849.463	14514
849.598	14537
849.734	14465
849.869	14339
850.004	14202
850.14	14210
850.275	14271
850.41	14172
850.545	14183
850.68	14252
850.815	14244
850.95	14210
851.085	14465
851.22	14347
851.355	14294
851.49	14221
851.625	14172
851.76	14294
851.895	14134
852.03	14084
852.165	14202
852.299	14134
852.434	14301
852.569	14256
852.703	14298
852.838	14339
852.973	14374
853.107	14442
853.242	14237
853.376	14153
853.511	14043
853.645	14035
853.78	14168
853.914	14183
854.048	14027
854.183	14046
854.317	14012
854.451	14248
854.585	14058
854.72	13947
854.854	14119
854.988	14100
855.122	14100
855.256	13940
855.39	14024
855.524	14126
855.658	14115
855.792	14183
855.926	14134
856.06	14214
856.194	14229
856.327	14092
856.461	13959
856.595	14107
856.729	14115
856.862	14187
856.996	14130
857.13	14195
857.263	14214
857.397	14221
857.53	14164
857.664	14115
857.797	14202
857.931	14233
858.064	14187
858.197	14221
858.331	14119
858.464	14107
858.597	13974
858.731	14073
858.864	14153
858.997	14046
859.13	14157
859.263	14130
859.396	14176
859.529	14081
859.662	14081
859.795	13951
859.928	14187
860.061	14233
860.194	14259
860.327	14157
860.46	14062
860.592	14202
860.725	14153
860.858	14347
860.99	14164
861.123	14008
861.256	14024
861.388	14088
861.521	14788
861.653	13970
861.786	13974
861.918	13974
862.05	14008
862.183	13993
862.315	14111
862.447	14123
862.58	14153
862.712	13982
862.844	13833
862.976	13936
863.108	13978
863.24	14351
863.372	13871
863.504	13928
863.636	13837
863.768	13921
863.9	13909
864.032	13788
864.164	13852
864.296	13963
864.428	14039
864.559	13963
864.691	13890
864.823	13955
864.954	13879
865.086	13940
865.217	13822
865.349	13871
865.48	13750
865.612	13887
865.743	13947
865.875	13868
866.006	13849
866.137	13932
866.269	13864
866.4	13807
866.531	13769
866.662	13845
866.793	13898
866.924	13883
867.055	13856
867.186	13868
867.317	13864
867.448	13784
867.579	13780
867.71	13681
867.841	13761
867.972	13830
868.103	13860
868.233	13845
868.364	13856
868.495	13986
868.625	14100
868.756	14206
868.886	14138
869.017	14062
869.147	14225
869.278	14271
869.408	14210
869.539	14107
869.669	14233
869.799	14244
869.929	14191
870.06	14180
870.19	14503
870.32	14419
870.45	14499
870.58	14476
870.71	14583
870.84	14663
870.97	14545
871.1	14568
871.23	14701
871.36	14651
871.489	14701
871.619	14697
871.749	14708
871.879	14777
872.008	14861
872.138	14800
872.267	14644
872.397	14617
872.526	14556
872.656	14549
872.785	14640
872.915	14716
873.044	14918
873.173	14857
873.303	14826
873.432	14746
873.561	14796
873.69	14746
873.819	14769
873.948	14918
874.077	14788
874.206	14686
874.335	14845
874.464	14857
874.593	15131
874.722	15039
874.851	15100
874.979	15104
875.108	15127
875.237	15081
875.365	15032
875.494	15135
875.623	15169
875.751	15112
875.88	15173
876.008	15329
876.136	15306
876.265	15488
876.393	15656
876.521	15648
876.65	15576
876.778	15507
876.906	15458
877.034	15488
877.162	15534
877.29	15576
877.418	15549
877.546	15576
877.674	15564
877.802	15473
877.93	15477
878.058	15587
878.185	15408
878.313	15549
878.441	15568
878.568	15389
878.696	15496
878.824	15515
878.951	15587
879.079	15709
879.206	15819
879.333	15614
879.461	15523
879.588	15606
879.715	15762
879.842	15922
879.97	15549
880.097	15435
880.224	15363
880.351	15393
880.478	15378
880.605	15340
880.732	15237
880.859	15637
880.986	15397
881.112	15515
881.239	15317
881.366	15230
881.493	15055
881.619	14967
881.746	15005
881.872	15013
881.999	14967
882.125	14918
882.252	15161
882.378	15089
882.505	15180
882.631	14979
882.757	14868
882.883	14887
883.01	14880
883.136	14788
883.262	14773
883.388	14781
883.514	14895
883.64	14838
883.766	14807
883.892	14754
884.018	14648
884.143	14864
884.269	14937
884.395	14613
884.52	14549
884.646	14530
884.772	14492
884.897	14419
885.023	14594
885.148	14682
885.274	14678
885.399	14579
885.524	14617
885.65	14648
885.775	14564
885.9	14442
886.025	14708
886.15	14587
886.275	14518
886.4	14427
886.525	14594
886.65	14537
886.775	14549
886.9	14701
887.025	14762
887.149	14533
887.274	14393
887.399	14286
887.523	14332
887.648	14328
887.773	14298
887.897	14431
888.021	14431
888.146	14385
888.27	14499
888.395	14465
888.519	14450
888.643	14552
888.767	14469
888.891	14400
889.015	14244
889.139	14301
889.263	14210
889.387	14446
889.511	14503
889.635	14393
889.759	14305
889.883	14199
890.006	14267
890.13	14355
890.254	14145
890.377	14172
890.501	14115
890.624	14103
890.748	14202
890.871	14020
890.995	13940
891.118	13871
891.241	13944
891.364	13932
891.488	14016
891.611	14005
891.734	13875
891.857	14020
891.98	13944
892.103	14069
892.226	13947
892.349	13887
892.471	13860
892.594	13902
892.717	14073
892.839	13986
892.962	14016
893.085	13940
893.207	13906
893.33	13734
893.452	13932
893.575	14001
893.697	13875
893.819	14142
893.941	14244
894.064	14164
894.186	13921
894.308	13826
894.43	14115
894.552	14214
894.674	14168
894.796	13955
894.918	13944
895.04	14001
895.161	14157
895.283	14164
895.405	13963
895.526	14081
895.648	14043
895.769	14107
895.891	14153
896.012	14187
896.134	14206
896.255	14161
896.376	14058
896.498	14020
896.619	14084
896.74	14153
896.861	14206
896.982	14457
897.103	14571
897.224	14446
897.345	14343
897.466	14301
897.587	14389
897.708	14533
897.828	14457
897.949	14336
898.07	14275
898.19	14381
898.311	14552
898.431	14362
898.552	14457
898.672	14568
898.792	14556
898.913	14541
899.033	14412
899.153	14351
899.273	14298
899.393	14313
899.513	14393
899.633	14355
899.753	14381
899.873	14259
899.993	14408
900.113	14336
900.232	14305
900.352	14290
900.472	14271
900.591	14244
900.711	14218
900.83	14134
900.95	14328
901.069	14317
901.189	14100
901.308	13947
901.427	13856
901.546	13970
901.665	13928
901.784	13875
901.904	13700
902.023	13704
902.141	13495
902.26	13388
902.379	13506
902.498	13346
902.617	13449
902.735	13460
902.854	13419
902.973	13388
903.091	13122
903.21	13152
903.328	13198
903.446	13061
903.565	12966
903.683	13008
903.801	12973
903.919	13023
904.038	13019
904.156	12837
904.274	12989
904.392	12795
904.51	12814
904.627	12905
904.745	12894
904.863	12935
904.981	12646
905.098	12582
905.216	12513
905.334	12601
905.451	12513
905.569	12528
905.686	12631
905.803	12551
905.921	12437
906.038	12490
906.155	12452
906.272	12338
906.389	12270
906.506	12015
906.623	12106
906.74	12194
906.857	11992
906.974	12087
907.091	12182
907.208	12273
907.324	12216
907.441	12076
907.557	11939
907.674	11805
907.79	11851
907.907	11923
908.023	11878
908.139	11923
908.256	11855
908.372	11824
908.488	11760
908.604	11665
908.72	11634
908.836	11653
908.952	11547
909.068	11615
909.184	11722
909.3	11657
909.415	11680
909.531	11630
909.647	11372
909.762	11395
909.878	11318
909.993	11368
910.108	11360
910.224	11429
910.339	11444
910.454	11299
910.57	11235
910.685	11185
910.8	11528
910.915	11410
911.03	11254
911.145	11147
911.259	11048
911.374	11124
911.489	11064
911.604	11006
911.718	10816
911.833	10881
911.947	10672
912.062	10641
912.176	10816
912.291	10873
912.405	10843
912.519	11033
912.633	11102
912.748	10919
912.862	10892
912.976	10820
913.09	10660
913.204	10687
913.318	10698
913.431	10778
913.545	10885
913.659	10862
913.772	10767
913.886	10683
914	10679
914.113	10694
914.226	10809
914.34	10626
914.453	10626
914.566	10736
914.68	10561
914.793	10584
914.906	10375
915.019	10402
915.132	10249
915.245	10299
915.358	10413
915.47	10390
915.583	10341
915.696	10394
915.809	10569
915.921	10607
916.034	10409
916.146	10386
916.259	10242
916.371	10432
916.483	10344
916.595	10306
916.708	10348
916.82	10325
916.932	10253
917.044	10295
917.156	10280
917.268	10185
917.38	10287
917.491	10207
917.603	10227
917.715	10257
917.826	10360
917.938	10162
918.049	10097
918.161	10249
918.272	10287
918.384	10421
918.495	10242
918.606	10143
918.717	10116
918.828	10093
918.939	10139
919.05	9941
919.161	10013
919.272	9915
919.383	9987
919.494	10169
919.604	10295
919.715	10185
919.826	10032
919.936	10143
920.047	10344
920.157	10086
920.267	10337
920.378	10192
920.488	10109
920.598	10295
920.708	10405
920.818	10322
920.928	10371
921.038	10459
921.148	10440
921.258	10162
921.368	10063
921.477	9960
921.587	9895
921.697	9812
921.806	10063
921.916	9892
922.025	9736
922.134	9705
922.244	9633
922.353	9774
922.462	9519
922.571	9545
922.68	9344
922.789	9359
922.898	9424
923.007	9321
923.116	9405
923.224	9344
923.333	9321
923.442	9249
923.55	9233
923.659	9336
923.767	9401
923.876	9218
923.984	9302
924.092	9165
924.201	9260
924.309	9268
924.417	9233
924.525	9169
924.633	9165
924.741	10063
924.849	9055
924.956	9195
925.064	9051
925.172	8868
925.279	8948
925.387	9089
925.494	9036
925.602	9214
925.709	9074
925.816	8979
925.924	9032
926.031	9081
926.138	9020
926.245	9077
926.352	8967
926.459	9097
926.566	9146
926.673	8990
926.779	8941
926.886	8853
926.993	8785
927.099	8766
927.206	8750
927.312	8777
927.419	8769
927.525	8712
927.631	8796
927.737	8686
927.843	8648
927.95	8488
928.056	8568
928.162	8613
928.267	8735
928.373	9336
928.479	8708
928.585	8476
928.69	8583
928.796	8716
928.901	8598
929.007	8415
929.112	8587
929.218	8629
929.323	8461
929.428	8355
929.533	8617
929.638	8404
929.743	8488
929.848	8499
929.953	8511
930.058	8427
930.163	8161
930.267	8233
930.372	8351
930.477	8183
930.581	8454
930.685	8263
930.79	8206
930.894	8237
930.998	8229
931.103	8305
931.207	7986
931.311	7890
931.415	7887
931.519	7693
931.623	7723
