Data from test_V78500241_391.txt Node
Date: Fri Mar 25 14:36:26 CST 2022
User: usil
Spectrometer: V785-0024
Trigger mode: 0
Integration Time (sec): 4.000000E-1
Scans to average: 1
Nonlinearity correction enabled: false
Boxcar width: 0
Storing dark spectrum: false
XAxis mode: Wavelengths
Number of Pixels in Spectrum: 1024
>>>>>Begin Spectral Data<<<<<
801.071	26731
801.214	26651
801.356	26552
801.499	26252
801.641	26286
801.783	26187
801.926	26069
802.068	26088
802.211	26043
802.353	25955
802.496	25795
802.638	25811
802.78	25883
802.923	25742
803.065	25662
803.208	25670
803.35	25723
803.492	25689
803.635	25860
803.777	25628
803.919	25769
804.061	26016
804.204	25765
804.346	25708
804.488	25590
804.63	25761
804.773	25677
804.915	25590
805.057	25871
805.199	25689
805.341	25662
805.483	25879
805.626	25826
805.768	25693
805.91	25894
806.052	25731
806.194	25628
806.336	25944
806.478	25685
806.62	25605
806.762	25788
806.904	25982
807.046	26183
807.188	26020
807.33	26153
807.472	26115
807.614	26065
807.756	26168
807.898	26054
808.04	25925
808.182	25959
808.324	25746
808.465	25841
808.607	26046
808.749	26271
808.891	26206
809.033	26427
809.174	26336
809.316	26229
809.458	26202
809.6	26142
809.741	26259
809.883	26305
810.025	26465
810.166	26499
810.308	26457
810.45	26294
810.591	26298
810.733	26221
810.875	25997
811.016	26046
811.158	25951
811.299	26081
811.441	26271
811.582	26199
811.724	26172
811.865	26092
812.007	26050
812.148	26096
812.29	26134
812.431	26161
812.573	26358
812.714	26442
812.855	26602
812.997	26598
813.138	26750
813.279	26609
813.421	26693
813.562	26434
813.703	26480
813.845	26294
813.986	25997
814.127	25784
814.268	25696
814.41	25533
814.551	25548
814.692	25586
814.833	25434
814.974	25677
815.115	25658
815.256	25479
815.397	25384
815.539	25525
815.68	25403
815.821	25285
815.962	25316
816.103	25388
816.244	25183
816.385	25091
816.526	25008
816.666	24973
816.807	24764
816.948	24817
817.089	24768
817.23	24806
817.371	24669
817.512	24665
817.653	24776
817.793	24658
817.934	24867
818.075	24673
818.216	24627
818.356	24642
818.497	24623
818.638	24483
818.778	24437
818.919	24410
819.06	24433
819.2	24532
819.341	24601
819.481	24601
819.622	24802
819.762	24890
819.903	24844
820.043	24738
820.184	24871
820.324	24700
820.465	24810
820.605	24684
820.746	24684
820.886	24505
821.026	24608
821.167	24700
821.307	24696
821.447	24517
821.588	24441
821.728	24422
821.868	24182
822.008	24057
822.149	24022
822.289	23965
822.429	23813
822.569	23733
822.709	23611
822.849	23543
822.99	23608
823.13	23543
823.27	23509
823.41	23345
823.55	23090
823.69	23353
823.83	23299
823.97	23189
824.11	23132
824.25	23128
824.389	23136
824.529	23113
824.669	23090
824.809	23235
824.949	23254
825.089	23102
825.228	22991
825.368	22881
825.508	22835
825.648	22889
825.787	22934
825.927	22949
826.067	22911
826.206	22801
826.346	22957
826.485	22900
826.625	22885
826.765	23090
826.904	22949
827.044	22675
827.183	22542
827.323	22459
827.462	22516
827.601	22573
827.741	22531
827.88	22413
828.02	22497
828.159	22432
828.298	22474
828.437	22588
828.577	22417
828.716	22611
828.855	22447
828.994	22185
829.134	22344
829.273	22253
829.412	22169
829.551	22124
829.69	22238
829.829	22207
829.968	22306
830.107	22295
830.246	22223
830.385	22135
830.524	22131
830.663	21968
830.802	21983
830.941	21895
831.08	21759
831.219	21838
831.357	21819
831.496	21983
831.635	21736
831.774	21774
831.913	21736
832.051	21686
832.19	21603
832.329	21614
832.467	21538
832.606	21462
832.744	21420
832.883	21488
833.022	21424
833.16	21439
833.299	21488
833.437	21564
833.576	21492
833.714	21576
833.852	21545
833.991	21534
834.129	21523
834.267	21583
834.406	21473
834.544	21447
834.682	21568
834.821	21500
834.959	21644
835.097	21469
835.235	21408
835.373	21424
835.511	21488
835.65	21370
835.788	21306
835.926	21108
836.064	21207
836.202	21161
836.34	21291
836.478	21420
836.615	21336
836.753	21268
836.891	21359
837.029	21363
837.167	21272
837.305	21119
837.443	21089
837.58	21077
837.718	21207
837.856	21169
837.993	21081
838.131	21142
838.269	21104
838.406	21093
838.544	20906
838.681	20815
838.819	20796
838.956	20613
839.094	20686
839.231	20549
839.369	20743
839.506	20986
839.643	20906
839.781	20701
839.918	20621
840.055	20526
840.193	20636
840.33	20495
840.467	20541
840.604	20568
840.742	20807
840.879	20473
841.016	20564
841.153	20408
841.29	20644
841.427	20461
841.564	20587
841.701	20465
841.838	20366
841.975	20389
842.112	20400
842.249	20317
842.385	20206
842.522	20465
842.659	20332
842.796	20191
842.933	20317
843.069	20259
843.206	20081
843.343	20187
843.479	20187
843.616	20294
843.752	19944
843.889	20084
844.025	20187
844.162	19993
844.298	20111
844.435	20050
844.571	19928
844.708	20035
844.844	20130
844.98	20054
845.117	20092
845.253	20024
845.389	19947
845.525	19944
845.661	19860
845.798	19704
845.934	19746
846.07	19677
846.206	19849
846.342	19822
846.478	19689
846.614	19518
846.75	19445
846.886	19495
847.022	19609
847.158	19552
847.294	19556
847.429	19514
847.565	19343
847.701	19670
847.837	19126
847.972	19221
848.108	19403
848.244	19259
848.379	19031
848.515	19000
848.65	18951
848.786	18973
848.921	19050
849.057	19031
849.192	19114
849.328	19126
849.463	19088
849.598	18920
849.734	18867
849.869	18856
850.004	18852
850.14	18791
850.275	18795
850.41	18688
850.545	18768
850.68	18681
850.815	18795
850.95	18707
851.085	18951
851.22	18749
851.355	18779
851.49	18753
851.625	18677
851.76	18601
851.895	18696
852.03	18696
852.165	18654
852.299	18871
852.434	18905
852.569	18738
852.703	18734
852.838	18825
852.973	18859
853.107	18886
853.242	18681
853.376	18585
853.511	18353
853.645	18490
853.78	18749
853.914	18646
854.048	18570
854.183	18547
854.317	18585
854.451	18707
854.585	18570
854.72	18627
854.854	18719
854.988	18544
855.122	18555
855.256	18456
855.39	18578
855.524	18711
855.658	18669
855.792	18654
855.926	18635
856.06	18673
856.194	18551
856.327	18540
856.461	18559
856.595	18540
856.729	18475
856.862	18654
856.996	18544
857.13	18661
857.263	18612
857.397	18585
857.53	18749
857.664	18684
857.797	18589
857.931	18620
858.064	18631
858.197	18578
858.331	18490
858.464	18475
858.597	18475
858.731	18464
858.864	18490
858.997	18441
859.13	18441
859.263	18517
859.396	18582
859.529	18456
859.662	18414
859.795	18509
859.928	18483
860.061	18623
860.194	18719
860.327	18437
860.46	18578
860.592	18623
860.725	18566
860.858	18563
860.99	18441
861.123	18410
861.256	18391
861.388	18407
861.521	19289
861.653	18380
861.786	18323
861.918	18418
862.05	18559
862.183	18410
862.315	18608
862.447	18593
862.58	18464
862.712	18376
862.844	18285
862.976	18403
863.108	18361
863.24	18616
863.372	18194
863.504	18239
863.636	18243
863.768	18323
863.9	18129
864.032	18140
864.164	18213
864.296	18296
864.428	18270
864.559	18327
864.691	18311
864.823	18311
864.954	18205
865.086	18209
865.217	18060
865.349	18148
865.48	18136
865.612	18091
865.743	18270
865.875	18209
866.006	18068
866.137	18224
866.269	18201
866.4	18098
866.531	18076
866.662	18140
866.793	18053
866.924	18144
867.055	18216
867.186	18076
867.317	18098
867.448	17961
867.579	18034
867.71	18041
867.841	18003
867.972	18102
868.103	18041
868.233	18117
868.364	18121
868.495	18136
868.625	18346
868.756	18410
868.886	18182
869.017	18304
869.147	18433
869.278	18525
869.408	18330
869.539	18304
869.669	18433
869.799	18338
869.929	18357
870.06	18498
870.19	18669
870.32	18608
870.45	18661
870.58	18658
870.71	18856
870.84	18783
870.97	18795
871.1	18764
871.23	18897
871.36	18878
871.489	18814
871.619	18848
871.749	19088
871.879	19061
872.008	19046
872.138	18901
872.267	18947
872.397	18772
872.526	18707
872.656	18772
872.785	18772
872.915	18996
873.044	19065
873.173	18977
873.303	19038
873.432	18962
873.561	19031
873.69	18871
873.819	18897
873.948	19053
874.077	19050
874.206	18825
874.335	18970
874.464	19012
874.593	19175
874.722	19175
874.851	19247
874.979	19213
875.108	19312
875.237	19164
875.365	19137
875.494	19236
875.623	19316
875.751	19232
875.88	19187
876.008	19339
876.136	19362
876.265	19685
876.393	19822
876.521	19734
876.65	19655
876.778	19772
876.906	19605
877.034	19563
877.162	19510
877.29	19556
877.418	19586
877.546	19594
877.674	19635
877.802	19582
877.93	19525
878.058	19582
878.185	19487
878.313	19594
878.441	19655
878.568	19502
878.696	19586
878.824	19571
878.951	19719
879.079	19681
879.206	19970
879.333	19784
879.461	19658
879.588	19727
879.715	19791
879.842	19925
879.97	19765
880.097	19415
880.224	19457
880.351	19510
880.478	19537
880.605	19373
880.732	19422
880.859	19746
880.986	19502
881.112	19460
881.239	19331
881.366	19156
881.493	19099
881.619	19034
881.746	19202
881.872	19152
881.999	19072
882.125	18966
882.252	19080
882.378	19171
882.505	19164
882.631	19008
882.757	18844
882.883	18886
883.01	18833
883.136	18814
883.262	18722
883.388	18722
883.514	18817
883.64	18882
883.766	18833
883.892	18620
884.018	18559
884.143	18840
884.269	18882
884.395	18616
884.52	18490
884.646	18559
884.772	18460
884.897	18403
885.023	18448
885.148	18654
885.274	18715
885.399	18582
885.524	18380
885.65	18456
885.775	18490
885.9	18448
886.025	18528
886.15	18578
886.275	18490
886.4	18441
886.525	18464
886.65	18319
886.775	18346
886.9	18536
887.025	18642
887.149	18445
887.274	18213
887.399	18315
887.523	18220
887.648	18083
887.773	18171
887.897	18319
888.021	18361
888.146	18182
888.27	18376
888.395	18308
888.519	18285
888.643	18155
888.767	18296
888.891	18174
889.015	18098
889.139	18087
889.263	18034
889.387	18129
889.511	18273
889.635	18213
889.759	18064
889.883	17980
890.006	18098
890.13	18148
890.254	17939
890.377	17889
890.501	17775
890.624	17832
890.748	17950
890.871	17802
890.995	17649
891.118	17589
891.241	17611
891.364	17707
891.488	17672
891.611	17733
891.734	17581
891.857	17767
891.98	17642
892.103	17866
892.226	17646
892.349	17699
892.471	17642
892.594	17482
892.717	17630
892.839	17630
892.962	17745
893.085	17707
893.207	17668
893.33	17653
893.452	17604
893.575	17707
893.697	17627
893.819	17767
893.941	17863
894.064	17741
894.186	17623
894.308	17615
894.43	17779
894.552	17855
894.674	17790
894.796	17528
894.918	17604
895.04	17600
895.161	17695
895.283	17726
895.405	17554
895.526	17703
895.648	17722
895.769	17657
895.891	17764
896.012	17775
896.134	17813
896.255	17657
896.376	17672
896.498	17786
896.619	17832
896.74	17760
896.861	17843
896.982	18076
897.103	18197
897.224	17927
897.345	17935
897.466	17889
897.587	18011
897.708	18057
897.828	18121
897.949	17901
898.07	17661
898.19	17977
898.311	18038
898.431	17901
898.552	17882
898.672	17984
898.792	18030
898.913	17901
899.033	17950
899.153	17798
899.273	17600
899.393	17809
899.513	17733
899.633	17760
899.753	17714
899.873	17646
899.993	17718
900.113	17649
900.232	17672
900.352	17638
900.472	17573
900.591	17611
900.711	17577
900.83	17379
900.95	17623
901.069	17642
901.189	17520
901.308	17417
901.427	17197
901.546	17280
901.665	17193
901.784	17277
901.904	17155
902.023	16968
902.141	16755
902.26	16679
902.379	16774
902.498	16793
902.617	16721
902.735	16660
902.854	16694
902.973	16607
903.091	16497
903.21	16394
903.328	16314
903.446	16341
903.565	16272
903.683	16188
903.801	16090
903.919	16150
904.038	16265
904.156	15998
904.274	16109
904.392	16040
904.51	16082
904.627	15918
904.745	16017
904.863	16025
904.981	15888
905.098	15641
905.216	15686
905.334	15690
905.451	15591
905.569	15648
905.686	15625
905.803	15618
905.921	15504
906.038	15515
906.155	15511
906.272	15329
906.389	15321
906.506	15287
906.623	15226
906.74	15157
906.857	15047
906.974	15138
907.091	15268
907.208	15283
907.324	15230
907.441	15097
907.557	14948
907.674	14853
907.79	14823
907.907	14880
908.023	14929
908.139	14937
908.256	14845
908.372	14777
908.488	14777
908.604	14659
908.72	14621
908.836	14659
908.952	14526
909.068	14617
909.184	14731
909.3	14629
909.415	14606
909.531	14541
909.647	14434
909.762	14412
909.878	14370
909.993	14305
910.108	14282
910.224	14305
910.339	14347
910.454	14237
910.57	14176
910.685	14065
910.8	14389
910.915	14275
911.03	14210
911.145	13970
911.259	13936
911.374	14073
911.489	13890
911.604	13913
911.718	13765
911.833	13776
911.947	13624
912.062	13518
912.176	13643
912.291	13685
912.405	13753
912.519	13841
912.633	13845
912.748	13655
912.862	13628
912.976	13567
913.09	13392
913.204	13381
913.318	13483
913.431	13594
913.545	13525
913.659	13590
913.772	13464
913.886	13441
914	13278
914.113	13476
914.226	13521
914.34	13426
914.453	13255
914.566	13422
914.68	13274
914.793	13194
914.906	13091
915.019	13061
915.132	13038
915.245	13042
915.358	13050
915.47	13027
915.583	12977
915.696	13149
915.809	13190
915.921	13251
916.034	13008
916.146	12947
916.259	12894
916.371	13053
916.483	13076
916.595	12871
916.708	12966
916.82	12821
916.932	12916
917.044	12996
917.156	12844
917.268	12730
917.38	12848
917.491	12734
917.603	12856
917.715	12844
917.826	12814
917.938	12673
918.049	12669
918.161	12772
918.272	12878
918.384	12878
918.495	12692
918.606	12673
918.717	12540
918.828	12681
918.939	12589
919.05	12479
919.161	12551
919.272	12353
919.383	12407
919.494	12563
919.604	12863
919.715	12673
919.826	12372
919.936	12563
920.047	12650
920.157	12563
920.267	12669
920.378	12547
920.488	12627
920.598	12722
920.708	12821
920.818	12684
920.928	12646
921.038	12920
921.148	12745
921.258	12441
921.368	12448
921.477	12315
921.587	12353
921.697	12152
921.806	12334
921.916	12190
922.025	12003
922.134	12038
922.244	11946
922.353	11920
922.462	11870
922.571	11840
922.68	11611
922.789	11642
922.898	11672
923.007	11539
923.116	11680
923.224	11562
923.333	11600
923.442	11535
923.55	11490
923.659	11535
923.767	11493
923.876	11330
923.984	11524
924.092	11406
924.201	11414
924.309	11429
924.417	11478
924.525	11376
924.633	11429
924.741	12266
924.849	11292
924.956	11311
925.064	11159
925.172	11098
925.279	11140
925.387	11261
925.494	11197
925.602	11288
925.709	11223
925.816	11048
925.924	11094
926.031	11204
926.138	11132
926.245	11083
926.352	11052
926.459	11193
926.566	11185
926.673	11014
926.779	10908
926.886	10965
926.993	10812
927.099	10752
927.206	10706
927.312	10809
927.419	10809
927.525	10721
927.631	10771
927.737	10774
927.843	10698
927.95	10573
928.056	10618
928.162	10603
928.267	10672
928.373	11239
928.479	10691
928.585	10531
928.69	10630
928.796	10653
928.901	10512
929.007	10322
929.112	10542
929.218	10558
929.323	10367
929.428	10371
929.533	10440
929.638	10314
929.743	10356
929.848	10421
929.953	10341
930.058	10249
930.163	10086
930.267	10143
930.372	10272
930.477	10013
930.581	10318
930.685	10200
930.79	10029
930.894	9960
930.998	10051
931.103	10188
931.207	9816
931.311	9736
931.415	9679
931.519	9523
931.623	9439
