Data from test_V78500241_1612.txt Node
Date: Fri Mar 25 14:44:56 CST 2022
User: usil
Spectrometer: V785-0024
Trigger mode: 0
Integration Time (sec): 4.000000E-1
Scans to average: 1
Nonlinearity correction enabled: false
Boxcar width: 0
Storing dark spectrum: false
XAxis mode: Wavelengths
Number of Pixels in Spectrum: 1024
>>>>>Begin Spectral Data<<<<<
801.071	22432
801.214	22249
801.356	21937
801.499	21831
801.641	21762
801.783	21553
801.926	21701
802.068	21622
802.211	21557
802.353	21428
802.496	21165
802.638	21222
802.78	21127
802.923	21028
803.065	21001
803.208	20941
803.35	21039
803.492	21055
803.635	21176
803.777	20971
803.919	21211
804.061	21428
804.204	21032
804.346	20944
804.488	20918
804.63	20998
804.773	20925
804.915	20925
805.057	20979
805.199	20948
805.341	21020
805.483	21104
805.626	20967
805.768	20838
805.91	20975
806.052	20967
806.194	20937
806.336	20994
806.478	20861
806.62	20891
806.762	20982
806.904	21188
807.046	21351
807.188	21317
807.33	21237
807.472	21222
807.614	21131
807.756	21233
807.898	21199
808.04	21135
808.182	21150
808.324	21176
808.465	21154
808.607	21226
808.749	21454
808.891	21466
809.033	21614
809.174	21458
809.316	21530
809.458	21279
809.6	21351
809.741	21481
809.883	21507
810.025	21450
810.166	21504
810.308	21576
810.45	21583
810.591	21363
810.733	21325
810.875	21131
811.016	20979
811.158	21093
811.299	21096
811.441	21302
811.582	21188
811.724	21119
811.865	21127
812.007	21138
812.148	21123
812.29	21161
812.431	21230
812.573	21405
812.714	21534
812.855	21542
812.997	21774
813.138	21770
813.279	21808
813.421	21587
813.562	21542
813.703	21325
813.845	21298
813.986	21001
814.127	20788
814.268	20689
814.41	20857
814.551	20651
814.692	20746
814.833	20655
814.974	20560
815.115	20849
815.256	20533
815.397	20522
815.539	20541
815.68	20415
815.821	20431
815.962	20473
816.103	20332
816.244	20263
816.385	20233
816.526	20096
816.666	19997
816.807	19837
816.948	19883
817.089	19986
817.23	19974
817.371	19818
817.512	19852
817.653	19769
817.793	19708
817.934	19731
818.075	19818
818.216	19753
818.356	19757
818.497	19696
818.638	19540
818.778	19468
818.919	19487
819.06	19544
819.2	19548
819.341	19746
819.481	19647
819.622	19700
819.762	19928
819.903	19963
820.043	19936
820.184	19746
820.324	19852
820.465	19967
820.605	19772
820.746	19693
820.886	19689
821.026	19674
821.167	19818
821.307	19761
821.447	19769
821.588	19449
821.728	19445
821.868	19480
822.008	19168
822.149	19091
822.289	19164
822.429	18890
822.569	18886
822.709	18833
822.849	18661
822.99	18726
823.13	18707
823.27	18582
823.41	18597
823.55	18456
823.69	18479
823.83	18551
823.97	18494
824.11	18266
824.25	18296
824.389	18281
824.529	18247
824.669	18197
824.809	18330
824.949	18399
825.089	18258
825.228	18292
825.368	18098
825.508	18015
825.648	18011
825.787	18144
825.927	18076
826.067	17950
826.206	17999
826.346	18072
826.485	18121
826.625	18007
826.765	18159
826.904	18064
827.044	17745
827.183	17851
827.323	17608
827.462	17687
827.601	17729
827.741	17638
827.88	17794
828.02	17562
828.159	17794
828.298	17672
828.437	17843
828.577	17619
828.716	17798
828.855	17646
828.994	17520
829.134	17516
829.273	17433
829.412	17414
829.551	17379
829.69	17528
829.829	17482
829.968	17505
830.107	17501
830.246	17554
830.385	17471
830.524	17421
830.663	17368
830.802	17147
830.941	17105
831.08	17041
831.219	17121
831.357	17185
831.496	17277
831.635	17071
831.774	17083
831.913	17022
832.051	16869
832.19	16847
832.329	16858
832.467	16797
832.606	16664
832.744	16812
832.883	16786
833.022	16801
833.16	16843
833.299	16759
833.437	16911
833.576	16831
833.714	16942
833.852	16885
833.991	16835
834.129	17014
834.267	16991
834.406	16900
834.544	16953
834.682	16953
834.821	16828
834.959	16930
835.097	16839
835.235	16847
835.373	16786
835.511	16824
835.65	16748
835.788	16805
835.926	16687
836.064	16546
836.202	16603
836.34	16763
836.478	16812
836.615	16725
836.753	16793
836.891	16934
837.029	16771
837.167	16596
837.305	16660
837.443	16653
837.58	16660
837.718	16675
837.856	16565
837.993	16504
838.131	16577
838.269	16538
838.406	16466
838.544	16500
838.681	16306
838.819	16295
838.956	16196
839.094	16086
839.231	16234
839.369	16386
839.506	16508
839.643	16424
839.781	16162
839.918	16074
840.055	16105
840.193	16048
840.33	16150
840.467	16150
840.604	16204
840.742	16287
840.879	16036
841.016	15987
841.153	16143
841.29	16306
841.427	16234
841.564	16253
841.701	16211
841.838	16071
841.975	16082
842.112	16086
842.249	15926
842.385	15819
842.522	16006
842.659	15884
842.796	15884
842.933	15968
843.069	15827
843.206	15949
843.343	15991
843.479	15930
843.616	15857
843.752	15705
843.889	15705
844.025	15922
844.162	15789
844.298	15793
844.435	15778
844.571	15622
844.708	15804
844.844	15819
844.98	15888
845.117	15724
845.253	15633
845.389	15553
845.525	15724
845.661	15675
845.798	15504
845.934	15675
846.07	15496
846.206	15641
846.342	15701
846.478	15656
846.614	15405
846.75	15237
846.886	15256
847.022	15401
847.158	15332
847.294	15230
847.429	15435
847.565	15214
847.701	15542
847.837	15077
847.972	14895
848.108	15169
848.244	15135
848.379	14998
848.515	14971
848.65	14834
848.786	14944
848.921	14883
849.057	14933
849.192	14975
849.328	14948
849.463	15020
849.598	14864
849.734	14758
849.869	14716
850.004	14655
850.14	14746
850.275	14697
850.41	14541
850.545	14610
850.68	14571
850.815	14632
850.95	14659
851.085	14758
851.22	14750
851.355	14686
851.49	14514
851.625	14697
851.76	14610
851.895	14537
852.03	14495
852.165	14617
852.299	14640
852.434	14765
852.569	14674
852.703	14697
852.838	14708
852.973	14781
853.107	14838
853.242	14724
853.376	14541
853.511	14484
853.645	14446
853.78	14522
853.914	14488
854.048	14476
854.183	14492
854.317	14587
854.451	14648
854.585	14495
854.72	14499
854.854	14621
854.988	14415
855.122	14579
855.256	14450
855.39	14438
855.524	14644
855.658	14579
855.792	14571
855.926	14602
856.06	14579
856.194	14606
856.327	14541
856.461	14473
856.595	14400
856.729	14556
856.862	14667
856.996	14503
857.13	14640
857.263	14716
857.397	14587
857.53	14568
857.664	14530
857.797	14613
857.931	14629
858.064	14568
858.197	14571
858.331	14484
858.464	14511
858.597	14351
858.731	14533
858.864	14446
858.997	14537
859.13	14518
859.263	14503
859.396	14621
859.529	14488
859.662	14541
859.795	14484
859.928	14533
860.061	14686
860.194	14678
860.327	14503
860.46	14579
860.592	14579
860.725	14526
860.858	14640
860.99	14492
861.123	14400
861.256	14522
861.388	14541
861.521	15275
861.653	14480
861.786	14298
861.918	14412
862.05	14473
862.183	14427
862.315	14533
862.447	14583
862.58	14469
862.712	14286
862.844	14199
862.976	14381
863.108	14282
863.24	14697
863.372	14164
863.504	14244
863.636	14199
863.768	14396
863.9	14176
864.032	14168
864.164	14282
864.296	14336
864.428	14362
864.559	14412
864.691	14351
864.823	14290
864.954	14278
865.086	14351
865.217	14195
865.349	14263
865.48	14298
865.612	14358
865.743	14404
865.875	14275
866.006	14267
866.137	14252
866.269	14229
866.4	14313
866.531	14221
866.662	14259
866.793	14218
866.924	14176
867.055	14244
867.186	14218
867.317	14199
867.448	14294
867.579	14187
867.71	14221
867.841	14092
867.972	14214
868.103	14301
868.233	14278
868.364	14229
868.495	14301
868.625	14492
868.756	14606
868.886	14454
869.017	14427
869.147	14625
869.278	14689
869.408	14511
869.539	14446
869.669	14617
869.799	14552
869.929	14587
870.06	14606
870.19	14750
870.32	14689
870.45	14899
870.58	14937
870.71	15036
870.84	15051
870.97	14845
871.1	14853
871.23	15081
871.36	15039
871.489	14994
871.619	15108
871.749	15039
871.879	15100
872.008	15249
872.138	15085
872.267	15001
872.397	14918
872.526	14975
872.656	14899
872.785	14948
872.915	15146
873.044	15207
873.173	15077
873.303	15211
873.432	15142
873.561	15146
873.69	15176
873.819	15256
873.948	15226
874.077	15119
874.206	15131
874.335	15226
874.464	15332
874.593	15439
874.722	15351
874.851	15488
874.979	15492
875.108	15481
875.237	15397
875.365	15405
875.494	15439
875.623	15466
875.751	15485
875.88	15405
876.008	15713
876.136	15720
876.265	15854
876.393	16101
876.521	15975
876.65	15945
876.778	15778
876.906	15934
877.034	15644
877.162	15835
877.29	15785
877.418	15861
877.546	15892
877.674	15854
877.802	15911
877.93	15915
878.058	15785
878.185	15800
878.313	15854
878.441	15789
878.568	15770
878.696	15869
878.824	15861
878.951	15934
879.079	16112
879.206	16169
879.333	16051
879.461	16013
879.588	16105
879.715	16101
879.842	16105
879.97	15960
880.097	15686
880.224	15663
880.351	15759
880.478	15823
880.605	15660
880.732	15717
880.859	15949
880.986	15804
881.112	15762
881.239	15694
881.366	15519
881.493	15561
881.619	15374
881.746	15344
881.872	15325
881.999	15272
882.125	15321
882.252	15386
882.378	15363
882.505	15587
882.631	15367
882.757	15203
882.883	15260
883.01	15150
883.136	15173
883.262	14982
883.388	15070
883.514	15264
883.64	15279
883.766	15214
883.892	15028
884.018	15142
884.143	15176
884.269	15237
884.395	14929
884.52	14872
884.646	14842
884.772	14819
884.897	14883
885.023	14868
885.148	14929
885.274	14948
885.399	15005
885.524	14979
885.65	14937
885.775	14933
885.9	14921
886.025	14986
886.15	15032
886.275	14929
886.4	14743
886.525	14845
886.65	14800
886.775	14724
886.9	14963
887.025	15116
887.149	14887
887.274	14674
887.399	14667
887.523	14701
887.648	14640
887.773	14655
887.897	14842
888.021	14754
888.146	14792
888.27	14826
888.395	14807
888.519	14804
888.643	14769
888.767	14853
888.891	14693
889.015	14571
889.139	14625
889.263	14465
889.387	14765
889.511	14807
889.635	14670
889.759	14625
889.883	14583
890.006	14541
890.13	14796
890.254	14533
890.377	14514
890.501	14324
890.624	14358
890.748	14408
890.871	14328
890.995	14191
891.118	14244
891.241	14240
891.364	14309
891.488	14366
891.611	14218
891.734	14313
891.857	14324
891.98	14229
892.103	14396
892.226	14332
892.349	14301
892.471	14275
892.594	14214
892.717	14199
892.839	14210
892.962	14187
893.085	14358
893.207	14214
893.33	14062
893.452	14206
893.575	14294
893.697	14313
893.819	14438
893.941	14461
894.064	14355
894.186	14240
894.308	14172
894.43	14385
894.552	14552
894.674	14313
894.796	14168
894.918	14347
895.04	14298
895.161	14328
895.283	14415
895.405	14187
895.526	14343
895.648	14370
895.769	14404
895.891	14358
896.012	14545
896.134	14480
896.255	14533
896.376	14362
896.498	14454
896.619	14351
896.74	14446
896.861	14568
896.982	14804
897.103	14834
897.224	14640
897.345	14663
897.466	14579
897.587	14720
897.708	14853
897.828	14716
897.949	14552
898.07	14587
898.19	14705
898.311	14899
898.431	14705
898.552	14731
898.672	14781
898.792	14910
898.913	14815
899.033	14716
899.153	14632
899.273	14537
899.393	14621
899.513	14701
899.633	14682
899.753	14716
899.873	14701
899.993	14682
900.113	14682
900.232	14629
900.352	14579
900.472	14514
900.591	14438
900.711	14549
900.83	14537
900.95	14610
901.069	14598
901.189	14396
901.308	14294
901.427	14119
901.546	14157
901.665	14263
901.784	14130
901.904	13997
902.023	13967
902.141	13818
902.26	13753
902.379	13894
902.498	13761
902.617	13693
902.735	13700
902.854	13696
902.973	13761
903.091	13476
903.21	13411
903.328	13525
903.446	13434
903.565	13346
903.683	13266
903.801	13228
903.919	13274
904.038	13293
904.156	13107
904.274	13240
904.392	13126
904.51	13053
904.627	13057
904.745	13202
904.863	13168
904.981	12932
905.098	12863
905.216	12810
905.334	12795
905.451	12837
905.569	12821
905.686	12867
905.803	12821
905.921	12658
906.038	12726
906.155	12635
906.272	12578
906.389	12639
906.506	12410
906.623	12486
906.74	12372
906.857	12254
906.974	12292
907.091	12399
907.208	12578
907.324	12551
907.441	12334
907.557	12205
907.674	12292
907.79	12022
907.907	12106
908.023	12140
908.139	12110
908.256	12114
908.372	12072
908.488	12022
908.604	11999
908.72	11878
908.836	11904
908.952	11813
909.068	11893
909.184	12053
909.3	11863
909.415	12007
909.531	11916
909.647	11714
909.762	11688
909.878	11809
909.993	11760
910.108	11653
910.224	11695
910.339	11611
910.454	11589
910.57	11634
910.685	11482
910.8	11722
910.915	11726
911.03	11596
911.145	11440
911.259	11337
911.374	11406
911.489	11349
911.604	11307
911.718	11147
911.833	11056
911.947	11121
912.062	11006
912.176	11132
912.291	11151
912.405	11090
912.519	11303
912.633	11387
912.748	11231
912.862	11185
912.976	11029
913.09	10885
913.204	11060
913.318	11045
913.431	11060
913.545	11162
913.659	11067
913.772	11010
913.886	10847
914	10812
914.113	10980
914.226	11006
914.34	11006
914.453	10858
914.566	10946
914.68	10892
914.793	10900
914.906	10622
915.019	10679
915.132	10588
915.245	10672
915.358	10672
915.47	10706
915.583	10694
915.696	10748
915.809	10736
915.921	10854
916.034	10596
916.146	10561
916.259	10546
916.371	10706
916.483	10710
916.595	10596
916.708	10603
916.82	10603
916.932	10531
917.044	10569
917.156	10512
917.268	10428
917.38	10508
917.491	10394
917.603	10500
917.715	10596
917.826	10592
917.938	10478
918.049	10375
918.161	10508
918.272	10607
918.384	10626
918.495	10504
918.606	10352
918.717	10242
918.828	10386
918.939	10405
919.05	10223
919.161	10333
919.272	10154
919.383	10215
919.494	10402
919.604	10603
919.715	10379
919.826	10303
919.936	10284
920.047	10405
920.157	10356
920.267	10508
920.378	10341
920.488	10379
920.598	10561
920.708	10721
920.818	10573
920.928	10466
921.038	10721
921.148	10729
921.258	10390
921.368	10379
921.477	10246
921.587	10280
921.697	10082
921.806	10295
921.916	10112
922.025	9991
922.134	9926
922.244	9911
922.353	9991
922.462	9819
922.571	9732
922.68	9675
922.789	9584
922.898	9618
923.007	9485
923.116	9675
923.224	9667
923.333	9637
923.442	9530
923.55	9477
923.659	9450
923.767	9542
923.876	9439
923.984	9591
924.092	9367
924.201	9545
924.309	9477
924.417	9466
924.525	9443
924.633	9428
924.741	10166
924.849	9230
924.956	9329
925.064	9241
925.172	9142
925.279	9203
925.387	9291
925.494	9146
925.602	9428
925.709	9389
925.816	9188
925.924	9264
926.031	9359
926.138	9260
926.245	9298
926.352	9237
926.459	9310
926.566	9397
926.673	9264
926.779	9097
926.886	9062
926.993	8971
927.099	8952
927.206	8952
927.312	8883
927.419	8994
927.525	9005
927.631	9039
927.737	8872
927.843	8868
927.95	8762
928.056	8750
928.162	8872
928.267	8910
928.373	9428
928.479	9009
928.585	8708
928.69	8788
928.796	8902
928.901	8712
929.007	8651
929.112	8815
929.218	8766
929.323	8701
929.428	8682
929.533	8777
929.638	8613
929.743	8644
929.848	8716
929.953	8697
930.058	8549
930.163	8454
930.267	8492
930.372	8514
930.477	8396
930.581	8701
930.685	8522
930.79	8415
930.894	8473
930.998	8355
931.103	8571
931.207	8229
931.311	8123
931.415	8115
931.519	7913
931.623	7856
