Data from test_V78500241_859.txt Node
Date: Fri Mar 25 14:39:41 CST 2022
User: usil
Spectrometer: V785-0024
Trigger mode: 0
Integration Time (sec): 4.000000E-1
Scans to average: 1
Nonlinearity correction enabled: false
Boxcar width: 0
Storing dark spectrum: false
XAxis mode: Wavelengths
Number of Pixels in Spectrum: 1024
>>>>>Begin Spectral Data<<<<<
801.071	25776
801.214	25727
801.356	25384
801.499	25263
801.641	25225
801.783	25091
801.926	25129
802.068	24989
802.211	24875
802.353	24977
802.496	24749
802.638	24661
802.78	24726
802.923	24608
803.065	24498
803.208	24631
803.35	24547
803.492	24817
803.635	24757
803.777	24555
803.919	24597
804.061	24935
804.204	24658
804.346	24604
804.488	24525
804.63	24505
804.773	24722
804.915	24703
805.057	24928
805.199	24741
805.341	24806
805.483	24867
805.626	24825
805.768	24920
805.91	25004
806.052	24852
806.194	25065
806.336	25209
806.478	25198
806.62	25126
806.762	25430
806.904	25738
807.046	26088
807.188	26267
807.33	26343
807.472	26640
807.614	26940
807.756	27450
807.898	27831
808.04	28382
808.182	29303
808.324	30681
808.465	32142
808.607	33534
808.749	34927
808.891	35912
809.033	35923
809.174	34873
809.316	33648
809.458	32111
809.6	30471
809.741	29391
809.883	28394
810.025	27728
810.166	27089
810.308	26891
810.45	26575
810.591	26256
810.733	26008
810.875	25750
811.016	25438
811.158	25472
811.299	25510
811.441	25327
811.582	25422
811.724	25198
811.865	25164
812.007	25091
812.148	25042
812.29	25065
812.431	25244
812.573	25365
812.714	25343
812.855	25392
812.997	25506
813.138	25651
813.279	25426
813.421	25369
813.562	25350
813.703	25152
813.845	24886
813.986	24688
814.127	24517
814.268	24365
814.41	24563
814.551	24369
814.692	24448
814.833	24251
814.974	24243
815.115	24209
815.256	24171
815.397	24167
815.539	24049
815.68	23973
815.821	23984
815.962	24018
816.103	23916
816.244	23832
816.385	23695
816.526	23783
816.666	23482
816.807	23368
816.948	23448
817.089	23463
817.23	23379
817.371	23353
817.512	23372
817.653	23280
817.793	23227
817.934	23284
818.075	23448
818.216	23223
818.356	23189
818.497	23071
818.638	22987
818.778	22900
818.919	22980
819.06	23056
819.2	23102
819.341	23193
819.481	23086
819.622	23185
819.762	23547
819.903	23455
820.043	23402
820.184	23174
820.324	23193
820.465	23227
820.605	23178
820.746	23121
820.886	23003
821.026	23075
821.167	23037
821.307	23208
821.447	23018
821.588	22923
821.728	22797
821.868	22698
822.008	22489
822.149	22607
822.289	22523
822.429	22238
822.569	22162
822.709	22120
822.849	21937
822.99	21854
823.13	21922
823.27	21774
823.41	21720
823.55	21652
823.69	21686
823.83	21720
823.97	21766
824.11	21469
824.25	21568
824.389	21496
824.529	21526
824.669	21507
824.809	21652
824.949	21705
825.089	21542
825.228	21447
825.368	21374
825.508	21332
825.648	21252
825.787	21424
825.927	21382
826.067	21287
826.206	21192
826.346	21344
826.485	21230
826.625	21260
826.765	21237
826.904	21275
827.044	21028
827.183	20937
827.323	20815
827.462	20990
827.601	21024
827.741	20956
827.88	20872
828.02	20746
828.159	20750
828.298	20994
828.437	20925
828.577	20868
828.716	21028
828.855	20697
828.994	20602
829.134	20727
829.273	20682
829.412	20613
829.551	20499
829.69	20495
829.829	20533
829.968	20697
830.107	20682
830.246	20648
830.385	20473
830.524	20454
830.663	20442
830.802	20206
830.941	20233
831.08	20172
831.219	20301
831.357	20218
831.496	20381
831.635	20153
831.774	20153
831.913	20111
832.051	20031
832.19	20024
832.329	20115
832.467	19989
832.606	20001
832.744	19928
832.883	19989
833.022	19963
833.16	20012
833.299	20088
833.437	20221
833.576	20358
833.714	20336
833.852	20377
833.991	20473
834.129	20537
834.267	20488
834.406	20503
834.544	20438
834.682	20347
834.821	20202
834.959	20298
835.097	20058
835.235	20233
835.373	20096
835.511	20084
835.65	19932
835.788	19845
835.926	19742
836.064	19628
836.202	19651
836.34	19647
836.478	19894
836.615	19696
836.753	19700
836.891	19951
837.029	19826
837.167	19594
837.305	19609
837.443	19563
837.58	19480
837.718	19674
837.856	19559
837.993	19464
838.131	19480
838.269	19563
838.406	19491
838.544	19426
838.681	19251
838.819	19251
838.956	19069
839.094	19046
839.231	19114
839.369	19225
839.506	19400
839.643	19198
839.781	19046
839.918	18897
840.055	19008
840.193	18947
840.33	18973
840.467	19023
840.604	19019
840.742	19236
840.879	18852
841.016	18890
841.153	18890
841.29	19103
841.427	19084
841.564	18856
841.701	18920
841.838	18932
841.975	18977
842.112	18875
842.249	18825
842.385	18642
842.522	18924
842.659	18684
842.796	18730
842.933	18814
843.069	18753
843.206	18726
843.343	18821
843.479	18810
843.616	18939
843.752	18696
843.889	18745
844.025	18802
844.162	18715
844.298	18787
844.435	18795
844.571	18871
844.708	19004
844.844	19289
844.98	19499
845.117	19772
845.253	20062
845.389	20727
845.525	22295
845.661	24779
845.798	27846
845.934	30429
846.07	31373
846.206	30935
846.342	28987
846.478	26008
846.614	23079
846.75	21150
846.886	19913
847.022	19438
847.158	18962
847.294	18665
847.429	18479
847.565	18475
847.701	18460
847.837	18038
847.972	17889
848.108	18064
848.244	18011
848.379	17737
848.515	17737
848.65	17699
848.786	17767
848.921	17630
849.057	17851
849.192	17741
849.328	17771
849.463	17585
849.598	17585
849.734	17566
849.869	17596
850.004	17341
850.14	17535
850.275	17448
850.41	17322
850.545	17345
850.68	17269
850.815	17337
850.95	17417
851.085	17535
851.22	17478
851.355	17284
851.49	17406
851.625	17337
851.76	17353
851.895	17349
852.03	17216
852.165	17395
852.299	17353
852.434	17482
852.569	17478
852.703	17467
852.838	17440
852.973	17573
853.107	17539
853.242	17535
853.376	17208
853.511	17181
853.645	17242
853.78	17341
853.914	17398
854.048	17330
854.183	17433
854.317	17311
854.451	17653
854.585	17364
854.72	17410
854.854	17471
854.988	17311
855.122	17311
855.256	17200
855.39	17280
855.524	17326
855.658	17315
855.792	17334
855.926	17277
856.06	17368
856.194	17345
856.327	17277
856.461	17162
856.595	17185
856.729	17178
856.862	17356
856.996	17159
857.13	17269
857.263	17258
857.397	17261
857.53	17220
857.664	17269
857.797	17311
857.931	17181
858.064	17204
858.197	17395
858.331	17113
858.464	17197
858.597	17033
858.731	17155
858.864	17102
858.997	17048
859.13	17136
859.263	17117
859.396	17143
859.529	17254
859.662	17189
859.795	16999
859.928	17067
860.061	17330
860.194	17227
860.327	17193
860.46	17098
860.592	17246
860.725	17204
860.858	17166
860.99	17045
861.123	17075
861.256	17083
861.388	17128
861.521	17847
861.653	16927
861.786	16949
861.918	17086
862.05	17094
862.183	17113
862.315	17041
862.447	17124
862.58	16881
862.712	16881
862.844	16755
862.976	16942
863.108	16881
863.24	17235
863.372	16816
863.504	16797
863.636	16843
863.768	16866
863.9	16869
864.032	16812
864.164	16774
864.296	16801
864.428	16919
864.559	16839
864.691	16930
864.823	16843
864.954	16809
865.086	16725
865.217	16767
865.349	16812
865.48	16809
865.612	16778
865.743	16873
865.875	16687
866.006	16748
866.137	16710
866.269	16748
866.4	16839
866.531	16672
866.662	16588
866.793	16626
866.924	16831
867.055	16767
867.186	16774
867.317	16672
867.448	16569
867.579	16763
867.71	16713
867.841	16729
867.972	16721
868.103	16687
868.233	16702
868.364	16660
868.495	16896
868.625	16934
868.756	17025
868.886	16923
869.017	17048
869.147	17185
869.278	17102
869.408	16957
869.539	16885
869.669	17166
869.799	17045
869.929	17025
870.06	16968
870.19	17299
870.32	17345
870.45	17277
870.58	17360
870.71	17596
870.84	17493
870.97	17448
871.1	17459
871.23	17539
871.36	17604
871.489	17532
871.619	17528
871.749	17558
871.879	17729
872.008	17752
872.138	17695
872.267	17649
872.397	17467
872.526	17501
872.656	17535
872.785	17444
872.915	17684
873.044	17794
873.173	17657
873.303	17809
873.432	17843
873.561	17878
873.69	17676
873.819	17813
873.948	17939
874.077	17889
874.206	17790
874.335	17885
874.464	17950
874.593	18030
874.722	18167
874.851	18247
874.979	18285
875.108	18235
875.237	18194
875.365	18163
875.494	18296
875.623	18270
875.751	18254
875.88	18304
876.008	18437
876.136	18627
876.265	18711
876.393	18886
876.521	18951
876.65	18897
876.778	18897
876.906	18905
877.034	18776
877.162	18954
877.29	18913
877.418	19008
877.546	19072
877.674	19050
877.802	19095
877.93	19152
878.058	19301
878.185	19278
878.313	19445
878.441	19529
878.568	19670
878.696	20020
878.824	20400
878.951	20956
879.079	21736
879.206	22679
879.333	23630
879.461	24426
879.588	24981
879.715	24981
879.842	24749
879.97	23668
880.097	22527
880.224	21629
880.351	21218
880.478	20754
880.605	20503
880.732	20271
880.859	20427
880.986	20164
881.112	20199
881.239	19955
881.366	19883
881.493	19845
881.619	19635
881.746	19776
881.872	19757
881.999	19677
882.125	19731
882.252	19906
882.378	19864
882.505	20039
882.631	19791
882.757	19696
882.883	19746
883.01	19632
883.136	19540
883.262	19407
883.388	19441
883.514	19658
883.64	19533
883.766	19495
883.892	19422
884.018	19392
884.143	19605
884.269	19704
884.395	19472
884.52	19362
884.646	19396
884.772	19282
884.897	19308
885.023	19331
885.148	19449
885.274	19415
885.399	19301
885.524	19183
885.65	19137
885.775	19171
885.9	18962
886.025	19008
886.15	18966
886.275	18730
886.4	18749
886.525	18696
886.65	18566
886.775	18521
886.9	18688
887.025	18802
887.149	18464
887.274	18388
887.399	18235
887.523	18254
887.648	18121
887.773	18038
887.897	18117
888.021	18068
888.146	18049
888.27	18053
888.395	18068
888.519	17889
888.643	18007
888.767	18057
888.891	17843
889.015	17714
889.139	17813
889.263	17570
889.387	17646
889.511	17798
889.635	17691
889.759	17665
889.883	17520
890.006	17653
890.13	17680
890.254	17516
890.377	17372
890.501	17254
890.624	17220
890.748	17284
890.871	17239
890.995	17060
891.118	17006
891.241	17121
891.364	17128
891.488	17208
891.611	17010
891.734	16999
891.857	17010
891.98	16961
892.103	16991
892.226	17037
892.349	16968
892.471	16733
892.594	16972
892.717	16972
892.839	16854
892.962	16923
893.085	16972
893.207	16919
893.33	16774
893.452	16843
893.575	16976
893.697	16790
893.819	16984
893.941	17086
894.064	16923
894.186	16637
894.308	16698
894.43	16881
894.552	16987
894.674	16687
894.796	16656
894.918	16782
895.04	16694
895.161	16889
895.283	16805
895.405	16626
895.526	16694
895.648	16694
895.769	16809
895.891	16809
896.012	16873
896.134	16748
896.255	16748
896.376	16869
896.498	16713
896.619	16755
896.74	16771
896.861	16771
896.982	17124
897.103	17364
897.224	17052
897.345	17003
897.466	17018
897.587	16999
897.708	17079
897.828	16995
897.949	16923
898.07	16850
898.19	17041
898.311	17048
898.431	16995
898.552	16953
898.672	17094
898.792	17083
898.913	17064
899.033	16889
899.153	16805
899.273	16805
899.393	16850
899.513	16972
899.633	16831
899.753	16797
899.873	16801
899.993	16862
900.113	16778
900.232	16877
900.352	16831
900.472	16744
900.591	16668
900.711	16717
900.83	16561
900.95	16790
901.069	16763
901.189	16641
901.308	16390
901.427	16242
901.546	16310
901.665	16291
901.784	16337
901.904	16173
902.023	16124
902.141	15819
902.26	15808
902.379	15930
902.498	15778
902.617	15717
902.735	15808
902.854	15789
902.973	15682
903.091	15561
903.21	15500
903.328	15511
903.446	15428
903.565	15310
903.683	15230
903.801	15112
903.919	15203
904.038	15279
904.156	15085
904.274	15146
904.392	15077
904.51	15001
904.627	14971
904.745	15112
904.863	15146
904.981	14804
905.098	14648
905.216	14625
905.334	14678
905.451	14697
905.569	14598
905.686	14640
905.803	14701
905.921	14552
906.038	14492
906.155	14457
906.272	14415
906.389	14400
906.506	14275
906.623	14271
906.74	14275
906.857	14027
906.974	14062
907.091	14282
907.208	14389
907.324	14218
907.441	14046
907.557	13928
907.674	13986
907.79	13906
907.907	13947
908.023	13913
908.139	13947
908.256	13932
908.372	13860
908.488	13826
908.604	13658
908.72	13586
908.836	13628
908.952	13655
909.068	13628
909.184	13738
909.3	13639
909.415	13624
909.531	13586
909.647	13365
909.762	13369
909.878	13362
909.993	13476
910.108	13369
910.224	13346
910.339	13381
910.454	13331
910.57	13247
910.685	13122
910.8	13445
910.915	13362
911.03	13266
911.145	13050
911.259	13095
911.374	13053
911.489	13038
911.604	13019
911.718	12837
911.833	12806
911.947	12662
912.062	12631
912.176	12741
912.291	12787
912.405	12760
912.519	12897
912.633	12962
912.748	12894
912.862	12783
912.976	12658
913.09	12502
913.204	12650
913.318	12589
913.431	12711
913.545	12738
913.659	12776
913.772	12673
913.886	12525
914	12490
914.113	12620
914.226	12601
914.34	12620
914.453	12464
914.566	12559
914.68	12513
914.793	12369
914.906	12270
915.019	12175
915.132	12163
915.245	12201
915.358	12232
915.47	12277
915.583	12197
915.696	12266
915.809	12296
915.921	12357
916.034	12258
916.146	12125
916.259	12136
916.371	12186
916.483	12277
916.595	12072
916.708	12133
916.82	12121
916.932	12152
917.044	12095
917.156	12068
917.268	11851
917.38	12057
917.491	12007
917.603	12049
917.715	12019
917.826	12038
917.938	11920
918.049	11851
918.161	11935
918.272	12072
918.384	12060
918.495	11931
918.606	11802
918.717	11733
918.828	11885
918.939	11764
919.05	11756
919.161	11764
919.272	11611
919.383	11577
919.494	11836
919.604	11973
919.715	11798
919.826	11707
919.936	11649
920.047	11836
920.157	11767
920.267	11920
920.378	11752
920.488	11767
920.598	11885
920.708	12163
920.818	11954
920.928	11904
921.038	12140
921.148	12087
921.258	11771
921.368	11691
921.477	11657
921.587	11539
921.697	11478
921.806	11543
921.916	11486
922.025	11292
922.134	11284
922.244	11181
922.353	11231
922.462	11071
922.571	11079
922.68	10927
922.789	10953
922.898	10911
923.007	10889
923.116	10930
923.224	10961
923.333	10976
923.442	10812
923.55	10744
923.659	10812
923.767	10782
923.876	10759
923.984	10824
924.092	10599
924.201	10790
924.309	10736
924.417	10759
924.525	10634
924.633	10782
924.741	11581
924.849	10466
924.956	10634
925.064	10504
925.172	10474
925.279	10485
925.387	10516
925.494	10462
925.602	10679
925.709	10527
925.816	10455
925.924	10489
926.031	10569
926.138	10500
926.245	10599
926.352	10386
926.459	10485
926.566	10565
926.673	10402
926.779	10287
926.886	10363
926.993	10150
927.099	10242
927.206	10044
927.312	10128
927.419	10185
927.525	10192
927.631	10230
927.737	10105
927.843	10002
927.95	9899
928.056	9945
928.162	9968
928.267	10040
928.373	10672
928.479	10101
928.585	9857
928.69	9953
928.796	10067
928.901	9899
929.007	9812
929.112	9892
929.218	9873
929.323	9819
929.428	9759
929.533	9922
929.638	9728
929.743	9766
929.848	9823
929.953	9838
930.058	9728
930.163	9526
930.267	9584
930.372	9766
930.477	9526
930.581	9705
930.685	9591
930.79	9450
930.894	9572
930.998	9428
931.103	9652
931.207	9298
931.311	9173
931.415	9150
931.519	8921
931.623	8982
