Data from test_V78500241_3462.txt Node
Date: Fri Mar 25 14:57:49 CST 2022
User: usil
Spectrometer: V785-0024
Trigger mode: 0
Integration Time (sec): 4.000000E-1
Scans to average: 1
Nonlinearity correction enabled: false
Boxcar width: 0
Storing dark spectrum: false
XAxis mode: Wavelengths
Number of Pixels in Spectrum: 1024
>>>>>Begin Spectral Data<<<<<
801.071	21964
801.214	21724
801.356	21538
801.499	21469
801.641	21329
801.783	21325
801.926	21370
802.068	21283
802.211	21131
802.353	21108
802.496	20826
802.638	20819
802.78	20765
802.923	20750
803.065	20640
803.208	20651
803.35	20674
803.492	20724
803.635	20807
803.777	20602
803.919	20724
804.061	20906
804.204	20708
804.346	20587
804.488	20583
804.63	20617
804.773	20526
804.915	20590
805.057	20750
805.199	20377
805.341	20556
805.483	20640
805.626	20560
805.768	20571
805.91	20564
806.052	20526
806.194	20408
806.336	20651
806.478	20473
806.62	20396
806.762	20644
806.904	20670
807.046	21055
807.188	20845
807.33	20960
807.472	21062
807.614	20800
807.756	20800
807.898	20735
808.04	20705
808.182	20720
808.324	20636
808.465	20648
808.607	20819
808.749	20834
808.891	21036
809.033	21024
809.174	20994
809.316	20804
809.458	20845
809.6	20819
809.741	20971
809.883	20883
810.025	21039
810.166	20994
810.308	21043
810.45	20952
810.591	20838
810.733	20708
810.875	20590
811.016	20526
811.158	20526
811.299	20697
811.441	20693
811.582	20765
811.724	20716
811.865	20613
812.007	20674
812.148	20651
812.29	20632
812.431	20788
812.573	21058
812.714	21001
812.855	21074
812.997	21135
813.138	21256
813.279	21233
813.421	21169
813.562	21070
813.703	20902
813.845	20781
813.986	20454
814.127	20294
814.268	20233
814.41	20328
814.551	20214
814.692	20199
814.833	20168
814.974	20115
815.115	20130
815.256	19993
815.397	19978
815.539	20077
815.68	19883
815.821	19845
815.962	19974
816.103	19795
816.244	19818
816.385	19620
816.526	19628
816.666	19506
816.807	19339
816.948	19430
817.089	19525
817.23	19308
817.371	19411
817.512	19430
817.653	19335
817.793	19240
817.934	19263
818.075	19339
818.216	19297
818.356	19198
818.497	19175
818.638	18989
818.778	19008
818.919	18932
819.06	19042
819.2	19069
819.341	19187
819.481	19209
819.622	19308
819.762	19571
819.903	19343
820.043	19365
820.184	19339
820.324	19335
820.465	19244
820.605	19335
820.746	19251
820.886	19061
821.026	19228
821.167	19175
821.307	19266
821.447	19289
821.588	19110
821.728	19061
821.868	18897
822.008	18734
822.149	18806
822.289	18810
822.429	18513
822.569	18437
822.709	18330
822.849	18232
822.99	18197
823.13	18232
823.27	18129
823.41	18034
823.55	17973
823.69	17935
823.83	18022
823.97	17863
824.11	17824
824.25	17691
824.389	17828
824.529	17882
824.669	17760
824.809	17878
824.949	17851
825.089	17699
825.228	17714
825.368	17577
825.508	17573
825.648	17630
825.787	17634
825.927	17592
826.067	17471
826.206	17558
826.346	17604
826.485	17543
826.625	17596
826.765	17649
826.904	17665
827.044	17307
827.183	17326
827.323	17155
827.462	17372
827.601	17277
827.741	17105
827.88	17216
828.02	17113
828.159	17174
828.298	17265
828.437	17250
828.577	17170
828.716	17459
828.855	17208
828.994	16987
829.134	17060
829.273	17041
829.412	16995
829.551	17045
829.69	17022
829.829	17010
829.968	17155
830.107	17151
830.246	16999
830.385	16938
830.524	16949
830.663	16858
830.802	16873
830.941	16641
831.08	16672
831.219	16774
831.357	16706
831.496	16881
831.635	16580
831.774	16607
831.913	16516
832.051	16417
832.19	16344
832.329	16417
832.467	16344
832.606	16329
832.744	16333
832.883	16390
833.022	16276
833.16	16344
833.299	16356
833.437	16333
833.576	16417
833.714	16394
833.852	16421
833.991	16382
834.129	16504
834.267	16542
834.406	16405
834.544	16493
834.682	16455
834.821	16360
834.959	16481
835.097	16348
835.235	16516
835.373	16394
835.511	16440
835.65	16360
835.788	16287
835.926	16116
836.064	16120
836.202	16006
836.34	16356
836.478	16436
836.615	16238
836.753	16303
836.891	16443
837.029	16303
837.167	16268
837.305	16344
837.443	16158
837.58	16101
837.718	16253
837.856	16253
837.993	16131
838.131	16154
838.269	16116
838.406	16139
838.544	15972
838.681	15892
838.819	15846
838.956	15831
839.094	15682
839.231	15736
839.369	15888
839.506	16128
839.643	15945
839.781	15835
839.918	15751
840.055	15819
840.193	15751
840.33	15762
840.467	15808
840.604	15846
840.742	16010
840.879	15633
841.016	15679
841.153	15641
841.29	15816
841.427	15766
841.564	15808
841.701	15705
841.838	15686
841.975	15660
842.112	15690
842.249	15587
842.385	15420
842.522	15728
842.659	15595
842.796	15511
842.933	15599
843.069	15507
843.206	15435
843.343	15622
843.479	15545
843.616	15603
843.752	15359
843.889	15393
844.025	15397
844.162	15211
844.298	15443
844.435	15317
844.571	15302
844.708	15443
844.844	15447
844.98	15534
845.117	15515
845.253	15272
845.389	15184
845.525	15298
845.661	15157
845.798	15093
845.934	15123
846.07	15097
846.206	15222
846.342	15249
846.478	15146
846.614	15009
846.75	14815
846.886	14918
847.022	14979
847.158	14918
847.294	14830
847.429	14944
847.565	14910
847.701	15100
847.837	14739
847.972	14610
848.108	14800
848.244	14750
848.379	14579
848.515	14438
848.65	14423
848.786	14511
848.921	14473
849.057	14610
849.192	14590
849.328	14552
849.463	14484
849.598	14408
849.734	14446
849.869	14324
850.004	14320
850.14	14267
850.275	14320
850.41	14233
850.545	14275
850.68	14336
850.815	14332
850.95	14214
851.085	14412
851.22	14336
851.355	14237
851.49	14195
851.625	14221
851.76	14199
851.895	14210
852.03	14088
852.165	14218
852.299	14271
852.434	14320
852.569	14199
852.703	14240
852.838	14434
852.973	14351
853.107	14454
853.242	14180
853.376	14187
853.511	14058
853.645	14050
853.78	14191
853.914	14202
854.048	14088
854.183	14046
854.317	14149
854.451	14309
854.585	14142
854.72	14084
854.854	14233
854.988	14153
855.122	14161
855.256	13936
855.39	14081
855.524	14233
855.658	14210
855.792	14039
855.926	14282
856.06	14199
856.194	14233
856.327	14115
856.461	14031
856.595	14031
856.729	14046
856.862	14275
856.996	14172
857.13	14145
857.263	14339
857.397	14290
857.53	14145
857.664	14183
857.797	14233
857.931	14259
858.064	14180
858.197	14199
858.331	14119
858.464	14107
858.597	13986
858.731	14107
858.864	14100
858.997	14058
859.13	14126
859.263	14210
859.396	14202
859.529	14005
859.662	14024
859.795	14005
859.928	14225
860.061	14267
860.194	14309
860.327	14206
860.46	14180
860.592	14271
860.725	14210
860.858	14218
860.99	14157
861.123	14046
861.256	14123
861.388	14031
861.521	14899
861.653	14005
861.786	13989
861.918	14012
862.05	14100
862.183	14123
862.315	14134
862.447	14210
862.58	14126
862.712	13803
862.844	13818
862.976	13887
863.108	13928
863.24	14396
863.372	13841
863.504	13818
863.636	13902
863.768	13963
863.9	13959
864.032	13906
864.164	13852
864.296	13921
864.428	14024
864.559	14065
864.691	13970
864.823	13963
864.954	13967
865.086	13974
865.217	13879
865.349	13822
865.48	13936
865.612	13860
865.743	14062
865.875	13906
866.006	13928
866.137	13887
866.269	13894
866.4	13826
866.531	13788
866.662	13727
866.793	13811
866.924	13898
867.055	13898
867.186	13890
867.317	13772
867.448	13811
867.579	13784
867.71	13856
867.841	13837
867.972	13890
868.103	13814
868.233	13955
868.364	13864
868.495	13940
868.625	14123
868.756	14248
868.886	13951
869.017	14119
869.147	14240
869.278	14237
869.408	14267
869.539	14134
869.669	14275
869.799	14229
869.929	14256
870.06	14309
870.19	14473
870.32	14431
870.45	14545
870.58	14590
870.71	14583
870.84	14644
870.97	14545
871.1	14514
871.23	14823
871.36	14845
871.489	14552
871.619	14746
871.749	14670
871.879	14769
872.008	14910
872.138	14697
872.267	14788
872.397	14568
872.526	14590
872.656	14568
872.785	14648
872.915	14781
873.044	14857
873.173	14834
873.303	14857
873.432	14849
873.561	14952
873.69	14876
873.819	14788
873.948	14933
874.077	14868
874.206	14731
874.335	14842
874.464	15032
874.593	15013
874.722	15112
874.851	15180
874.979	15104
875.108	15146
875.237	15142
875.365	15005
875.494	15051
875.623	15180
875.751	15036
875.88	15176
876.008	15203
876.136	15332
876.265	15477
876.393	15686
876.521	15644
876.65	15690
876.778	15591
876.906	15492
877.034	15443
877.162	15466
877.29	15568
877.418	15587
877.546	15526
877.674	15530
877.802	15568
877.93	15458
878.058	15469
878.185	15462
878.313	15492
878.441	15580
878.568	15458
878.696	15515
878.824	15576
878.951	15663
879.079	15671
879.206	15819
879.333	15724
879.461	15568
879.588	15633
879.715	15622
879.842	15759
879.97	15622
880.097	15317
880.224	15389
880.351	15439
880.478	15473
880.605	15355
880.732	15321
880.859	15663
880.986	15348
881.112	15294
881.239	15283
881.366	15184
881.493	15017
881.619	15009
881.746	15058
881.872	15066
881.999	14994
882.125	15005
882.252	15051
882.378	15005
882.505	15195
882.631	15047
882.757	14902
882.883	14895
883.01	14788
883.136	14765
883.262	14785
883.388	14716
883.514	14834
883.64	14929
883.766	14849
883.892	14667
884.018	14788
884.143	14914
884.269	14941
884.395	14583
884.52	14583
884.646	14571
884.772	14522
884.897	14507
885.023	14530
885.148	14640
885.274	14693
885.399	14667
885.524	14549
885.65	14583
885.775	14530
885.9	14613
886.025	14629
886.15	14682
886.275	14568
886.4	14473
886.525	14568
886.65	14526
886.775	14465
886.9	14731
887.025	14781
887.149	14549
887.274	14476
887.399	14431
887.523	14476
887.648	14298
887.773	14317
887.897	14351
888.021	14499
888.146	14305
888.27	14571
888.395	14533
888.519	14415
888.643	14457
888.767	14457
888.891	14381
889.015	14278
889.139	14351
889.263	14271
889.387	14400
889.511	14530
889.635	14412
889.759	14237
889.883	14282
890.006	14214
890.13	14362
890.254	14195
890.377	14176
890.501	14062
890.624	14046
890.748	14161
890.871	13955
890.995	13936
891.118	13963
891.241	14008
891.364	13997
891.488	14161
891.611	13898
891.734	13940
891.857	14084
891.98	13967
892.103	14073
892.226	13967
892.349	14016
892.471	13925
892.594	13928
892.717	14016
892.839	14008
892.962	13913
893.085	13997
893.207	13989
893.33	13776
893.452	13894
893.575	14123
893.697	13955
893.819	14111
893.941	14240
894.064	14050
894.186	13917
894.308	13963
894.43	14077
894.552	14183
894.674	14119
894.796	13970
894.918	14088
895.04	14016
895.161	14172
895.283	14062
895.405	13917
895.526	14107
895.648	14065
895.769	14065
895.891	14092
896.012	14233
896.134	14240
896.255	14176
896.376	14107
896.498	14084
896.619	14202
896.74	14176
896.861	14202
896.982	14412
897.103	14636
897.224	14419
897.345	14381
897.466	14393
897.587	14423
897.708	14457
897.828	14522
897.949	14400
898.07	14324
898.19	14309
898.311	14511
898.431	14385
898.552	14541
898.672	14617
898.792	14583
898.913	14537
899.033	14423
899.153	14336
899.273	14355
899.393	14214
899.513	14431
899.633	14309
899.753	14343
899.873	14237
899.993	14469
900.113	14412
900.232	14389
900.352	14385
900.472	14290
900.591	14210
900.711	14256
900.83	14035
900.95	14358
901.069	14282
901.189	14161
901.308	13947
901.427	13803
901.546	13913
901.665	13875
901.784	13909
901.904	13715
902.023	13685
902.141	13502
902.26	13430
902.379	13426
902.498	13510
902.617	13457
902.735	13457
902.854	13381
902.973	13327
903.091	13137
903.21	13221
903.328	13107
903.446	13091
903.565	13080
903.683	13015
903.801	12947
903.919	13004
904.038	12954
904.156	12867
904.274	12886
904.392	12848
904.51	12787
904.627	12833
904.745	12951
904.863	12837
904.981	12646
905.098	12585
905.216	12528
905.334	12551
905.451	12532
905.569	12509
905.686	12578
905.803	12585
905.921	12388
906.038	12422
906.155	12342
906.272	12232
906.389	12270
906.506	12098
906.623	12076
906.74	12057
906.857	12045
906.974	12038
907.091	12220
907.208	12277
907.324	12114
907.441	12060
907.557	11897
907.674	11832
907.79	11764
907.907	11866
908.023	11809
908.139	11882
908.256	11851
908.372	11767
908.488	11802
908.604	11714
908.72	11661
908.836	11611
908.952	11665
909.068	11611
909.184	11798
909.3	11615
909.415	11653
909.531	11638
909.647	11452
909.762	11395
909.878	11292
909.993	11452
910.108	11433
910.224	11402
910.339	11535
910.454	11284
910.57	11246
910.685	11147
910.8	11497
910.915	11455
911.03	11299
911.145	11143
911.259	11151
911.374	11117
911.489	11124
911.604	11048
911.718	10942
911.833	10847
911.947	10820
912.062	10736
912.176	10858
912.291	10873
912.405	10881
912.519	11041
912.633	11045
912.748	11010
912.862	10896
912.976	10786
913.09	10664
913.204	10710
913.318	10733
913.431	10843
913.545	10778
913.659	10877
913.772	10725
913.886	10615
914	10512
914.113	10812
914.226	10744
914.34	10767
914.453	10481
914.566	10805
914.68	10523
914.793	10577
914.906	10402
915.019	10322
915.132	10329
915.245	10424
915.358	10470
915.47	10363
915.583	10459
915.696	10466
915.809	10478
915.921	10561
916.034	10360
916.146	10352
916.259	10284
916.371	10443
916.483	10466
916.595	10291
916.708	10344
916.82	10344
916.932	10329
917.044	10261
917.156	10306
917.268	10223
917.38	10230
917.491	10219
917.603	10227
917.715	10329
917.826	10287
917.938	10246
918.049	10181
918.161	10272
918.272	10394
918.384	10417
918.495	10192
918.606	10196
918.717	10090
918.828	10105
918.939	10082
919.05	10082
919.161	10074
919.272	9899
919.383	9884
919.494	10173
919.604	10318
919.715	10147
919.826	9975
919.936	10173
920.047	10150
920.157	10131
920.267	10303
920.378	10173
920.488	10116
920.598	10333
920.708	10436
920.818	10310
920.928	10363
921.038	10409
921.148	10421
921.258	10166
921.368	10059
921.477	10032
921.587	9991
921.697	9838
921.806	10017
921.916	9835
922.025	9732
922.134	9660
922.244	9679
922.353	9633
922.462	9500
922.571	9496
922.68	9359
922.789	9355
922.898	9405
923.007	9321
923.116	9450
923.224	9351
923.333	9351
923.442	9241
923.55	9214
923.659	9253
923.767	9245
923.876	9317
923.984	9325
924.092	9192
924.201	9272
924.309	9214
924.417	9226
924.525	9184
924.633	9222
924.741	10131
924.849	9051
924.956	9173
925.064	9077
925.172	8956
925.279	8944
925.387	9047
925.494	9051
925.602	9211
925.709	9066
925.816	8883
925.924	8963
926.031	9138
926.138	9085
926.245	9146
926.352	9024
926.459	9100
926.566	9135
926.673	8986
926.779	8929
926.886	8925
926.993	8777
927.099	8758
927.206	8659
927.312	8701
927.419	8785
927.525	8766
927.631	8880
927.737	8750
927.843	8682
927.95	8564
928.056	8648
928.162	8670
928.267	8701
928.373	9268
928.479	8769
928.585	8507
928.69	8640
928.796	8693
928.901	8571
929.007	8465
929.112	8606
929.218	8492
929.323	8526
929.428	8530
929.533	8610
929.638	8427
929.743	8423
929.848	8499
929.953	8530
930.058	8393
930.163	8183
930.267	8256
930.372	8385
930.477	8221
930.581	8454
930.685	8252
930.79	8176
930.894	8195
930.998	8191
931.103	8336
931.207	7986
931.311	7944
931.415	7883
931.519	7769
931.623	7696
