Data from test_V78500241_2290.txt Node
Date: Fri Mar 25 14:49:39 CST 2022
User: usil
Spectrometer: V785-0024
Trigger mode: 0
Integration Time (sec): 4.000000E-1
Scans to average: 1
Nonlinearity correction enabled: false
Boxcar width: 0
Storing dark spectrum: false
XAxis mode: Wavelengths
Number of Pixels in Spectrum: 1024
>>>>>Begin Spectral Data<<<<<
801.071	22082
801.214	22101
801.356	21812
801.499	21686
801.641	21587
801.783	21564
801.926	21542
802.068	21397
802.211	21382
802.353	21313
802.496	21184
802.638	20971
802.78	21066
802.923	20914
803.065	20876
803.208	20762
803.35	20887
803.492	20963
803.635	20921
803.777	20891
803.919	20967
804.061	21150
804.204	20834
804.346	20864
804.488	20826
804.63	20861
804.773	20762
804.915	20788
805.057	20853
805.199	20830
805.341	20815
805.483	20929
805.626	20887
805.768	20796
805.91	20735
806.052	20807
806.194	20724
806.336	20880
806.478	20731
806.62	20678
806.762	20952
806.904	21005
807.046	21169
807.188	21032
807.33	21043
807.472	21142
807.614	21020
807.756	21043
807.898	20948
808.04	20918
808.182	20872
808.324	20880
808.465	20883
808.607	21100
808.749	21226
808.891	21283
809.033	21294
809.174	21279
809.316	21123
809.458	21260
809.6	21135
809.741	21222
809.883	21233
810.025	21393
810.166	21359
810.308	21344
810.45	21268
810.591	21222
810.733	21093
810.875	20868
811.016	20990
811.158	20941
811.299	21070
811.441	21077
811.582	21142
811.724	20986
811.865	21020
812.007	20918
812.148	20880
812.29	20918
812.431	21180
812.573	21173
812.714	21374
812.855	21450
812.997	21504
813.138	21667
813.279	21564
813.421	21428
813.562	21443
813.703	21233
813.845	21108
813.986	20834
814.127	20594
814.268	20705
814.41	20617
814.551	20583
814.692	20533
814.833	20503
814.974	20442
815.115	20560
815.256	20229
815.397	20412
815.539	20362
815.68	20275
815.821	20168
815.962	20240
816.103	20221
816.244	20096
816.385	19932
816.526	19997
816.666	19776
816.807	19616
816.948	19731
817.089	19833
817.23	19685
817.371	19613
817.512	19620
817.653	19647
817.793	19441
817.934	19750
818.075	19563
818.216	19643
818.356	19674
818.497	19426
818.638	19266
818.778	19293
818.919	19346
819.06	19373
819.2	19430
819.341	19571
819.481	19396
819.622	19761
819.762	19879
819.903	19712
820.043	19685
820.184	19533
820.324	19594
820.465	19578
820.605	19700
820.746	19647
820.886	19571
821.026	19601
821.167	19483
821.307	19639
821.447	19476
821.588	19411
821.728	19335
821.868	19221
822.008	19088
822.149	19057
822.289	19008
822.429	18726
822.569	18658
822.709	18623
822.849	18486
822.99	18506
823.13	18372
823.27	18525
823.41	18243
823.55	18323
823.69	18228
823.83	18311
823.97	18270
824.11	18163
824.25	18064
824.389	18049
824.529	18019
824.669	18030
824.809	18133
824.949	18159
825.089	18140
825.228	18060
825.368	17916
825.508	17912
825.648	17916
825.787	17889
825.927	17927
826.067	17752
826.206	17855
826.346	17893
826.485	17855
826.625	17821
826.765	17832
826.904	17965
827.044	17619
827.183	17570
827.323	17665
827.462	17638
827.601	17471
827.741	17547
827.88	17524
828.02	17429
828.159	17558
828.298	17611
828.437	17562
828.577	17463
828.716	17634
828.855	17562
828.994	17246
829.134	17303
829.273	17311
829.412	17330
829.551	17181
829.69	17216
829.829	17383
829.968	17402
830.107	17376
830.246	17311
830.385	17269
830.524	17216
830.663	17147
830.802	17029
830.941	16930
831.08	16991
831.219	16991
831.357	16968
831.496	17166
831.635	16835
831.774	16873
831.913	16816
832.051	16569
832.19	16664
832.329	16653
832.467	16519
832.606	16577
832.744	16664
832.883	16478
833.022	16599
833.16	16569
833.299	16672
833.437	16641
833.576	16675
833.714	16634
833.852	16702
833.991	16702
834.129	16698
834.267	16656
834.406	16573
834.544	16668
834.682	16626
834.821	16740
834.959	16782
835.097	16675
835.235	16698
835.373	16664
835.511	16675
835.65	16504
835.788	16500
835.926	16428
836.064	16318
836.202	16363
836.34	16558
836.478	16611
836.615	16489
836.753	16580
836.891	16577
837.029	16516
837.167	16455
837.305	16504
837.443	16436
837.58	16432
837.718	16474
837.856	16375
837.993	16303
838.131	16344
838.269	16219
838.406	16204
838.544	16188
838.681	16071
838.819	16082
838.956	15884
839.094	15930
839.231	16040
839.369	16036
839.506	16303
839.643	16211
839.781	15926
839.918	15895
840.055	16059
840.193	15846
840.33	15800
840.467	15926
840.604	15907
840.742	16086
840.879	15793
841.016	15823
841.153	15739
841.29	15880
841.427	15991
841.564	15888
841.701	15968
841.838	16002
841.975	15800
842.112	15797
842.249	15701
842.385	15641
842.522	15880
842.659	15720
842.796	15705
842.933	15751
843.069	15656
843.206	15732
843.343	15835
843.479	15808
843.616	15759
843.752	15618
843.889	15496
844.025	15629
844.162	15332
844.298	15603
844.435	15519
844.571	15382
844.708	15587
844.844	15564
844.98	15656
845.117	15557
845.253	15492
845.389	15420
845.525	15466
845.661	15431
845.798	15310
845.934	15321
846.07	15294
846.206	15291
846.342	15325
846.478	15256
846.614	15089
846.75	14960
846.886	15028
847.022	15093
847.158	15112
847.294	15058
847.429	15116
847.565	15108
847.701	15260
847.837	14815
847.972	14762
848.108	14933
848.244	14838
848.379	14739
848.515	14712
848.65	14598
848.786	14629
848.921	14746
849.057	14804
849.192	14689
849.328	14674
849.463	14670
849.598	14640
849.734	14571
849.869	14503
850.004	14358
850.14	14393
850.275	14415
850.41	14313
850.545	14457
850.68	14385
850.815	14370
850.95	14320
851.085	14541
851.22	14541
851.355	14442
851.49	14396
851.625	14499
851.76	14317
851.895	14244
852.03	14263
852.165	14358
852.299	14484
852.434	14518
852.569	14419
852.703	14438
852.838	14522
852.973	14598
853.107	14507
853.242	14400
853.376	14393
853.511	14164
853.645	14161
853.78	14362
853.914	14343
854.048	14381
854.183	14214
854.317	14324
854.451	14469
854.585	14282
854.72	14259
854.854	14225
854.988	14191
855.122	14282
855.256	14050
855.39	14309
855.524	14336
855.658	14358
855.792	14313
855.926	14294
856.06	14301
856.194	14377
856.327	14366
856.461	14290
856.595	14183
856.729	14161
856.862	14446
856.996	14404
857.13	14412
857.263	14415
857.397	14313
857.53	14195
857.664	14355
857.797	14404
857.931	14332
858.064	14305
858.197	14362
858.331	14180
858.464	14278
858.597	14229
858.731	14282
858.864	14298
858.997	14336
859.13	14320
859.263	14358
859.396	14415
859.529	14263
859.662	14214
859.795	14195
859.928	14355
860.061	14511
860.194	14438
860.327	14199
860.46	14259
860.592	14393
860.725	14450
860.858	14381
860.99	14301
861.123	14275
861.256	14229
861.388	14313
861.521	14769
861.653	14199
861.786	14138
861.918	14221
862.05	14214
862.183	14221
862.315	14233
862.447	14336
862.58	14130
862.712	14008
862.844	14054
862.976	14084
863.108	14012
863.24	14427
863.372	13925
863.504	14077
863.636	14123
863.768	14115
863.9	13974
864.032	13982
864.164	14046
864.296	14126
864.428	14164
864.559	14180
864.691	14176
864.823	14248
864.954	14043
865.086	14115
865.217	14077
865.349	13959
865.48	14084
865.612	14142
865.743	14180
865.875	14081
866.006	13989
866.137	14016
866.269	14020
866.4	14111
866.531	13970
866.662	14012
866.793	14024
866.924	14126
867.055	14073
867.186	13936
867.317	14046
867.448	13944
867.579	13879
867.71	13852
867.841	13925
867.972	14035
868.103	14103
868.233	14119
868.364	13993
868.495	14073
868.625	14252
868.756	14358
868.886	14259
869.017	14210
869.147	14415
869.278	14446
869.408	14275
869.539	14301
869.669	14389
869.799	14362
869.929	14438
870.06	14438
870.19	14632
870.32	14488
870.45	14610
870.58	14693
870.71	14796
870.84	14785
870.97	14640
871.1	14811
871.23	14765
871.36	14849
871.489	14781
871.619	14834
871.749	14853
871.879	14986
872.008	15013
872.138	14918
872.267	14807
872.397	14765
872.526	14655
872.656	14727
872.785	14648
872.915	14960
873.044	14986
873.173	14883
873.303	14921
873.432	14982
873.561	14990
873.69	14971
873.819	15005
873.948	15028
874.077	14925
874.206	14971
874.335	15009
874.464	15009
874.593	15226
874.722	15157
874.851	15298
874.979	15245
875.108	15233
875.237	15249
875.365	15165
875.494	15237
875.623	15260
875.751	15245
875.88	15287
876.008	15378
876.136	15431
876.265	15633
876.393	15797
876.521	15759
876.65	15747
876.778	15690
876.906	15705
877.034	15622
877.162	15561
877.29	15637
877.418	15671
877.546	15587
877.674	15736
877.802	15629
877.93	15625
878.058	15610
878.185	15557
878.313	15644
878.441	15694
878.568	15469
878.696	15553
878.824	15724
878.951	15819
879.079	15804
879.206	15945
879.333	15766
879.461	15812
879.588	15819
879.715	15793
879.842	15987
879.97	15686
880.097	15549
880.224	15469
880.351	15572
880.478	15511
880.605	15584
880.732	15500
880.859	15736
880.986	15473
881.112	15473
881.239	15469
881.366	15302
881.493	15214
881.619	15279
881.746	15203
881.872	15112
881.999	15135
882.125	15154
882.252	15279
882.378	15039
882.505	15310
882.631	15184
882.757	14990
882.883	15039
883.01	15001
883.136	14971
883.262	14861
883.388	14765
883.514	15047
883.64	15108
883.766	14918
883.892	14838
884.018	14895
884.143	14910
884.269	15131
884.395	14693
884.52	14727
884.646	14625
884.772	14659
884.897	14625
885.023	14739
885.148	14872
885.274	14868
885.399	14815
885.524	14625
885.65	14678
885.775	14807
885.9	14693
886.025	14800
886.15	14777
886.275	14587
886.4	14568
886.525	14674
886.65	14545
886.775	14602
886.9	14792
887.025	14899
887.149	14724
887.274	14564
887.399	14461
887.523	14530
887.648	14454
887.773	14396
887.897	14575
888.021	14629
888.146	14507
888.27	14636
888.395	14663
888.519	14537
888.643	14480
888.767	14568
888.891	14495
889.015	14431
889.139	14309
889.263	14415
889.387	14450
889.511	14663
889.635	14526
889.759	14423
889.883	14389
890.006	14385
890.13	14507
890.254	14298
890.377	14298
890.501	14195
890.624	14115
890.748	14199
890.871	14088
890.995	14157
891.118	14035
891.241	14096
891.364	14058
891.488	14202
891.611	13989
891.734	14069
891.857	14126
891.98	14008
892.103	14164
892.226	14100
892.349	14081
892.471	14027
892.594	14081
892.717	14123
892.839	14069
892.962	14119
893.085	14237
893.207	14119
893.33	13997
893.452	14024
893.575	14138
893.697	14092
893.819	14210
893.941	14221
894.064	14248
894.186	14065
894.308	14001
894.43	14191
894.552	14263
894.674	14229
894.796	14142
894.918	14172
895.04	14221
895.161	14320
895.283	14168
895.405	14107
895.526	14221
895.648	14180
895.769	14214
895.891	14282
896.012	14286
896.134	14313
896.255	14229
896.376	14218
896.498	14275
896.619	14290
896.74	14263
896.861	14317
896.982	14621
897.103	14617
897.224	14617
897.345	14381
897.466	14473
897.587	14492
897.708	14705
897.828	14606
897.949	14560
898.07	14339
898.19	14503
898.311	14670
898.431	14632
898.552	14568
898.672	14686
898.792	14674
898.913	14602
899.033	14655
899.153	14499
899.273	14423
899.393	14507
899.513	14583
899.633	14427
899.753	14518
899.873	14454
899.993	14457
900.113	14514
900.232	14495
900.352	14358
900.472	14412
900.591	14294
900.711	14305
900.83	14263
900.95	14457
901.069	14480
901.189	14366
901.308	14065
901.427	14046
901.546	14012
901.665	14050
901.784	13993
901.904	13928
902.023	13761
902.141	13594
902.26	13544
902.379	13674
902.498	13594
902.617	13430
902.735	13643
902.854	13521
902.973	13533
903.091	13327
903.21	13422
903.328	13320
903.446	13270
903.565	13217
903.683	13141
903.801	13061
903.919	13107
904.038	13069
904.156	12951
904.274	13069
904.392	12996
904.51	12932
904.627	12932
904.745	12973
904.863	13114
904.981	12768
905.098	12585
905.216	12726
905.334	12589
905.451	12646
905.569	12635
905.686	12673
905.803	12654
905.921	12536
906.038	12582
906.155	12483
906.272	12388
906.389	12384
906.506	12232
906.623	12273
906.74	12213
906.857	12110
906.974	12095
907.091	12300
907.208	12426
907.324	12205
907.441	12144
907.557	12038
907.674	12041
907.79	11920
907.907	11988
908.023	11984
908.139	12007
908.256	12019
908.372	11977
908.488	11798
908.604	11813
908.72	11809
908.836	11805
908.952	11676
909.068	11794
909.184	11794
909.3	11722
909.415	11760
909.531	11885
909.647	11478
909.762	11524
909.878	11486
909.993	11566
910.108	11459
910.224	11490
910.339	11585
910.454	11455
910.57	11402
910.685	11349
910.8	11535
910.915	11463
911.03	11478
911.145	11197
911.259	11136
911.374	11204
911.489	11189
911.604	11086
911.718	11052
911.833	11041
911.947	10847
912.062	10824
912.176	11003
912.291	10915
912.405	10984
912.519	11181
912.633	11201
912.748	11052
912.862	11045
912.976	10889
913.09	10744
913.204	10736
913.318	10911
913.431	10934
913.545	11041
913.659	10934
913.772	10847
913.886	10740
914	10641
914.113	10896
914.226	10927
914.34	10752
914.453	10668
914.566	10733
914.68	10611
914.793	10714
914.906	10489
915.019	10443
915.132	10447
915.245	10386
915.358	10504
915.47	10466
915.583	10512
915.696	10531
915.809	10626
915.921	10630
916.034	10443
916.146	10413
916.259	10451
916.371	10550
916.483	10478
916.595	10341
916.708	10455
916.82	10436
916.932	10344
917.044	10436
917.156	10398
917.268	10272
917.38	10348
917.491	10318
917.603	10314
917.715	10382
917.826	10405
917.938	10379
918.049	10173
918.161	10341
918.272	10455
918.384	10485
918.495	10360
918.606	10227
918.717	10131
918.828	10230
918.939	10246
919.05	10109
919.161	10211
919.272	10002
919.383	10078
919.494	10287
919.604	10424
919.715	10204
919.826	10249
919.936	10207
920.047	10325
920.157	10185
920.267	10421
920.378	10242
920.488	10150
920.598	10363
920.708	10573
920.818	10447
920.928	10402
921.038	10577
921.148	10497
921.258	10246
921.368	10249
921.477	10090
921.587	10040
921.697	9937
921.806	10086
921.916	9915
922.025	9762
922.134	9759
922.244	9743
922.353	9808
922.462	9644
922.571	9641
922.68	9466
922.789	9435
922.898	9466
923.007	9408
923.116	9462
923.224	9477
923.333	9420
923.442	9344
923.55	9317
923.659	9416
923.767	9397
923.876	9317
923.984	9401
924.092	9302
924.201	9351
924.309	9359
924.417	9405
924.525	9184
924.633	9287
924.741	10177
924.849	9066
924.956	9222
925.064	9047
925.172	9062
925.279	9112
925.387	9203
925.494	9214
925.602	9233
925.709	9218
925.816	9039
925.924	9180
926.031	9199
926.138	9146
926.245	9154
926.352	9055
926.459	9199
926.566	9157
926.673	9039
926.779	9024
926.886	8941
926.993	8853
927.099	8830
927.206	8773
927.312	8758
927.419	8853
927.525	8750
927.631	8895
927.737	8804
927.843	8716
927.95	8659
928.056	8689
928.162	8716
928.267	8826
928.373	9439
928.479	8853
928.585	8663
928.69	8735
928.796	8788
928.901	8602
929.007	8571
929.112	8670
929.218	8636
929.323	8533
929.428	8579
929.533	8636
929.638	8530
929.743	8533
929.848	8598
929.953	8530
930.058	8446
930.163	8305
930.267	8339
930.372	8457
930.477	8389
930.581	8594
930.685	8419
930.79	8263
930.894	8339
930.998	8161
931.103	8320
931.207	8142
931.311	8046
931.415	7932
931.519	7788
931.623	7734
