Data from test_V78500241_1169.txt Node
Date: Fri Mar 25 14:41:51 CST 2022
User: usil
Spectrometer: V785-0024
Trigger mode: 0
Integration Time (sec): 4.000000E-1
Scans to average: 1
Nonlinearity correction enabled: false
Boxcar width: 0
Storing dark spectrum: false
XAxis mode: Wavelengths
Number of Pixels in Spectrum: 1024
>>>>>Begin Spectral Data<<<<<
801.071	22462
801.214	22390
801.356	22131
801.499	22029
801.641	21907
801.783	21804
801.926	21819
802.068	21804
802.211	21774
802.353	21641
802.496	21321
802.638	21268
802.78	21424
802.923	21283
803.065	21298
803.208	21207
803.35	21298
803.492	21340
803.635	21405
803.777	21123
803.919	21294
804.061	21526
804.204	21138
804.346	21195
804.488	21135
804.63	21096
804.773	21017
804.915	21127
805.057	21211
805.199	21199
805.341	21195
805.483	21275
805.626	21081
805.768	21089
805.91	21173
806.052	21013
806.194	21062
806.336	21291
806.478	21135
806.62	21013
806.762	21214
806.904	21351
807.046	21473
807.188	21412
807.33	21473
807.472	21424
807.614	21420
807.756	21561
807.898	21272
808.04	21386
808.182	21272
808.324	21378
808.465	21249
808.607	21412
808.749	21606
808.891	21819
809.033	21907
809.174	21743
809.316	21618
809.458	21542
809.6	21561
809.741	21633
809.883	21595
810.025	21686
810.166	21797
810.308	21568
810.45	21614
810.591	21564
810.733	21367
810.875	21378
811.016	21348
811.158	21218
811.299	21279
811.441	21401
811.582	21435
811.724	21188
811.865	21264
812.007	21351
812.148	21272
812.29	21268
812.431	21523
812.573	21641
812.714	21709
812.855	21667
812.997	21831
813.138	21975
813.279	21865
813.421	21789
813.562	21804
813.703	21526
813.845	21408
813.986	21066
814.127	20891
814.268	20891
814.41	20842
814.551	20914
814.692	20910
814.833	20838
814.974	20682
815.115	20811
815.256	20701
815.397	20830
815.539	20724
815.68	20575
815.821	20507
815.962	20598
816.103	20503
816.244	20427
816.385	20374
816.526	20263
816.666	20164
816.807	19913
816.948	20035
817.089	20168
817.23	19989
817.371	19959
817.512	19963
817.653	20020
817.793	20024
817.934	20031
818.075	20054
818.216	19978
818.356	20001
818.497	19864
818.638	19712
818.778	19708
818.919	19746
819.06	19837
819.2	19814
819.341	19811
819.481	19791
819.622	20073
819.762	20336
819.903	20225
820.043	20088
820.184	19993
820.324	20069
820.465	19986
820.605	20020
820.746	20035
820.886	19742
821.026	19959
821.167	19963
821.307	19932
821.447	19928
821.588	19719
821.728	19696
821.868	19506
822.008	19373
822.149	19335
822.289	19312
822.429	19137
822.569	19152
822.709	19069
822.849	18901
822.99	18913
823.13	18837
823.27	18814
823.41	18692
823.55	18665
823.69	18715
823.83	18696
823.97	18642
824.11	18460
824.25	18429
824.389	18490
824.529	18536
824.669	18483
824.809	18525
824.949	18597
825.089	18661
825.228	18601
825.368	18277
825.508	18357
825.648	18296
825.787	18254
825.927	18315
826.067	18273
826.206	18190
826.346	18194
826.485	18239
826.625	18159
826.765	18395
826.904	18334
827.044	18079
827.183	18015
827.323	17961
827.462	18030
827.601	17813
827.741	17942
827.88	17931
828.02	17710
828.159	17969
828.298	17920
828.437	18045
828.577	17942
828.716	18060
828.855	17851
828.994	17771
829.134	17752
829.273	17764
829.412	17630
829.551	17649
829.69	17676
829.829	17737
829.968	17786
830.107	17840
830.246	17805
830.385	17566
830.524	17676
830.663	17509
830.802	17402
830.941	17334
831.08	17307
831.219	17478
831.357	17459
831.496	17501
831.635	17429
831.774	17246
831.913	17269
832.051	17083
832.19	17235
832.329	17227
832.467	17003
832.606	17079
832.744	17121
832.883	17060
833.022	17014
833.16	16972
833.299	17067
833.437	17018
833.576	17121
833.714	17140
833.852	17029
833.991	17079
834.129	17124
834.267	17045
834.406	17098
834.544	17181
834.682	17162
834.821	17014
834.959	17235
835.097	16984
835.235	17102
835.373	17117
835.511	17045
835.65	17086
835.788	16949
835.926	16843
836.064	16919
836.202	16824
836.34	17052
836.478	16980
836.615	16919
836.753	17090
836.891	16999
837.029	16934
837.167	17048
837.305	16892
837.443	16961
837.58	16778
837.718	16831
837.856	16889
837.993	16778
838.131	16866
838.269	16843
838.406	16736
838.544	16729
838.681	16573
838.819	16599
838.956	16409
839.094	16440
839.231	16462
839.369	16569
839.506	16702
839.643	16706
839.781	16527
839.918	16318
840.055	16394
840.193	16329
840.33	16474
840.467	16398
840.604	16424
840.742	16710
840.879	16314
841.016	16306
841.153	16295
841.29	16573
841.427	16363
841.564	16329
841.701	16432
841.838	16382
841.975	16204
842.112	16333
842.249	16211
842.385	16158
842.522	16295
842.659	16078
842.796	16097
842.933	16207
843.069	16120
843.206	16219
843.343	16249
843.479	16181
843.616	16299
843.752	15983
843.889	16063
844.025	16086
844.162	15926
844.298	16101
844.435	15968
844.571	15956
844.708	16002
844.844	16074
844.98	16154
845.117	16109
845.253	15998
845.389	15880
845.525	15964
845.661	15861
845.798	15903
845.934	16040
846.07	15930
846.206	15895
846.342	16059
846.478	15876
846.614	15618
846.75	15496
846.886	15568
847.022	15599
847.158	15526
847.294	15534
847.429	15584
847.565	15504
847.701	15736
847.837	15298
847.972	15306
848.108	15397
848.244	15336
848.379	15230
848.515	15100
848.65	15146
848.786	15135
848.921	15142
849.057	15336
849.192	15340
849.328	15199
849.463	15169
849.598	15005
849.734	15005
849.869	15039
850.004	14849
850.14	15024
850.275	14982
850.41	14876
850.545	14834
850.68	14880
850.815	14956
850.95	14842
851.085	15005
851.22	14963
851.355	14914
851.49	14891
851.625	14891
851.76	14910
851.895	14781
852.03	14842
852.165	14861
852.299	14914
852.434	15009
852.569	14960
852.703	14887
852.838	14906
852.973	15024
853.107	15051
853.242	14948
853.376	14842
853.511	14777
853.645	14731
853.78	14937
853.914	14834
854.048	14750
854.183	14731
854.317	14739
854.451	14910
854.585	14686
854.72	14800
854.854	14883
854.988	14693
855.122	14754
855.256	14594
855.39	14670
855.524	14819
855.658	14906
855.792	14853
855.926	14823
856.06	14910
856.194	14762
856.327	14758
856.461	14697
856.595	14663
856.729	14678
856.862	14845
856.996	14845
857.13	14834
857.263	14902
857.397	14933
857.53	14914
857.664	14826
857.797	14887
857.931	14899
858.064	14735
858.197	14876
858.331	14720
858.464	14743
858.597	14720
858.731	14823
858.864	14739
858.997	14625
859.13	14727
859.263	14823
859.396	14857
859.529	14746
859.662	14712
859.795	14689
859.928	14792
860.061	14899
860.194	14960
860.327	14781
860.46	14765
860.592	14781
860.725	14785
860.858	14895
860.99	14716
861.123	14705
861.256	14632
861.388	14777
861.521	15454
861.653	14590
861.786	14507
861.918	14575
862.05	14648
862.183	14708
862.315	14800
862.447	14838
862.58	14686
862.712	14617
862.844	14461
862.976	14583
863.108	14556
863.24	15009
863.372	14533
863.504	14465
863.636	14514
863.768	14602
863.9	14560
864.032	14533
864.164	14648
864.296	14484
864.428	14644
864.559	14518
864.691	14571
864.823	14476
864.954	14636
865.086	14568
865.217	14617
865.349	14415
865.48	14552
865.612	14575
865.743	14689
865.875	14568
866.006	14533
866.137	14507
866.269	14484
866.4	14492
866.531	14560
866.662	14484
866.793	14415
866.924	14537
867.055	14514
867.186	14480
867.317	14427
867.448	14400
867.579	14446
867.71	14339
867.841	14438
867.972	14590
868.103	14549
868.233	14655
868.364	14461
868.495	14629
868.625	14746
868.756	14902
868.886	14686
869.017	14804
869.147	14842
869.278	14872
869.408	14788
869.539	14849
869.669	14834
869.799	14743
869.929	14883
870.06	14960
870.19	15009
870.32	15089
870.45	15013
870.58	15154
870.71	15241
870.84	15195
870.97	15108
871.1	15055
871.23	15310
871.36	15439
871.489	15127
871.619	15241
871.749	15226
871.879	15401
872.008	15359
872.138	15340
872.267	15268
872.397	15192
872.526	15211
872.656	15157
872.785	15203
872.915	15408
873.044	15481
873.173	15393
873.303	15469
873.432	15378
873.561	15496
873.69	15447
873.819	15420
873.948	15534
874.077	15382
874.206	15367
874.335	15329
874.464	15462
874.593	15641
874.722	15584
874.851	15705
874.979	15755
875.108	15774
875.237	15660
875.365	15599
875.494	15679
875.623	15698
875.751	15660
875.88	15816
876.008	15915
876.136	15884
876.265	16112
876.393	16291
876.521	16188
876.65	16265
876.778	16135
876.906	16063
877.034	16025
877.162	16105
877.29	16090
877.418	16246
877.546	16158
877.674	16090
877.802	16048
877.93	16147
878.058	16116
878.185	15934
878.313	16090
878.441	16059
878.568	15998
878.696	16192
878.824	16192
878.951	16162
879.079	16284
879.206	16542
879.333	16417
879.461	16215
879.588	16306
879.715	16356
879.842	16554
879.97	16253
880.097	16097
880.224	15983
880.351	16021
880.478	16040
880.605	16006
880.732	16059
880.859	16223
880.986	15960
881.112	16063
881.239	15873
881.366	15808
881.493	15679
881.619	15599
881.746	15724
881.872	15606
881.999	15606
882.125	15576
882.252	15751
882.378	15713
882.505	15854
882.631	15564
882.757	15443
882.883	15526
883.01	15466
883.136	15450
883.262	15275
883.388	15241
883.514	15488
883.64	15599
883.766	15363
883.892	15211
884.018	15294
884.143	15500
884.269	15637
884.395	15180
884.52	15195
884.646	15173
884.772	15180
884.897	15077
885.023	15173
885.148	15306
885.274	15348
885.399	15283
885.524	15127
885.65	15154
885.775	15203
885.9	15142
886.025	15237
886.15	15256
886.275	15062
886.4	15024
886.525	15135
886.65	15036
886.775	15043
886.9	15283
887.025	15359
887.149	15154
887.274	15013
887.399	14948
887.523	14948
887.648	14952
887.773	14853
887.897	14956
888.021	15055
888.146	14921
888.27	15039
888.395	15085
888.519	14982
888.643	14986
888.767	14994
888.891	14887
889.015	14857
889.139	14830
889.263	14739
889.387	14979
889.511	14986
889.635	14963
889.759	14720
889.883	14823
890.006	14807
890.13	14914
890.254	14811
890.377	14716
890.501	14610
890.624	14610
890.748	14727
890.871	14507
890.995	14530
891.118	14446
891.241	14560
891.364	14511
891.488	14583
891.611	14533
891.734	14537
891.857	14610
891.98	14549
892.103	14674
892.226	14518
892.349	14522
892.471	14393
892.594	14362
892.717	14465
892.839	14434
892.962	14533
893.085	14583
893.207	14533
893.33	14301
893.452	14427
893.575	14560
893.697	14533
893.819	14613
893.941	14678
894.064	14610
894.186	14431
894.308	14442
894.43	14629
894.552	14735
894.674	14686
894.796	14530
894.918	14648
895.04	14514
895.161	14636
895.283	14670
895.405	14533
895.526	14564
895.648	14590
895.769	14613
895.891	14689
896.012	14682
896.134	14689
896.255	14560
896.376	14629
896.498	14731
896.619	14708
896.74	14610
896.861	14663
896.982	15009
897.103	15131
897.224	14967
897.345	14891
897.466	14838
897.587	14895
897.708	15112
897.828	14986
897.949	14868
898.07	14785
898.19	14872
898.311	14967
898.431	14948
898.552	14960
898.672	15055
898.792	15077
898.913	15028
899.033	14925
899.153	14861
899.273	14834
899.393	14743
899.513	14914
899.633	14823
899.753	14876
899.873	14785
899.993	14864
900.113	14887
900.232	14933
900.352	14834
900.472	14792
900.591	14674
900.711	14701
900.83	14697
900.95	14838
901.069	14678
901.189	14518
901.308	14415
901.427	14343
901.546	14362
901.665	14328
901.784	14427
901.904	14370
902.023	14237
902.141	13974
902.26	13860
902.379	13986
902.498	13864
902.617	13871
902.735	14043
902.854	13997
902.973	13868
903.091	13609
903.21	13521
903.328	13544
903.446	13552
903.565	13472
903.683	13487
903.801	13483
903.919	13468
904.038	13559
904.156	13346
904.274	13422
904.392	13297
904.51	13312
904.627	13251
904.745	13312
904.863	13438
904.981	13145
905.098	12973
905.216	12966
905.334	13034
905.451	13088
905.569	12939
905.686	13126
905.803	13042
905.921	12905
906.038	13000
906.155	12848
906.272	12715
906.389	12692
906.506	12601
906.623	12616
906.74	12593
906.857	12464
906.974	12483
907.091	12597
907.208	12760
907.324	12585
907.441	12585
907.557	12399
907.674	12391
907.79	12292
907.907	12308
908.023	12388
908.139	12277
908.256	12281
908.372	12296
908.488	12247
908.604	12216
908.72	12121
908.836	12045
908.952	12091
909.068	12076
909.184	12216
909.3	12114
909.415	12144
909.531	12144
909.647	11942
909.762	11889
909.878	11863
909.993	11821
910.108	11840
910.224	11840
910.339	11764
910.454	11805
910.57	11707
910.685	11676
910.8	11977
910.915	11817
911.03	11657
911.145	11532
911.259	11577
911.374	11535
911.489	11516
911.604	11486
911.718	11349
911.833	11368
911.947	11235
912.062	11159
912.176	11280
912.291	11299
912.405	11322
912.519	11509
912.633	11535
912.748	11421
912.862	11292
912.976	11227
913.09	11025
913.204	11105
913.318	11216
913.431	11265
913.545	11216
913.659	11258
913.772	11280
913.886	11079
914	11052
914.113	11178
914.226	11216
914.34	11201
914.453	10957
914.566	11102
914.68	10984
914.793	11056
914.906	10790
915.019	10816
915.132	10698
915.245	10801
915.358	10691
915.47	10729
915.583	10892
915.696	10896
915.809	10904
915.921	11006
916.034	10706
916.146	10691
916.259	10736
916.371	10885
916.483	10816
916.595	10691
916.708	10664
916.82	10660
916.932	10691
917.044	10790
917.156	10656
917.268	10580
917.38	10618
917.491	10569
917.603	10645
917.715	10717
917.826	10721
917.938	10561
918.049	10451
918.161	10607
918.272	10717
918.384	10752
918.495	10664
918.606	10500
918.717	10348
918.828	10550
918.939	10474
919.05	10405
919.161	10489
919.272	10265
919.383	10413
919.494	10523
919.604	10710
919.715	10538
919.826	10421
919.936	10466
920.047	10580
920.157	10561
920.267	10656
920.378	10691
920.488	10497
920.598	10675
920.708	10850
920.818	10706
920.928	10668
921.038	10854
921.148	10717
921.258	10523
921.368	10447
921.477	10333
921.587	10291
921.697	10169
921.806	10348
921.916	10242
922.025	10093
922.134	10021
922.244	9979
922.353	10086
922.462	9926
922.571	9907
922.68	9755
922.789	9709
922.898	9686
923.007	9740
923.116	9694
923.224	9656
923.333	9682
923.442	9603
923.55	9576
923.659	9637
923.767	9732
923.876	9561
923.984	9644
924.092	9511
924.201	9580
924.309	9572
924.417	9587
924.525	9523
924.633	9492
924.741	10291
924.849	9317
924.956	9534
925.064	9359
925.172	9279
925.279	9325
925.387	9473
925.494	9412
925.602	9488
925.709	9386
925.816	9226
925.924	9351
926.031	9450
926.138	9367
926.245	9359
926.352	9291
926.459	9370
926.566	9542
926.673	9329
926.779	9241
926.886	9253
926.993	9089
927.099	9047
927.206	9020
927.312	9009
927.419	9135
927.525	9062
927.631	9184
927.737	8986
927.843	8918
927.95	8876
928.056	8914
928.162	8952
928.267	8963
928.373	9587
928.479	9089
928.585	8804
928.69	8967
928.796	9001
928.901	8925
929.007	8731
929.112	8910
929.218	8883
929.323	8766
929.428	8807
929.533	8914
929.638	8762
929.743	8750
929.848	8857
929.953	8766
930.058	8743
930.163	8549
930.267	8594
930.372	8762
930.477	8602
930.581	8743
930.685	8674
930.79	8541
930.894	8571
930.998	8590
931.103	8697
931.207	8244
931.311	8294
931.415	8218
931.519	8050
931.623	8008
