Data from test_V78500241_2858.txt Node
Date: Fri Mar 25 14:53:36 CST 2022
User: usil
Spectrometer: V785-0024
Trigger mode: 0
Integration Time (sec): 4.000000E-1
Scans to average: 1
Nonlinearity correction enabled: false
Boxcar width: 0
Storing dark spectrum: false
XAxis mode: Wavelengths
Number of Pixels in Spectrum: 1024
>>>>>Begin Spectral Data<<<<<
801.071	22044
801.214	22090
801.356	21766
801.499	21610
801.641	21530
801.783	21568
801.926	21549
802.068	21405
802.211	21378
802.353	21184
802.496	21127
802.638	20872
802.78	21051
802.923	20800
803.065	20750
803.208	20788
803.35	20754
803.492	20933
803.635	20899
803.777	20788
803.919	20800
804.061	21081
804.204	20933
804.346	20678
804.488	20697
804.63	20750
804.773	20663
804.915	20773
805.057	20765
805.199	20682
805.341	20754
805.483	20762
805.626	20792
805.768	20682
805.91	20701
806.052	20724
806.194	20575
806.336	20788
806.478	20800
806.62	20682
806.762	20834
806.904	20880
807.046	21188
807.188	20948
807.33	20956
807.472	21062
807.614	20902
807.756	20834
807.898	20750
808.04	20674
808.182	20697
808.324	20609
808.465	20876
808.607	20929
808.749	21112
808.891	21195
809.033	21211
809.174	21093
809.316	21055
809.458	21013
809.6	21009
809.741	21093
809.883	21142
810.025	21195
810.166	21169
810.308	21169
810.45	21096
810.591	21062
810.733	20906
810.875	20937
811.016	20739
811.158	20575
811.299	20842
811.441	21020
811.582	20925
811.724	20762
811.865	20724
812.007	20701
812.148	20765
812.29	20823
812.431	21089
812.573	21020
812.714	21207
812.855	21310
812.997	21561
813.138	21477
813.279	21382
813.421	21302
813.562	21218
813.703	20994
813.845	20986
813.986	20697
814.127	20495
814.268	20446
814.41	20461
814.551	20347
814.692	20469
814.833	20225
814.974	20362
815.115	20305
815.256	20130
815.397	20229
815.539	20240
815.68	20122
815.821	20065
815.962	20103
816.103	20062
816.244	19997
816.385	19807
816.526	19814
816.666	19723
816.807	19533
816.948	19586
817.089	19613
817.23	19487
817.371	19411
817.512	19533
817.653	19472
817.793	19510
817.934	19518
818.075	19346
818.216	19464
818.356	19411
818.497	19301
818.638	19206
818.778	19194
818.919	19225
819.06	19251
819.2	19350
819.341	19449
819.481	19411
819.622	19540
819.762	19506
819.903	19597
820.043	19601
820.184	19445
820.324	19476
820.465	19533
820.605	19529
820.746	19487
820.886	19426
821.026	19430
821.167	19346
821.307	19362
821.447	19388
821.588	19297
821.728	19126
821.868	19095
822.008	18894
822.149	18848
822.289	18848
822.429	18650
822.569	18490
822.709	18635
822.849	18521
822.99	18418
823.13	18422
823.27	18353
823.41	18178
823.55	18174
823.69	18220
823.83	18133
823.97	18114
824.11	17931
824.25	17885
824.389	17836
824.529	18102
824.669	17889
824.809	18125
824.949	18053
825.089	17961
825.228	17980
825.368	17775
825.508	17722
825.648	17714
825.787	17798
825.927	17870
826.067	17699
826.206	17676
826.346	17745
826.485	17672
826.625	17722
826.765	17745
826.904	17691
827.044	17463
827.183	17490
827.323	17402
827.462	17512
827.601	17482
827.741	17440
827.88	17307
828.02	17296
828.159	17345
828.298	17334
828.437	17410
828.577	17524
828.716	17630
828.855	17391
828.994	17185
829.134	17159
829.273	17242
829.412	17162
829.551	17121
829.69	17102
829.829	17181
829.968	17322
830.107	17337
830.246	17239
830.385	17227
830.524	17006
830.663	16991
830.802	16869
830.941	16850
831.08	16847
831.219	16942
831.357	16869
831.496	17048
831.635	16793
831.774	16656
831.913	16645
832.051	16645
832.19	16634
832.329	16527
832.467	16519
832.606	16428
832.744	16379
832.883	16500
833.022	16360
833.16	16561
833.299	16584
833.437	16478
833.576	16664
833.714	16565
833.852	16634
833.991	16603
834.129	16622
834.267	16607
834.406	16573
834.544	16618
834.682	16561
834.821	16580
834.959	16634
835.097	16512
835.235	16588
835.373	16531
835.511	16546
835.65	16405
835.788	16440
835.926	16398
836.064	16200
836.202	16325
836.34	16398
836.478	16698
836.615	16402
836.753	16440
836.891	16569
837.029	16424
837.167	16386
837.305	16375
837.443	16367
837.58	16295
837.718	16413
837.856	16226
837.993	16257
838.131	16314
838.269	16386
838.406	16242
838.544	16253
838.681	15968
838.819	16021
838.956	15873
839.094	15922
839.231	15827
839.369	15960
839.506	16242
839.643	16185
839.781	15857
839.918	15766
840.055	15850
840.193	15835
840.33	15846
840.467	15911
840.604	15869
840.742	16048
840.879	15679
841.016	15732
841.153	15812
841.29	16032
841.427	15934
841.564	15934
841.701	15842
841.838	15819
841.975	15705
842.112	15739
842.249	15644
842.385	15694
842.522	15751
842.659	15709
842.796	15599
842.933	15652
843.069	15595
843.206	15610
843.343	15759
843.479	15610
843.616	15679
843.752	15397
843.889	15397
844.025	15652
844.162	15332
844.298	15568
844.435	15469
844.571	15382
844.708	15595
844.844	15698
844.98	15580
845.117	15530
845.253	15336
845.389	15291
845.525	15359
845.661	15275
845.798	15256
845.934	15291
846.07	15161
846.206	15325
846.342	15439
846.478	15272
846.614	15058
846.75	15058
846.886	14929
847.022	15154
847.158	15020
847.294	15039
847.429	15108
847.565	14975
847.701	15298
847.837	14811
847.972	14762
848.108	14834
848.244	14785
848.379	14549
848.515	14560
848.65	14465
848.786	14522
848.921	14533
849.057	14705
849.192	14712
849.328	14617
849.463	14602
849.598	14545
849.734	14450
849.869	14503
850.004	14514
850.14	14473
850.275	14358
850.41	14309
850.545	14313
850.68	14298
850.815	14389
850.95	14324
851.085	14541
851.22	14412
851.355	14446
851.49	14240
851.625	14286
851.76	14355
851.895	14320
852.03	14153
852.165	14328
852.299	14328
852.434	14446
852.569	14408
852.703	14370
852.838	14438
852.973	14522
853.107	14419
853.242	14305
853.376	14153
853.511	14176
853.645	14237
853.78	14351
853.914	14271
854.048	14206
854.183	14119
854.317	14237
854.451	14499
854.585	14229
854.72	14240
854.854	14286
854.988	14123
855.122	14107
855.256	14069
855.39	14229
855.524	14377
855.658	14267
855.792	14317
855.926	14339
856.06	14271
856.194	14259
856.327	14271
856.461	14187
856.595	14267
856.729	14180
856.862	14339
856.996	14351
857.13	14370
857.263	14317
857.397	14355
857.53	14168
857.664	14195
857.797	14271
857.931	14320
858.064	14343
858.197	14317
858.331	14157
858.464	14199
858.597	14138
858.731	14347
858.864	14206
858.997	14214
859.13	14336
859.263	14259
859.396	14267
859.529	14199
859.662	14328
859.795	14199
859.928	14214
860.061	14415
860.194	14427
860.327	14271
860.46	14161
860.592	14259
860.725	14305
860.858	14347
860.99	14263
861.123	14172
861.256	14191
861.388	14252
861.521	14804
861.653	14123
861.786	14054
861.918	14145
862.05	14168
862.183	14111
862.315	14195
862.447	14172
862.58	14149
862.712	14073
862.844	13989
862.976	14069
863.108	14092
863.24	14549
863.372	13959
863.504	13974
863.636	13978
863.768	14027
863.9	13997
864.032	13909
864.164	14008
864.296	14081
864.428	14107
864.559	14157
864.691	14054
864.823	14054
864.954	14008
865.086	14100
865.217	14031
865.349	13928
865.48	14008
865.612	13978
865.743	14157
865.875	14084
866.006	13913
866.137	13951
866.269	14005
866.4	13989
866.531	13860
866.662	13921
866.793	13906
866.924	13951
867.055	14012
867.186	13940
867.317	13898
867.448	13902
867.579	13959
867.71	13852
867.841	13879
867.972	14024
868.103	14054
868.233	13986
868.364	13959
868.495	13970
868.625	14244
868.756	14320
868.886	14138
869.017	14286
869.147	14347
869.278	14431
869.408	14248
869.539	14237
869.669	14393
869.799	14328
869.929	14332
870.06	14256
870.19	14465
870.32	14621
870.45	14632
870.58	14712
870.71	14735
870.84	14762
870.97	14686
871.1	14587
871.23	14853
871.36	14769
871.489	14693
871.619	14720
871.749	14830
871.879	14826
872.008	14975
872.138	14929
872.267	14853
872.397	14762
872.526	14796
872.656	14613
872.785	14735
872.915	14868
873.044	14925
873.173	14887
873.303	14948
873.432	14883
873.561	14979
873.69	14910
873.819	14899
873.948	15005
874.077	14838
874.206	14842
874.335	14815
874.464	15062
874.593	15241
874.722	15097
874.851	15176
874.979	15207
875.108	15233
875.237	15142
875.365	15173
875.494	15173
875.623	15230
875.751	15157
875.88	15279
876.008	15443
876.136	15485
876.265	15675
876.393	15762
876.521	15644
876.65	15728
876.778	15648
876.906	15599
877.034	15637
877.162	15637
877.29	15599
877.418	15564
877.546	15625
877.674	15591
877.802	15587
877.93	15629
878.058	15618
878.185	15557
878.313	15587
878.441	15641
878.568	15450
878.696	15564
878.824	15671
878.951	15705
879.079	15941
879.206	15972
879.333	15850
879.461	15656
879.588	15671
879.715	15968
879.842	15873
879.97	15701
880.097	15462
880.224	15408
880.351	15481
880.478	15496
880.605	15405
880.732	15454
880.859	15663
880.986	15450
881.112	15511
881.239	15408
881.366	15272
881.493	15123
881.619	15116
881.746	15222
881.872	15058
881.999	15131
882.125	15028
882.252	15233
882.378	15184
882.505	15302
882.631	15066
882.757	14868
882.883	14963
883.01	14960
883.136	14899
883.262	14899
883.388	14781
883.514	15001
883.64	15020
883.766	14887
883.892	14735
884.018	14804
884.143	14933
884.269	15062
884.395	14765
884.52	14655
884.646	14556
884.772	14610
884.897	14469
885.023	14594
885.148	14750
885.274	14849
885.399	14644
885.524	14598
885.65	14727
885.775	14651
885.9	14640
886.025	14754
886.15	14746
886.275	14674
886.4	14533
886.525	14590
886.65	14640
886.775	14549
886.9	14765
887.025	14902
887.149	14663
887.274	14526
887.399	14396
887.523	14408
887.648	14400
887.773	14301
887.897	14541
888.021	14594
888.146	14442
888.27	14461
888.395	14613
888.519	14499
888.643	14590
888.767	14514
888.891	14450
889.015	14320
889.139	14347
889.263	14412
889.387	14419
889.511	14541
889.635	14473
889.759	14267
889.883	14290
890.006	14393
890.13	14381
890.254	14263
890.377	14374
890.501	14164
890.624	14092
890.748	14161
890.871	14081
890.995	13936
891.118	14016
891.241	14069
891.364	14024
891.488	14187
891.611	14073
891.734	14001
891.857	14043
891.98	14062
892.103	14103
892.226	14180
892.349	14027
892.471	13993
892.594	13997
892.717	14065
892.839	13978
892.962	13963
893.085	14191
893.207	13955
893.33	13822
893.452	13921
893.575	14024
893.697	14081
893.819	14210
893.941	14229
894.064	14218
894.186	13997
894.308	14012
894.43	14145
894.552	14278
894.674	14191
894.796	14016
894.918	14088
895.04	14092
895.161	14145
895.283	14103
895.405	14107
895.526	14142
895.648	14123
895.769	14202
895.891	14115
896.012	14229
896.134	14176
896.255	14298
896.376	14153
896.498	14263
896.619	14278
896.74	14191
896.861	14278
896.982	14533
897.103	14708
897.224	14552
897.345	14507
897.466	14393
897.587	14450
897.708	14560
897.828	14495
897.949	14427
898.07	14454
898.19	14412
898.311	14667
898.431	14560
898.552	14507
898.672	14651
898.792	14724
898.913	14590
899.033	14560
899.153	14469
899.273	14343
899.393	14457
899.513	14522
899.633	14389
899.753	14412
899.873	14434
899.993	14446
900.113	14370
900.232	14415
900.352	14347
900.472	14294
900.591	14328
900.711	14339
900.83	14229
900.95	14423
901.069	14457
901.189	14134
901.308	14058
901.427	13890
901.546	14016
901.665	13974
901.784	13959
901.904	13875
902.023	13719
902.141	13605
902.26	13556
902.379	13601
902.498	13422
902.617	13449
902.735	13605
902.854	13460
902.973	13495
903.091	13255
903.21	13259
903.328	13316
903.446	13194
903.565	13046
903.683	13038
903.801	13050
903.919	13103
904.038	13141
904.156	12871
904.274	13034
904.392	12894
904.51	12947
904.627	12878
904.745	12958
904.863	12859
904.981	12776
905.098	12604
905.216	12623
905.334	12669
905.451	12700
905.569	12540
905.686	12559
905.803	12574
905.921	12471
906.038	12490
906.155	12502
906.272	12346
906.389	12414
906.506	12144
906.623	12235
906.74	12213
906.857	12064
906.974	12057
907.091	12277
907.208	12369
907.324	12251
907.441	12129
907.557	12011
907.674	11923
907.79	11893
907.907	11893
908.023	11863
908.139	11893
908.256	11965
908.372	11984
908.488	11882
908.604	11688
908.72	11703
908.836	11688
908.952	11653
909.068	11729
909.184	11771
909.3	11657
909.415	11771
909.531	11638
909.647	11482
909.762	11474
909.878	11444
909.993	11440
910.108	11459
910.224	11528
910.339	11421
910.454	11277
910.57	11280
910.685	11254
910.8	11524
910.915	11402
911.03	11383
911.145	11197
911.259	11151
911.374	11147
911.489	11083
911.604	10972
911.718	10892
911.833	10961
911.947	10812
912.062	10710
912.176	10843
912.291	10835
912.405	10797
912.519	11098
912.633	11105
912.748	11067
912.862	11006
912.976	10847
913.09	10714
913.204	10790
913.318	10824
913.431	10904
913.545	10934
913.659	10972
913.772	10843
913.886	10752
914	10653
914.113	10782
914.226	10763
914.34	10843
914.453	10558
914.566	10706
914.68	10672
914.793	10531
914.906	10470
915.019	10405
915.132	10363
915.245	10398
915.358	10440
915.47	10356
915.583	10497
915.696	10489
915.809	10550
915.921	10584
916.034	10421
916.146	10443
916.259	10253
916.371	10459
916.483	10466
916.595	10382
916.708	10405
916.82	10382
916.932	10310
917.044	10322
917.156	10394
917.268	10249
917.38	10249
917.491	10284
917.603	10242
917.715	10405
917.826	10440
917.938	10234
918.049	10169
918.161	10287
918.272	10432
918.384	10451
918.495	10341
918.606	10154
918.717	10162
918.828	10185
918.939	10230
919.05	10086
919.161	10166
919.272	9975
919.383	10002
919.494	10265
919.604	10398
919.715	10169
919.826	10101
919.936	10128
920.047	10188
920.157	10215
920.267	10352
920.378	10139
920.488	10128
920.598	10375
920.708	10535
920.818	10363
920.928	10382
921.038	10580
921.148	10466
921.258	10177
921.368	10135
921.477	10048
921.587	9994
921.697	9873
921.806	10147
921.916	9953
922.025	9781
922.134	9698
922.244	9656
922.353	9736
922.462	9629
922.571	9561
922.68	9397
922.789	9416
922.898	9428
923.007	9370
923.116	9477
923.224	9412
923.333	9424
923.442	9298
923.55	9260
923.659	9351
923.767	9416
923.876	9241
923.984	9313
924.092	9211
924.201	9245
924.309	9287
924.417	9317
924.525	9294
924.633	9264
924.741	10200
924.849	9024
924.956	9279
925.064	9032
925.172	9009
925.279	9005
925.387	9119
925.494	9028
925.602	9241
925.709	9142
925.816	8967
925.924	9081
926.031	9211
926.138	9058
926.245	9081
926.352	8979
926.459	9214
926.566	9218
926.673	9036
926.779	8883
926.886	8872
926.993	8876
927.099	8842
927.206	8754
927.312	8811
927.419	8811
927.525	8781
927.631	8883
927.737	8735
927.843	8727
927.95	8594
928.056	8735
928.162	8735
928.267	8766
928.373	9195
928.479	8762
928.585	8571
928.69	8697
928.796	8777
928.901	8621
929.007	8434
929.112	8648
929.218	8629
929.323	8533
929.428	8564
929.533	8610
929.638	8549
929.743	8469
929.848	8530
929.953	8518
930.058	8442
930.163	8252
930.267	8279
930.372	8419
930.477	8263
930.581	8533
930.685	8366
930.79	8225
930.894	8256
930.998	8233
931.103	8385
931.207	7967
931.311	7989
931.415	7856
931.519	7734
931.623	7693
