Data from test_V78500241_906.txt Node
Date: Fri Mar 25 14:40:01 CST 2022
User: usil
Spectrometer: V785-0024
Trigger mode: 0
Integration Time (sec): 4.000000E-1
Scans to average: 1
Nonlinearity correction enabled: false
Boxcar width: 0
Storing dark spectrum: false
XAxis mode: Wavelengths
Number of Pixels in Spectrum: 1024
>>>>>Begin Spectral Data<<<<<
801.071	25046
801.214	24894
801.356	24688
801.499	24395
801.641	24456
801.783	24315
801.926	24460
802.068	24232
802.211	24079
802.353	24174
802.496	23897
802.638	23775
802.78	23809
802.923	23805
803.065	23676
803.208	23608
803.35	23642
803.492	23726
803.635	23961
803.777	23619
803.919	23661
804.061	24034
804.204	23771
804.346	23783
804.488	23501
804.63	23672
804.773	23528
804.915	23646
805.057	23767
805.199	23657
805.341	23824
805.483	23878
805.626	23783
805.768	23710
805.91	23775
806.052	23851
806.194	23790
806.336	24171
806.478	24030
806.62	23992
806.762	24076
806.904	24350
807.046	24612
807.188	24475
807.33	24612
807.472	24764
807.614	24806
807.756	25156
807.898	25221
808.04	25308
808.182	25833
808.324	26408
808.465	27036
808.607	27747
808.749	28284
808.891	28668
809.033	28679
809.174	28398
809.316	27804
809.458	26979
809.6	26347
809.741	25955
809.883	25609
810.025	25377
810.166	25297
810.308	25038
810.45	24886
810.591	24692
810.733	24494
810.875	24262
811.016	24251
811.158	24296
811.299	24266
811.441	24330
811.582	24365
811.724	24064
811.865	23973
812.007	24197
812.148	23882
812.29	24030
812.431	24277
812.573	24251
812.714	24327
812.855	24418
812.997	24661
813.138	24574
813.279	24547
813.421	24452
813.562	24399
813.703	24201
813.845	23988
813.986	23824
814.127	23634
814.268	23448
814.41	23463
814.551	23376
814.692	23512
814.833	23425
814.974	23368
815.115	23368
815.256	23269
815.397	23189
815.539	23288
815.68	23128
815.821	23105
815.962	23334
816.103	23136
816.244	22923
816.385	22839
816.526	22816
816.666	22668
816.807	22645
816.948	22687
817.089	22603
817.23	22569
817.371	22561
817.512	22436
817.653	22455
817.793	22508
817.934	22474
818.075	22561
818.216	22417
818.356	22462
818.497	22352
818.638	22063
818.778	22169
818.919	22207
819.06	22246
819.2	22318
819.341	22223
819.481	22363
819.622	22481
819.762	22679
819.903	22584
820.043	22531
820.184	22485
820.324	22474
820.465	22478
820.605	22512
820.746	22451
820.886	22261
821.026	22386
821.167	22417
821.307	22459
821.447	22310
821.588	22173
821.728	22154
821.868	21922
822.008	21842
822.149	21766
822.289	21739
822.429	21515
822.569	21317
822.709	21466
822.849	21237
822.99	21226
823.13	21161
823.27	21340
823.41	20990
823.55	20990
823.69	21127
823.83	21070
823.97	21055
824.11	20868
824.25	20842
824.389	20807
824.529	20925
824.669	20826
824.809	20933
824.949	20891
825.089	20864
825.228	20815
825.368	20640
825.508	20670
825.648	20636
825.787	20648
825.927	20629
826.067	20613
826.206	20537
826.346	20594
826.485	20731
826.625	20492
826.765	20648
826.904	20674
827.044	20355
827.183	20362
827.323	20393
827.462	20347
827.601	20351
827.741	20324
827.88	20278
828.02	20195
828.159	20237
828.298	20180
828.437	20218
828.577	20252
828.716	20366
828.855	20096
828.994	19944
829.134	20035
829.273	19974
829.412	19871
829.551	19898
829.69	19986
829.829	19970
829.968	20081
830.107	19909
830.246	19963
830.385	19856
830.524	19890
830.663	19655
830.802	19635
830.941	19499
831.08	19468
831.219	19605
831.357	19609
831.496	19742
831.635	19559
831.774	19430
831.913	19468
832.051	19327
832.19	19308
832.329	19388
832.467	19247
832.606	19107
832.744	19274
832.883	19213
833.022	19240
833.16	19304
833.299	19236
833.437	19331
833.576	19445
833.714	19480
833.852	19441
833.991	19586
834.129	19510
834.267	19529
834.406	19480
834.544	19521
834.682	19438
834.821	19331
834.959	19502
835.097	19320
835.235	19411
835.373	19316
835.511	19217
835.65	19251
835.788	19145
835.926	18943
836.064	18993
836.202	18840
836.34	19156
836.478	19202
836.615	19015
836.753	19008
836.891	19129
837.029	19133
837.167	19004
837.305	18932
837.443	18905
837.58	18932
837.718	19046
837.856	18970
837.993	18802
838.131	18894
838.269	18821
838.406	18875
838.544	18684
838.681	18574
838.819	18585
838.956	18395
839.094	18372
839.231	18528
839.369	18483
839.506	18848
839.643	18650
839.781	18445
839.918	18365
840.055	18391
840.193	18441
840.33	18441
840.467	18479
840.604	18391
840.742	18536
840.879	18277
841.016	18220
841.153	18334
841.29	18395
841.427	18361
841.564	18422
841.701	18342
841.838	18327
841.975	18285
842.112	18254
842.249	18083
842.385	18197
842.522	18319
842.659	18159
842.796	18095
842.933	18152
843.069	18072
843.206	18049
843.343	18167
843.479	18178
843.616	18220
843.752	17920
843.889	17859
844.025	18053
844.162	17969
844.298	18155
844.435	17916
844.571	17893
844.708	18030
844.844	18391
844.98	18327
845.117	18467
845.253	18441
845.389	18779
845.525	19419
845.661	20396
845.798	21785
845.934	22778
846.07	23239
846.206	23098
846.342	22318
846.478	20956
846.614	19578
846.75	18730
846.886	18254
847.022	18064
847.158	17824
847.294	17722
847.429	17638
847.565	17562
847.701	17783
847.837	17315
847.972	17140
848.108	17265
848.244	17254
848.379	17124
848.515	17029
848.65	16908
848.786	16972
848.921	17029
849.057	17086
849.192	17090
849.328	16987
849.463	16972
849.598	16953
849.734	16911
849.869	16744
850.004	16786
850.14	16809
850.275	16793
850.41	16721
850.545	16668
850.68	16763
850.815	16805
850.95	16710
851.085	16980
851.22	16816
851.355	16774
851.49	16653
851.625	16675
851.76	16664
851.895	16656
852.03	16630
852.165	16706
852.299	16771
852.434	16843
852.569	16812
852.703	16691
852.838	16801
852.973	16869
853.107	16858
853.242	16828
853.376	16615
853.511	16466
853.645	16603
853.78	16854
853.914	16675
854.048	16668
854.183	16584
854.317	16679
854.451	16759
854.585	16641
854.72	16698
854.854	16801
854.988	16672
855.122	16660
855.256	16527
855.39	16675
855.524	16748
855.658	16569
855.792	16668
855.926	16717
856.06	16649
856.194	16641
856.327	16535
856.461	16519
856.595	16565
856.729	16615
856.862	16710
856.996	16653
857.13	16637
857.263	16706
857.397	16694
857.53	16569
857.664	16683
857.797	16649
857.931	16740
858.064	16542
858.197	16687
858.331	16577
858.464	16584
858.597	16447
858.731	16599
858.864	16565
858.997	16592
859.13	16485
859.263	16558
859.396	16603
859.529	16470
859.662	16398
859.795	16565
859.928	16531
860.061	16675
860.194	16618
860.327	16611
860.46	16596
860.592	16577
860.725	16694
860.858	16653
860.99	16523
861.123	16596
861.256	16493
861.388	16512
861.521	17132
861.653	16409
861.786	16325
861.918	16360
862.05	16519
862.183	16432
862.315	16424
862.447	16550
862.58	16459
862.712	16333
862.844	16280
862.976	16409
863.108	16322
863.24	16805
863.372	16318
863.504	16348
863.636	16287
863.768	16306
863.9	16341
864.032	16246
864.164	16280
864.296	16291
864.428	16417
864.559	16329
864.691	16325
864.823	16402
864.954	16291
865.086	16287
865.217	16188
865.349	16135
865.48	16162
865.612	16207
865.743	16402
865.875	16280
866.006	16196
866.137	16128
866.269	16188
866.4	16238
866.531	16246
866.662	16135
866.793	16215
866.924	16173
867.055	16306
867.186	16207
867.317	16147
867.448	16059
867.579	16154
867.71	16109
867.841	16120
867.972	16162
868.103	16169
868.233	16234
868.364	16192
868.495	16325
868.625	16462
868.756	16546
868.886	16363
869.017	16527
869.147	16500
869.278	16466
869.408	16519
869.539	16432
869.669	16531
869.799	16478
869.929	16554
870.06	16558
870.19	16752
870.32	16759
870.45	16805
870.58	16892
870.71	16946
870.84	16885
870.97	16847
871.1	16790
871.23	16995
871.36	17022
871.489	16809
871.619	16972
871.749	17079
871.879	17045
872.008	17166
872.138	17025
872.267	16984
872.397	17003
872.526	16850
872.656	16869
872.785	16854
872.915	16968
873.044	17083
873.173	17151
873.303	17124
873.432	17147
873.561	17220
873.69	17083
873.819	17090
873.948	17307
874.077	17094
874.206	17151
874.335	17064
874.464	17315
874.593	17326
874.722	17387
874.851	17452
874.979	17455
875.108	17566
875.237	17425
875.365	17406
875.494	17452
875.623	17608
875.751	17345
875.88	17539
876.008	17714
876.136	17684
876.265	17889
876.393	18136
876.521	18045
876.65	18045
876.778	17961
876.906	18007
877.034	17946
877.162	18072
877.29	17961
877.418	18007
877.546	18216
877.674	18030
877.802	18186
877.93	17961
878.058	18144
878.185	18095
878.313	18133
878.441	18353
878.568	18133
878.696	18304
878.824	18604
878.951	18962
879.079	19251
879.206	19799
879.333	20100
879.461	20408
879.588	20667
879.715	20621
879.842	20545
879.97	20062
880.097	19460
880.224	19088
880.351	18947
880.478	18642
880.605	18494
880.732	18555
880.859	18696
880.986	18544
881.112	18426
881.239	18292
881.366	18174
881.493	18049
881.619	18079
881.746	18087
881.872	18026
881.999	17980
882.125	18125
882.252	18167
882.378	18098
882.505	18194
882.631	18095
882.757	17863
882.883	17977
883.01	17901
883.136	17813
883.262	17779
883.388	17676
883.514	17912
883.64	17889
883.766	17866
883.892	17684
884.018	17794
884.143	17893
884.269	17931
884.395	17630
884.52	17600
884.646	17589
884.772	17589
884.897	17520
885.023	17608
885.148	17684
885.274	17615
885.399	17649
885.524	17486
885.65	17474
885.775	17528
885.9	17387
886.025	17581
886.15	17391
886.275	17360
886.4	17178
886.525	17200
886.65	17265
886.775	17143
886.9	17372
887.025	17482
887.149	17143
887.274	17010
887.399	16949
887.523	16934
887.648	16904
887.773	16835
887.897	16980
888.021	16949
888.146	16820
888.27	17003
888.395	17052
888.519	17048
888.643	16896
888.767	16858
888.891	16801
889.015	16744
889.139	16641
889.263	16649
889.387	16824
889.511	16839
889.635	16679
889.759	16588
889.883	16729
890.006	16637
890.13	16717
890.254	16592
890.377	16531
890.501	16436
890.624	16432
890.748	16440
890.871	16318
890.995	16219
891.118	16204
891.241	16242
891.364	16261
891.488	16409
891.611	16265
891.734	16116
891.857	16268
891.98	16287
892.103	16238
892.226	16257
892.349	16166
892.471	15975
892.594	16261
892.717	16276
892.839	16120
892.962	16135
893.085	16238
893.207	16169
893.33	15991
893.452	16006
893.575	16135
893.697	16223
893.819	16196
893.941	16310
894.064	16280
894.186	16105
894.308	15991
894.43	16173
894.552	16333
894.674	16268
894.796	16093
894.918	16071
895.04	16128
895.161	16280
895.283	16150
895.405	16002
895.526	16223
895.648	16109
895.769	16188
895.891	16223
896.012	16242
896.134	16276
896.255	16230
896.376	16200
896.498	16181
896.619	16215
896.74	16268
896.861	16173
896.982	16493
897.103	16622
897.224	16504
897.345	16447
897.466	16459
897.587	16440
897.708	16542
897.828	16523
897.949	16440
898.07	16379
898.19	16382
898.311	16542
898.431	16516
898.552	16432
898.672	16508
898.792	16493
898.913	16516
899.033	16424
899.153	16348
899.273	16223
899.393	16303
899.513	16394
899.633	16382
899.753	16409
899.873	16337
899.993	16379
900.113	16344
900.232	16379
900.352	16394
900.472	16303
900.591	16177
900.711	16238
900.83	16120
900.95	16341
901.069	16306
901.189	16040
901.308	15945
901.427	15854
901.546	15827
901.665	15835
901.784	15835
901.904	15739
902.023	15675
902.141	15408
902.26	15386
902.379	15370
902.498	15275
902.617	15454
902.735	15386
902.854	15389
902.973	15306
903.091	15039
903.21	15119
903.328	15005
903.446	14975
903.565	14826
903.683	14883
903.801	14773
903.919	14849
904.038	14857
904.156	14663
904.274	14739
904.392	14575
904.51	14594
904.627	14537
904.745	14701
904.863	14739
904.981	14412
905.098	14309
905.216	14328
905.334	14278
905.451	14252
905.569	14298
905.686	14252
905.803	14240
905.921	14005
906.038	14161
906.155	14069
906.272	14008
906.389	14046
906.506	13807
906.623	13875
906.74	13814
906.857	13643
906.974	13693
907.091	13803
907.208	13936
907.324	13807
907.441	13658
907.557	13620
907.674	13472
907.79	13422
907.907	13514
908.023	13643
908.139	13552
908.256	13441
908.372	13472
908.488	13415
908.604	13358
908.72	13228
908.836	13221
908.952	13270
909.068	13343
909.184	13285
909.3	13282
909.415	13354
909.531	13324
909.647	13000
909.762	13042
909.878	12996
909.993	13034
910.108	12909
910.224	12993
910.339	12905
910.454	12878
910.57	12817
910.685	12722
910.8	13095
910.915	13015
911.03	12772
911.145	12650
911.259	12692
911.374	12692
911.489	12623
911.604	12559
911.718	12509
911.833	12448
911.947	12308
912.062	12194
912.176	12277
912.291	12445
912.405	12429
912.519	12563
912.633	12578
912.748	12399
912.862	12395
912.976	12251
913.09	12144
913.204	12136
913.318	12273
913.431	12262
913.545	12365
913.659	12357
913.772	12254
913.886	12129
914	12060
914.113	12285
914.226	12270
914.34	12285
914.453	12011
914.566	12167
914.68	12057
914.793	12087
914.906	11912
915.019	11767
915.132	11809
915.245	11863
915.358	11809
915.47	11901
915.583	11832
915.696	11897
915.809	12087
915.921	11996
916.034	11916
916.146	11729
916.259	11745
916.371	11813
916.483	11794
916.595	11779
916.708	11646
916.82	11741
916.932	11737
917.044	11703
917.156	11680
917.268	11627
917.38	11684
917.491	11558
917.603	11604
917.715	11745
917.826	11722
917.938	11604
918.049	11436
918.161	11585
918.272	11665
918.384	11733
918.495	11611
918.606	11486
918.717	11452
918.828	11478
918.939	11452
919.05	11395
919.161	11395
919.272	11242
919.383	11383
919.494	11478
919.604	11718
919.715	11459
919.826	11387
919.936	11391
920.047	11524
920.157	11414
920.267	11551
920.378	11493
920.488	11455
920.598	11600
920.708	11729
920.818	11676
920.928	11581
921.038	11802
921.148	11722
921.258	11383
921.368	11334
921.477	11197
921.587	11280
921.697	11048
921.806	11242
921.916	11223
922.025	11041
922.134	10923
922.244	10854
922.353	10923
922.462	10793
922.571	10752
922.68	10622
922.789	10588
922.898	10630
923.007	10668
923.116	10675
923.224	10599
923.333	10622
923.442	10535
923.55	10527
923.659	10561
923.767	10500
923.876	10447
923.984	10565
924.092	10424
924.201	10512
924.309	10417
924.417	10375
924.525	10424
924.633	10523
924.741	11212
924.849	10215
924.956	10325
925.064	10204
925.172	10181
925.279	10196
925.387	10211
925.494	10200
925.602	10306
925.709	10272
925.816	10177
925.924	10219
926.031	10265
926.138	10207
926.245	10249
926.352	10173
926.459	10299
926.566	10314
926.673	10093
926.779	10040
926.886	10063
926.993	9930
927.099	9899
927.206	9819
927.312	9823
927.419	9823
927.525	9873
927.631	9842
927.737	9812
927.843	9785
927.95	9652
928.056	9698
928.162	9781
928.267	9819
928.373	10394
928.479	9850
928.585	9584
928.69	9781
928.796	9804
928.901	9637
929.007	9542
929.112	9629
929.218	9663
929.323	9568
929.428	9564
929.533	9633
929.638	9523
929.743	9393
929.848	9515
929.953	9473
930.058	9469
930.163	9298
930.267	9332
930.372	9439
930.477	9283
930.581	9481
930.685	9374
930.79	9180
930.894	9245
930.998	9203
931.103	9340
931.207	8979
931.311	8887
931.415	8796
931.519	8701
931.623	8693
