Data from test_V78500241_2489.txt Node
Date: Fri Mar 25 14:51:02 CST 2022
User: usil
Spectrometer: V785-0024
Trigger mode: 0
Integration Time (sec): 4.000000E-1
Scans to average: 1
Nonlinearity correction enabled: false
Boxcar width: 0
Storing dark spectrum: false
XAxis mode: Wavelengths
Number of Pixels in Spectrum: 1024
>>>>>Begin Spectral Data<<<<<
801.071	22150
801.214	22093
801.356	21720
801.499	21656
801.641	21530
801.783	21507
801.926	21561
802.068	21431
802.211	21363
802.353	21294
802.496	21047
802.638	21001
802.78	20910
802.923	20735
803.065	20724
803.208	20815
803.35	20750
803.492	20842
803.635	20895
803.777	20724
803.919	20777
804.061	21093
804.204	20838
804.346	20705
804.488	20587
804.63	20823
804.773	20590
804.915	20613
805.057	20868
805.199	20788
805.341	20823
805.483	20720
805.626	20773
805.768	20712
805.91	20750
806.052	20746
806.194	20644
806.336	20804
806.478	20613
806.62	20609
806.762	20724
806.904	20883
807.046	21180
807.188	21036
807.33	21024
807.472	21001
807.614	20918
807.756	20998
807.898	20876
808.04	20773
808.182	20697
808.324	20880
808.465	20796
808.607	20834
808.749	21150
808.891	21192
809.033	21214
809.174	21108
809.316	20990
809.458	21032
809.6	21070
809.741	21135
809.883	21024
810.025	21226
810.166	21268
810.308	21180
810.45	21214
810.591	21161
810.733	20899
810.875	20765
811.016	20659
811.158	20712
811.299	20918
811.441	20975
811.582	20975
811.724	20899
811.865	20815
812.007	20842
812.148	20788
812.29	20823
812.431	20868
812.573	21119
812.714	21294
812.855	21336
812.997	21344
813.138	21580
813.279	21359
813.421	21325
813.562	21310
813.703	21188
813.845	21112
813.986	20670
814.127	20575
814.268	20454
814.41	20415
814.551	20495
814.692	20484
814.833	20180
814.974	20282
815.115	20339
815.256	20183
815.397	20115
815.539	20191
815.68	20153
815.821	20111
815.962	20107
816.103	20096
816.244	19947
816.385	19799
816.526	19909
816.666	19628
816.807	19556
816.948	19544
817.089	19601
817.23	19563
817.371	19529
817.512	19605
817.653	19502
817.793	19453
817.934	19495
818.075	19518
818.216	19533
818.356	19460
818.497	19308
818.638	19164
818.778	19107
818.919	19213
819.06	19282
819.2	19316
819.341	19407
819.481	19476
819.622	19563
819.762	19750
819.903	19700
820.043	19472
820.184	19552
820.324	19521
820.465	19537
820.605	19567
820.746	19510
820.886	19384
821.026	19468
821.167	19632
821.307	19578
821.447	19388
821.588	19441
821.728	19202
821.868	19034
822.008	18882
822.149	18833
822.289	19004
822.429	18551
822.569	18673
822.709	18646
822.849	18311
822.99	18308
823.13	18407
823.27	18407
823.41	18346
823.55	18209
823.69	18133
823.83	18224
823.97	18159
824.11	18030
824.25	17946
824.389	17969
824.529	17973
824.669	18011
824.809	18098
824.949	18087
825.089	18022
825.228	17977
825.368	17802
825.508	17843
825.648	17733
825.787	17821
825.927	17805
826.067	17813
826.206	17714
826.346	17783
826.485	17642
826.625	17699
826.765	17912
826.904	17863
827.044	17600
827.183	17573
827.323	17448
827.462	17471
827.601	17455
827.741	17364
827.88	17398
828.02	17315
828.159	17387
828.298	17383
828.437	17425
828.577	17490
828.716	17623
828.855	17425
828.994	17162
829.134	17273
829.273	17185
829.412	17162
829.551	17064
829.69	17086
829.829	17273
829.968	17315
830.107	17246
830.246	17147
830.385	17105
830.524	16991
830.663	16995
830.802	16892
830.941	16885
831.08	16801
831.219	16885
831.357	16839
831.496	17029
831.635	16915
831.774	16740
831.913	16656
832.051	16592
832.19	16573
832.329	16645
832.467	16478
832.606	16527
832.744	16519
832.883	16436
833.022	16462
833.16	16504
833.299	16577
833.437	16531
833.576	16607
833.714	16493
833.852	16565
833.991	16546
834.129	16649
834.267	16592
834.406	16618
834.544	16584
834.682	16599
834.821	16573
834.959	16782
835.097	16531
835.235	16626
835.373	16558
835.511	16546
835.65	16516
835.788	16409
835.926	16344
836.064	16200
836.202	16333
836.34	16394
836.478	16554
836.615	16516
836.753	16466
836.891	16527
837.029	16424
837.167	16474
837.305	16390
837.443	16398
837.58	16318
837.718	16363
837.856	16348
837.993	16295
838.131	16413
838.269	16318
838.406	16200
838.544	16219
838.681	15979
838.819	15926
838.956	15869
839.094	15797
839.231	15880
839.369	16017
839.506	16265
839.643	16082
839.781	15876
839.918	15846
840.055	15922
840.193	15876
840.33	15808
840.467	15915
840.604	15972
840.742	16017
840.879	15865
841.016	15819
841.153	15785
841.29	15968
841.427	15861
841.564	15937
841.701	15831
841.838	15880
841.975	15762
842.112	15793
842.249	15755
842.385	15584
842.522	15797
842.659	15603
842.796	15572
842.933	15690
843.069	15618
843.206	15587
843.343	15717
843.479	15622
843.616	15679
843.752	15477
843.889	15450
844.025	15663
844.162	15477
844.298	15705
844.435	15450
844.571	15386
844.708	15435
844.844	15614
844.98	15633
845.117	15599
845.253	15416
845.389	15275
845.525	15397
845.661	15450
845.798	15332
845.934	15268
846.07	15131
846.206	15291
846.342	15389
846.478	15279
846.614	15089
846.75	14941
846.886	14971
847.022	15032
847.158	15013
847.294	15024
847.429	15020
847.565	14899
847.701	15203
847.837	14697
847.972	14743
848.108	14887
848.244	14838
848.379	14629
848.515	14499
848.65	14579
848.786	14552
848.921	14651
849.057	14765
849.192	14682
849.328	14678
849.463	14678
849.598	14545
849.734	14556
849.869	14438
850.004	14381
850.14	14480
850.275	14377
850.41	14298
850.545	14362
850.68	14427
850.815	14370
850.95	14362
851.085	14590
851.22	14473
851.355	14423
851.49	14381
851.625	14404
851.76	14393
851.895	14298
852.03	14157
852.165	14282
852.299	14442
852.434	14476
852.569	14385
852.703	14389
852.838	14408
852.973	14442
853.107	14571
853.242	14419
853.376	14248
853.511	14180
853.645	14225
853.78	14457
853.914	14263
854.048	14259
854.183	14229
854.317	14298
854.451	14389
854.585	14229
854.72	14191
854.854	14275
854.988	14202
855.122	14252
855.256	14149
855.39	14290
855.524	14320
855.658	14244
855.792	14286
855.926	14339
856.06	14366
856.194	14332
856.327	14103
856.461	14187
856.595	14237
856.729	14199
856.862	14366
856.996	14317
857.13	14355
857.263	14374
857.397	14355
857.53	14275
857.664	14324
857.797	14290
857.931	14339
858.064	14244
858.197	14446
858.331	14320
858.464	14259
858.597	14084
858.731	14221
858.864	14244
858.997	14214
859.13	14248
859.263	14271
859.396	14275
859.529	14172
859.662	14267
859.795	14263
859.928	14275
860.061	14317
860.194	14412
860.327	14267
860.46	14263
860.592	14404
860.725	14374
860.858	14347
860.99	14233
861.123	14176
861.256	14278
861.388	14248
861.521	14857
861.653	14088
861.786	14088
861.918	14206
862.05	14145
862.183	14229
862.315	14225
862.447	14298
862.58	14252
862.712	14024
862.844	13906
862.976	14069
863.108	14035
863.24	14339
863.372	14024
863.504	14088
863.636	14103
863.768	14035
863.9	13986
864.032	14005
864.164	13989
864.296	14062
864.428	14130
864.559	14153
864.691	14134
864.823	13997
864.954	14119
865.086	14107
865.217	14001
865.349	13917
865.48	14012
865.612	13940
865.743	14119
865.875	14008
866.006	13982
866.137	14069
866.269	14073
866.4	14035
866.531	14012
866.662	13890
866.793	13947
866.924	13978
867.055	13906
867.186	14054
867.317	13944
867.448	13875
867.579	13921
867.71	13898
867.841	13837
867.972	13959
868.103	14088
868.233	13959
868.364	14016
868.495	14046
868.625	14183
868.756	14389
868.886	14233
869.017	14240
869.147	14271
869.278	14332
869.408	14248
869.539	14218
869.669	14305
869.799	14256
869.929	14446
870.06	14282
870.19	14556
870.32	14499
870.45	14621
870.58	14651
870.71	14785
870.84	14823
870.97	14636
871.1	14625
871.23	14857
871.36	14918
871.489	14811
871.619	14823
871.749	14895
871.879	14967
872.008	14944
872.138	14887
872.267	14743
872.397	14731
872.526	14613
872.656	14651
872.785	14773
872.915	14910
873.044	15036
873.173	14990
873.303	14876
873.432	15058
873.561	14956
873.69	14956
873.819	14895
873.948	15039
874.077	14887
874.206	14918
874.335	14887
874.464	15161
874.593	15207
874.722	15154
874.851	15211
874.979	15325
875.108	15332
875.237	15192
875.365	15169
875.494	15195
875.623	15310
875.751	15233
875.88	15211
876.008	15393
876.136	15443
876.265	15660
876.393	15823
876.521	15747
876.65	15739
876.778	15785
876.906	15572
877.034	15682
877.162	15698
877.29	15500
877.418	15629
877.546	15675
877.674	15641
877.802	15694
877.93	15709
878.058	15545
878.185	15462
878.313	15641
878.441	15671
878.568	15545
878.696	15530
878.824	15679
878.951	15709
879.079	15793
879.206	16059
879.333	15789
879.461	15789
879.588	15774
879.715	15850
879.842	15975
879.97	15747
880.097	15466
880.224	15397
880.351	15538
880.478	15477
880.605	15462
880.732	15454
880.859	15591
880.986	15587
881.112	15466
881.239	15386
881.366	15207
881.493	15146
881.619	15169
881.746	15275
881.872	15123
881.999	15089
882.125	15119
882.252	15245
882.378	15116
882.505	15405
882.631	15051
882.757	14998
882.883	14971
883.01	15039
883.136	14941
883.262	14777
883.388	14788
883.514	14956
883.64	15032
883.766	14948
883.892	14838
884.018	14800
884.143	14967
884.269	15032
884.395	14640
884.52	14598
884.646	14724
884.772	14663
884.897	14545
885.023	14724
885.148	14777
885.274	14891
885.399	14826
885.524	14644
885.65	14667
885.775	14708
885.9	14686
886.025	14861
886.15	14716
886.275	14667
886.4	14644
886.525	14720
886.65	14598
886.775	14629
886.9	14705
887.025	14868
887.149	14651
887.274	14434
887.399	14377
887.523	14518
887.648	14431
887.773	14473
887.897	14560
888.021	14537
888.146	14476
888.27	14545
888.395	14670
888.519	14461
888.643	14587
888.767	14613
888.891	14415
889.015	14320
889.139	14434
889.263	14351
889.387	14446
889.511	14476
889.635	14545
889.759	14446
889.883	14370
890.006	14404
890.13	14511
890.254	14404
890.377	14343
890.501	14134
890.624	14199
890.748	14286
890.871	14012
890.995	14062
891.118	13932
891.241	14035
891.364	14096
891.488	14218
891.611	14043
891.734	14115
891.857	14065
891.98	14149
892.103	14134
892.226	14206
892.349	14073
892.471	13932
892.594	14065
892.717	14176
892.839	14065
892.962	14134
893.085	14134
893.207	14005
893.33	13928
893.452	14043
893.575	14206
893.697	14058
893.819	14317
893.941	14252
894.064	14233
894.186	14050
894.308	13951
894.43	14218
894.552	14233
894.674	14263
894.796	14077
894.918	14050
895.04	14138
895.161	14161
895.283	14210
895.405	13989
895.526	14092
895.648	14202
895.769	14294
895.891	14275
896.012	14275
896.134	14305
896.255	14271
896.376	14123
896.498	14240
896.619	14259
896.74	14294
896.861	14309
896.982	14610
897.103	14648
897.224	14442
897.345	14507
897.466	14488
897.587	14473
897.708	14579
897.828	14590
897.949	14476
898.07	14377
898.19	14446
898.311	14701
898.431	14473
898.552	14606
898.672	14705
898.792	14575
898.913	14621
899.033	14514
899.153	14431
899.273	14396
899.393	14381
899.513	14461
899.633	14465
899.753	14545
899.873	14419
899.993	14556
900.113	14488
900.232	14583
900.352	14412
900.472	14317
900.591	14252
900.711	14393
900.83	14214
900.95	14259
901.069	14427
901.189	14218
901.308	13982
901.427	13955
901.546	14016
901.665	13936
901.784	14088
901.904	13875
902.023	13731
902.141	13605
902.26	13597
902.379	13655
902.498	13575
902.617	13548
902.735	13601
902.854	13506
902.973	13411
903.091	13362
903.21	13266
903.328	13209
903.446	13152
903.565	13179
903.683	13122
903.801	13069
903.919	13088
904.038	13053
904.156	12973
904.274	13023
904.392	12924
904.51	12958
904.627	12924
904.745	12966
904.863	12932
904.981	12749
905.098	12601
905.216	12635
905.334	12642
905.451	12711
905.569	12585
905.686	12738
905.803	12589
905.921	12445
906.038	12574
906.155	12544
906.272	12315
906.389	12471
906.506	12190
906.623	12228
906.74	12277
906.857	12117
906.974	12182
907.091	12232
907.208	12315
907.324	12361
907.441	12076
907.557	11965
907.674	11965
907.79	11988
907.907	11954
908.023	12057
908.139	11988
908.256	11946
908.372	11908
908.488	11999
908.604	11824
908.72	11847
908.836	11718
908.952	11707
909.068	11798
909.184	11908
909.3	11729
909.415	11821
909.531	11771
909.647	11509
909.762	11490
909.878	11444
909.993	11524
910.108	11440
910.224	11539
910.339	11524
910.454	11444
910.57	11372
910.685	11318
910.8	11596
910.915	11520
911.03	11421
911.145	11204
911.259	11208
911.374	11296
911.489	11193
911.604	11022
911.718	10984
911.833	11037
911.947	10801
912.062	10782
912.176	10991
912.291	10949
912.405	10987
912.519	11159
912.633	11113
912.748	11029
912.862	10934
912.976	10911
913.09	10748
913.204	10835
913.318	10816
913.431	10949
913.545	10866
913.659	10987
913.772	10854
913.886	10710
914	10717
914.113	10774
914.226	10869
914.34	10835
914.453	10641
914.566	10744
914.68	10748
914.793	10645
914.906	10535
915.019	10443
915.132	10421
915.245	10363
915.358	10504
915.47	10440
915.583	10535
915.696	10527
915.809	10577
915.921	10573
916.034	10428
916.146	10398
916.259	10481
916.371	10542
916.483	10512
916.595	10398
916.708	10382
916.82	10459
916.932	10474
917.044	10314
917.156	10402
917.268	10249
917.38	10325
917.491	10268
917.603	10291
917.715	10432
917.826	10333
917.938	10299
918.049	10128
918.161	10371
918.272	10432
918.384	10455
918.495	10337
918.606	10147
918.717	10158
918.828	10093
918.939	10207
919.05	10109
919.161	10204
919.272	9972
919.383	10044
919.494	10257
919.604	10367
919.715	10227
919.826	10109
919.936	10059
920.047	10306
920.157	10234
920.267	10363
920.378	10253
920.488	10207
920.598	10386
920.708	10554
920.818	10341
920.928	10478
921.038	10531
921.148	10493
921.258	10234
921.368	10204
921.477	9983
921.587	10013
921.697	9968
921.806	10128
921.916	9888
922.025	9812
922.134	9797
922.244	9671
922.353	9713
922.462	9557
922.571	9500
922.68	9416
922.789	9378
922.898	9511
923.007	9412
923.116	9564
923.224	9431
923.333	9469
923.442	9306
923.55	9264
923.659	9317
923.767	9321
923.876	9340
923.984	9367
924.092	9306
924.201	9237
924.309	9317
924.417	9340
924.525	9279
924.633	9344
924.741	10040
924.849	9089
924.956	9241
925.064	9058
925.172	9062
925.279	9085
925.387	9062
925.494	9097
925.602	9233
925.709	9214
925.816	9047
925.924	9097
926.031	9192
926.138	9127
926.245	9161
926.352	9089
926.459	9123
926.566	9199
926.673	9062
926.779	8891
926.886	8910
926.993	8845
927.099	8773
927.206	8777
927.312	8727
927.419	8906
927.525	8811
927.631	8872
927.737	8750
927.843	8724
927.95	8549
928.056	8769
928.162	8735
928.267	8766
928.373	9313
928.479	8872
928.585	8621
928.69	8743
928.796	8834
928.901	8606
929.007	8499
929.112	8682
929.218	8598
929.323	8602
929.428	8541
929.533	8697
929.638	8484
929.743	8526
929.848	8568
929.953	8564
930.058	8434
930.163	8282
930.267	8320
930.372	8484
930.477	8267
930.581	8560
930.685	8358
930.79	8202
930.894	8339
930.998	8202
931.103	8362
931.207	8096
931.311	8050
931.415	7932
931.519	7761
931.623	7704
