Data from test_V78500241_1384.txt Node
Date: Fri Mar 25 14:43:21 CST 2022
User: usil
Spectrometer: V785-0024
Trigger mode: 0
Integration Time (sec): 4.000000E-1
Scans to average: 1
Nonlinearity correction enabled: false
Boxcar width: 0
Storing dark spectrum: false
XAxis mode: Wavelengths
Number of Pixels in Spectrum: 1024
>>>>>Begin Spectral Data<<<<<
801.071	22394
801.214	22303
801.356	22112
801.499	22048
801.641	21869
801.783	21709
801.926	21774
802.068	21720
802.211	21660
802.353	21580
802.496	21424
802.638	21325
802.78	21252
802.923	21233
803.065	21226
803.208	21051
803.35	21150
803.492	21332
803.635	21249
803.777	21184
803.919	21214
804.061	21428
804.204	21195
804.346	21055
804.488	21001
804.63	21161
804.773	20918
804.915	21123
805.057	21157
805.199	21131
805.341	21089
805.483	21245
805.626	21123
805.768	20952
805.91	21039
806.052	21058
806.194	20975
806.336	21161
806.478	21047
806.62	20933
806.762	21169
806.904	21264
807.046	21557
807.188	21367
807.33	21428
807.472	21420
807.614	21340
807.756	21481
807.898	21272
808.04	21112
808.182	21302
808.324	21249
808.465	21363
808.607	21534
808.749	21709
808.891	21854
809.033	21903
809.174	21755
809.316	21591
809.458	21648
809.6	21564
809.741	21606
809.883	21576
810.025	21778
810.166	21709
810.308	21580
810.45	21663
810.591	21568
810.733	21416
810.875	21310
811.016	21169
811.158	21165
811.299	21321
811.441	21386
811.582	21386
811.724	21283
811.865	21279
812.007	21241
812.148	21317
812.29	21207
812.431	21336
812.573	21549
812.714	21671
812.855	21671
812.997	21816
813.138	22059
813.279	21793
813.421	21637
813.562	21720
813.703	21469
813.845	21405
813.986	21104
814.127	20990
814.268	20804
814.41	20872
814.551	20838
814.692	20849
814.833	20891
814.974	20720
815.115	20838
815.256	20644
815.397	20613
815.539	20594
815.68	20640
815.821	20545
815.962	20552
816.103	20522
816.244	20404
816.385	20294
816.526	20248
816.666	20103
816.807	19940
816.948	20031
817.089	20065
817.23	19906
817.371	19970
817.512	19761
817.653	19894
817.793	19769
817.934	19932
818.075	19951
818.216	19947
818.356	19875
818.497	19799
818.638	19674
818.778	19693
818.919	19712
819.06	19651
819.2	19689
819.341	19902
819.481	19879
819.622	19887
819.762	20180
819.903	20100
820.043	19909
820.184	19913
820.324	19944
820.465	19944
820.605	19944
820.746	19925
820.886	19822
821.026	19772
821.167	19799
821.307	20005
821.447	19887
821.588	19708
821.728	19609
821.868	19438
822.008	19278
822.149	19327
822.289	19194
822.429	19061
822.569	19057
822.709	19061
822.849	18848
822.99	18825
823.13	18741
823.27	18715
823.41	18601
823.55	18582
823.69	18650
823.83	18669
823.97	18604
824.11	18289
824.25	18441
824.389	18426
824.529	18540
824.669	18410
824.809	18471
824.949	18601
825.089	18448
825.228	18445
825.368	18251
825.508	18152
825.648	18205
825.787	18258
825.927	18232
826.067	18011
826.206	18041
826.346	18190
826.485	18205
826.625	18079
826.765	18277
826.904	18220
827.044	17965
827.183	17824
827.323	17901
827.462	17893
827.601	17851
827.741	17783
827.88	17775
828.02	17703
828.159	17870
828.298	17939
828.437	17927
828.577	17847
828.716	17878
828.855	17889
828.994	17691
829.134	17699
829.273	17665
829.412	17535
829.551	17528
829.69	17520
829.829	17764
829.968	17741
830.107	17726
830.246	17634
830.385	17535
830.524	17459
830.663	17459
830.802	17330
830.941	17254
831.08	17200
831.219	17292
831.357	17273
831.496	17505
831.635	17170
831.774	17143
831.913	17140
832.051	16965
832.19	17006
832.329	17090
832.467	16915
832.606	16877
832.744	16831
832.883	16885
833.022	16824
833.16	16869
833.299	16904
833.437	16930
833.576	17006
833.714	16961
833.852	17006
833.991	16908
834.129	17109
834.267	17060
834.406	16957
834.544	17022
834.682	17003
834.821	17006
834.959	17220
835.097	16946
835.235	17079
835.373	17018
835.511	17010
835.65	16885
835.788	16767
835.926	16812
836.064	16615
836.202	16672
836.34	16908
836.478	17075
836.615	16915
836.753	16965
836.891	17018
837.029	16923
837.167	16938
837.305	16843
837.443	16755
837.58	16668
837.718	16839
837.856	16740
837.993	16729
838.131	16729
838.269	16607
838.406	16596
838.544	16656
838.681	16447
838.819	16341
838.956	16253
839.094	16318
839.231	16253
839.369	16360
839.506	16675
839.643	16519
839.781	16371
839.918	16234
840.055	16295
840.193	16284
840.33	16249
840.467	16253
840.604	16314
840.742	16645
840.879	16249
841.016	16238
841.153	16169
841.29	16360
841.427	16242
841.564	16322
841.701	16348
841.838	16196
841.975	16226
842.112	16246
842.249	16074
842.385	15956
842.522	16246
842.659	16078
842.796	16010
842.933	15994
843.069	15983
843.206	15956
843.343	16147
843.479	16074
843.616	16044
843.752	15789
843.889	15884
844.025	16055
844.162	15808
844.298	16021
844.435	15827
844.571	15861
844.708	15934
844.844	16071
844.98	15922
845.117	15972
845.253	15831
845.389	15770
845.525	15812
845.661	15812
845.798	15911
845.934	15945
846.07	15876
846.206	15972
846.342	16116
846.478	15876
846.614	15686
846.75	15435
846.886	15420
847.022	15553
847.158	15519
847.294	15355
847.429	15363
847.565	15412
847.701	15690
847.837	15138
847.972	15138
848.108	15279
848.244	15313
848.379	15081
848.515	14948
848.65	14967
848.786	14986
848.921	15123
849.057	15112
849.192	15047
849.328	15074
849.463	15081
849.598	15055
849.734	14857
849.869	14883
850.004	14724
850.14	14815
850.275	14800
850.41	14705
850.545	14636
850.68	14796
850.815	14739
850.95	14705
851.085	14921
851.22	14910
851.355	14838
851.49	14834
851.625	14670
851.76	14773
851.895	14743
852.03	14594
852.165	14754
852.299	14777
852.434	14800
852.569	14804
852.703	14925
852.838	14933
852.973	14937
853.107	14929
853.242	14712
853.376	14746
853.511	14598
853.645	14575
853.78	14807
853.914	14667
854.048	14594
854.183	14617
854.317	14625
854.451	14777
854.585	14712
854.72	14560
854.854	14765
854.988	14636
855.122	14651
855.256	14583
855.39	14575
855.524	14762
855.658	14648
855.792	14758
855.926	14583
856.06	14629
856.194	14777
856.327	14629
856.461	14606
856.595	14587
856.729	14659
856.862	14754
856.996	14689
857.13	14693
857.263	14739
857.397	14720
857.53	14613
857.664	14754
857.797	14686
857.931	14731
858.064	14765
858.197	14678
858.331	14769
858.464	14587
858.597	14587
858.731	14705
858.864	14590
858.997	14617
859.13	14648
859.263	14651
859.396	14705
859.529	14594
859.662	14560
859.795	14606
859.928	14705
860.061	14765
860.194	14773
860.327	14590
860.46	14556
860.592	14788
860.725	14838
860.858	14727
860.99	14617
861.123	14492
861.256	14545
861.388	14503
861.521	15492
861.653	14526
861.786	14408
861.918	14446
862.05	14492
862.183	14602
862.315	14640
862.447	14678
862.58	14552
862.712	14377
862.844	14358
862.976	14461
863.108	14434
863.24	14918
863.372	14396
863.504	14461
863.636	14480
863.768	14434
863.9	14389
864.032	14393
864.164	14317
864.296	14465
864.428	14552
864.559	14476
864.691	14454
864.823	14415
864.954	14492
865.086	14473
865.217	14347
865.349	14381
865.48	14393
865.612	14336
865.743	14400
865.875	14355
866.006	14389
866.137	14480
866.269	14454
866.4	14259
866.531	14328
866.662	14328
866.793	14328
866.924	14351
867.055	14393
867.186	14415
867.317	14301
867.448	14275
867.579	14332
867.71	14248
867.841	14298
867.972	14347
868.103	14446
868.233	14351
868.364	14434
868.495	14461
868.625	14636
868.756	14769
868.886	14556
869.017	14552
869.147	14689
869.278	14727
869.408	14552
869.539	14629
869.669	14670
869.799	14720
869.929	14705
870.06	14746
870.19	14975
870.32	14948
870.45	15051
870.58	15051
870.71	15089
870.84	15097
870.97	14990
871.1	14967
871.23	15199
871.36	15226
871.489	15070
871.619	15237
871.749	15195
871.879	15291
872.008	15241
872.138	15245
872.267	15173
872.397	15150
872.526	15116
872.656	14975
872.785	15032
872.915	15256
873.044	15260
873.173	15264
873.303	15313
873.432	15329
873.561	15397
873.69	15302
873.819	15298
873.948	15332
874.077	15252
874.206	15218
874.335	15329
874.464	15485
874.593	15633
874.722	15606
874.851	15728
874.979	15671
875.108	15584
875.237	15572
875.365	15454
875.494	15507
875.623	15713
875.751	15557
875.88	15694
876.008	15808
876.136	15804
876.265	16006
876.393	16215
876.521	16074
876.65	16097
876.778	16063
876.906	15968
877.034	15987
877.162	16055
877.29	15873
877.418	16048
877.546	15945
877.674	15998
877.802	15987
877.93	16017
878.058	16002
878.185	15945
878.313	16071
878.441	16032
878.568	15911
878.696	15953
878.824	15991
878.951	16025
879.079	16207
879.206	16462
879.333	16215
879.461	16253
879.588	16242
879.715	16284
879.842	16474
879.97	16230
880.097	16010
880.224	15823
880.351	15857
880.478	15911
880.605	15842
880.732	15930
880.859	16048
880.986	15838
881.112	15850
881.239	15793
881.366	15625
881.493	15625
881.619	15481
881.746	15625
881.872	15576
881.999	15458
882.125	15473
882.252	15568
882.378	15488
882.505	15614
882.631	15477
882.757	15378
882.883	15401
883.01	15397
883.136	15344
883.262	15184
883.388	15161
883.514	15435
883.64	15310
883.766	15272
883.892	15241
884.018	15218
884.143	15340
884.269	15405
884.395	15184
884.52	15150
884.646	15081
884.772	15013
884.897	14906
885.023	15116
885.148	15116
885.274	15245
885.399	15169
885.524	15062
885.65	15108
885.775	15138
885.9	15043
886.025	15150
886.15	15100
886.275	14941
886.4	14880
886.525	14941
886.65	15024
886.775	15047
886.9	15142
887.025	15150
887.149	14975
887.274	14899
887.399	14807
887.523	14834
887.648	14781
887.773	14750
887.897	14990
888.021	14982
888.146	14807
888.27	15024
888.395	14994
888.519	14990
888.643	14979
888.767	14902
888.891	14792
889.015	14735
889.139	14651
889.263	14708
889.387	14811
889.511	14883
889.635	14845
889.759	14659
889.883	14712
890.006	14788
890.13	14823
890.254	14659
890.377	14632
890.501	14484
890.624	14564
890.748	14503
890.871	14495
890.995	14313
891.118	14275
891.241	14450
891.364	14385
891.488	14522
891.611	14347
891.734	14469
891.857	14484
891.98	14480
892.103	14419
892.226	14328
892.349	14358
892.471	14305
892.594	14431
892.717	14408
892.839	14370
892.962	14552
893.085	14457
893.207	14465
893.33	14240
893.452	14309
893.575	14385
893.697	14301
893.819	14552
893.941	14659
894.064	14621
894.186	14408
894.308	14351
894.43	14545
894.552	14568
894.674	14473
894.796	14313
894.918	14377
895.04	14427
895.161	14465
895.283	14545
895.405	14442
895.526	14465
895.648	14564
895.769	14556
895.891	14533
896.012	14610
896.134	14465
896.255	14598
896.376	14526
896.498	14549
896.619	14610
896.74	14537
896.861	14625
896.982	14891
897.103	15028
897.224	14826
897.345	14743
897.466	14743
897.587	14777
897.708	14948
897.828	14777
897.949	14804
898.07	14655
898.19	14735
898.311	15089
898.431	14929
898.552	14887
898.672	14941
898.792	14887
898.913	14982
899.033	14845
899.153	14663
899.273	14499
899.393	14743
899.513	14815
899.633	14876
899.753	14750
899.873	14644
899.993	14788
900.113	14777
900.232	14746
900.352	14750
900.472	14640
900.591	14549
900.711	14716
900.83	14625
900.95	14689
901.069	14640
901.189	14514
901.308	14309
901.427	14180
901.546	14278
901.665	14336
901.784	14240
901.904	14191
902.023	14081
902.141	13989
902.26	13875
902.379	13871
902.498	13795
902.617	13849
902.735	13807
902.854	13868
902.973	13727
903.091	13575
903.21	13636
903.328	13590
903.446	13480
903.565	13381
903.683	13460
903.801	13304
903.919	13377
904.038	13407
904.156	13304
904.274	13259
904.392	13232
904.51	13206
904.627	13240
904.745	13244
904.863	13232
904.981	13015
905.098	12932
905.216	12943
905.334	12901
905.451	12852
905.569	12935
905.686	12878
905.803	12943
905.921	12787
906.038	12871
906.155	12757
906.272	12688
906.389	12711
906.506	12536
906.623	12521
906.74	12502
906.857	12342
906.974	12426
907.091	12566
907.208	12612
907.324	12471
907.441	12388
907.557	12262
907.674	12197
907.79	12228
907.907	12289
908.023	12247
908.139	12186
908.256	12171
908.372	12209
908.488	12114
908.604	12041
908.72	11942
908.836	12011
908.952	11965
909.068	12079
909.184	12228
909.3	11973
909.415	12079
909.531	12045
909.647	11745
909.762	11786
909.878	11760
909.993	11836
910.108	11718
910.224	11649
910.339	11707
910.454	11608
910.57	11684
910.685	11554
910.8	11802
910.915	11703
911.03	11649
911.145	11493
911.259	11421
911.374	11524
911.489	11391
911.604	11269
911.718	11231
911.833	11330
911.947	11197
912.062	11075
912.176	11170
912.291	11231
912.405	11265
912.519	11448
912.633	11410
912.748	11258
912.862	11143
912.976	11067
913.09	11037
913.204	10965
913.318	11056
913.431	11162
913.545	11083
913.659	11220
913.772	11109
913.886	11064
914	10953
914.113	11105
914.226	11079
914.34	11052
914.453	10869
914.566	11067
914.68	10889
914.793	10927
914.906	10744
915.019	10603
915.132	10622
915.245	10664
915.358	10618
915.47	10675
915.583	10694
915.696	10809
915.809	10854
915.921	10930
916.034	10675
916.146	10584
916.259	10660
916.371	10793
916.483	10767
916.595	10554
916.708	10656
916.82	10691
916.932	10618
917.044	10607
917.156	10558
917.268	10516
917.38	10500
917.491	10497
917.603	10573
917.715	10710
917.826	10691
917.938	10554
918.049	10466
918.161	10519
918.272	10637
918.384	10675
918.495	10554
918.606	10443
918.717	10261
918.828	10398
918.939	10485
919.05	10344
919.161	10371
919.272	10211
919.383	10337
919.494	10386
919.604	10603
919.715	10356
919.826	10314
919.936	10382
920.047	10561
920.157	10417
920.267	10611
920.378	10470
920.488	10432
920.598	10618
920.708	10721
920.818	10580
920.928	10588
921.038	10786
921.148	10691
921.258	10424
921.368	10314
921.477	10234
921.587	10246
921.697	10101
921.806	10242
921.916	10147
922.025	9972
922.134	9975
922.244	9888
922.353	10032
922.462	9850
922.571	9838
922.68	9717
922.789	9595
922.898	9675
923.007	9564
923.116	9667
923.224	9580
923.333	9629
923.442	9515
923.55	9526
923.659	9424
923.767	9622
923.876	9428
923.984	9580
924.092	9389
924.201	9523
924.309	9526
924.417	9595
924.525	9477
924.633	9389
924.741	10413
924.849	9302
924.956	9462
925.064	9291
925.172	9256
925.279	9279
925.387	9344
925.494	9344
925.602	9507
925.709	9370
925.816	9291
925.924	9310
926.031	9416
926.138	9279
926.245	9450
926.352	9203
926.459	9302
926.566	9382
926.673	9188
926.779	9176
926.886	9176
926.993	9066
927.099	9039
927.206	8994
927.312	8960
927.419	9066
927.525	9047
927.631	9055
927.737	8971
927.843	8876
927.95	8777
928.056	8807
928.162	8849
928.267	8864
928.373	9545
928.479	9081
928.585	8739
928.69	8910
928.796	8937
928.901	8769
929.007	8701
929.112	8766
929.218	8842
929.323	8773
929.428	8686
929.533	8902
929.638	8727
929.743	8701
929.848	8731
929.953	8689
930.058	8670
930.163	8507
930.267	8484
930.372	8651
930.477	8480
930.581	8670
930.685	8545
930.79	8419
930.894	8492
930.998	8343
931.103	8545
931.207	8279
931.311	8111
931.415	8100
931.519	7944
931.623	7940
