Data from test_V78500241_495.txt Node
Date: Fri Mar 25 14:37:10 CST 2022
User: usil
Spectrometer: V785-0024
Trigger mode: 0
Integration Time (sec): 4.000000E-1
Scans to average: 1
Nonlinearity correction enabled: false
Boxcar width: 0
Storing dark spectrum: false
XAxis mode: Wavelengths
Number of Pixels in Spectrum: 1024
>>>>>Begin Spectral Data<<<<<
801.071	26769
801.214	26594
801.356	26465
801.499	26434
801.641	26065
801.783	26039
801.926	26237
802.068	25997
802.211	25932
802.353	25826
802.496	25689
802.638	25655
802.78	25643
802.923	25647
803.065	25556
803.208	25483
803.35	25563
803.492	25696
803.635	25734
803.777	25609
803.919	25807
804.061	26027
804.204	25567
804.346	25563
804.488	25635
804.63	25670
804.773	25400
804.915	25704
805.057	25727
805.199	25601
805.341	25514
805.483	25628
805.626	25647
805.768	25548
805.91	25681
806.052	25677
806.194	25430
806.336	25761
806.478	25597
806.62	25628
806.762	25814
806.904	25963
807.046	26248
807.188	26054
807.33	26035
807.472	26206
807.614	25963
807.756	26027
807.898	26024
808.04	26039
808.182	26050
808.324	26103
808.465	26294
808.607	26427
808.749	26606
808.891	26918
809.033	26937
809.174	26887
809.316	26587
809.458	26476
809.6	26396
809.741	26336
809.883	26362
810.025	26415
810.166	26366
810.308	26336
810.45	26358
810.591	26202
810.733	25989
810.875	26084
811.016	25970
811.158	25875
811.299	26062
811.441	26077
811.582	26168
811.724	26054
811.865	25917
812.007	26031
812.148	25928
812.29	25944
812.431	26039
812.573	26180
812.714	26237
812.855	26453
812.997	26571
813.138	26670
813.279	26659
813.421	26480
813.562	26347
813.703	26244
813.845	26039
813.986	25750
814.127	25590
814.268	25533
814.41	25666
814.551	25537
814.692	25529
814.833	25438
814.974	25491
815.115	25411
815.256	25244
815.397	25327
815.539	25244
815.68	25308
815.821	25076
815.962	25259
816.103	25171
816.244	25076
816.385	25012
816.526	24920
816.666	24840
816.807	24650
816.948	24608
817.089	24700
817.23	24654
817.371	24521
817.512	24505
817.653	24517
817.793	24464
817.934	24578
818.075	24654
818.216	24620
818.356	24536
818.497	24376
818.638	24273
818.778	24182
818.919	24270
819.06	24155
819.2	24357
819.341	24346
819.481	24372
819.622	24612
819.762	24802
819.903	24639
820.043	24604
820.184	24608
820.324	24604
820.465	24608
820.605	24604
820.746	24521
820.886	24247
821.026	24486
821.167	24433
821.307	24570
821.447	24505
821.588	24296
821.728	24155
821.868	24011
822.008	23950
822.149	23783
822.289	23893
822.429	23611
822.569	23573
822.709	23680
822.849	23356
822.99	23311
823.13	23364
823.27	23242
823.41	23056
823.55	23075
823.69	23052
823.83	23105
823.97	22949
824.11	22854
824.25	22835
824.389	22843
824.529	23083
824.669	22843
824.809	22972
824.949	23029
825.089	22930
825.228	22889
825.368	22694
825.508	22736
825.648	22679
825.787	22710
825.927	22816
826.067	22596
826.206	22744
826.346	22733
826.485	22675
826.625	22694
826.765	22824
826.904	22881
827.044	22451
827.183	22474
827.323	22356
827.462	22440
827.601	22325
827.741	22196
827.88	22402
828.02	22230
828.159	22314
828.298	22379
828.437	22405
828.577	22394
828.716	22451
828.855	22215
828.994	22131
829.134	22135
829.273	22082
829.412	21945
829.551	21926
829.69	22086
829.829	21972
829.968	22120
830.107	22211
830.246	22143
830.385	22006
830.524	21854
830.663	21968
830.802	21648
830.941	21724
831.08	21599
831.219	21663
831.357	21770
831.496	21736
831.635	21507
831.774	21500
831.913	21378
832.051	21344
832.19	21340
832.329	21367
832.467	21393
832.606	21298
832.744	21203
832.883	21332
833.022	21203
833.16	21401
833.299	21294
833.437	21355
833.576	21344
833.714	21260
833.852	21256
833.991	21561
834.129	21458
834.267	21355
834.406	21192
834.544	21408
834.682	21332
834.821	21283
834.959	21367
835.097	21222
835.235	21378
835.373	21268
835.511	21291
835.65	21256
835.788	21252
835.926	21039
836.064	20994
836.202	20990
836.34	21150
836.478	21146
836.615	21184
836.753	21135
836.891	21283
837.029	21199
837.167	20906
837.305	21081
837.443	21013
837.58	21058
837.718	21036
837.856	20967
837.993	20849
838.131	20979
838.269	20952
838.406	20921
838.544	20853
838.681	20575
838.819	20590
838.956	20396
839.094	20511
839.231	20476
839.369	20640
839.506	20804
839.643	20590
839.781	20469
839.918	20370
840.055	20465
840.193	20374
840.33	20309
840.467	20374
840.604	20351
840.742	20648
840.879	20263
841.016	20214
841.153	20218
841.29	20499
841.427	20339
841.564	20271
841.701	20259
841.838	20275
841.975	20176
842.112	20290
842.249	20081
842.385	19997
842.522	20298
842.659	20210
842.796	20016
842.933	20073
843.069	20142
843.206	20050
843.343	20202
843.479	20065
843.616	20046
843.752	19887
843.889	19799
844.025	19951
844.162	19860
844.298	19970
844.435	19894
844.571	19712
844.708	19917
844.844	19982
844.98	19982
845.117	20069
845.253	19841
845.389	19742
845.525	19940
845.661	20054
845.798	20088
845.934	20438
846.07	20495
846.206	20651
846.342	20484
846.478	20081
846.614	19719
846.75	19411
846.886	19419
847.022	19453
847.158	19369
847.294	19293
847.429	19339
847.565	19179
847.701	19533
847.837	18985
847.972	18954
848.108	19084
848.244	19103
848.379	18943
848.515	18901
848.65	18806
848.786	18867
848.921	18867
849.057	18852
849.192	18894
849.328	18875
849.463	18989
849.598	18757
849.734	18677
849.869	18677
850.004	18582
850.14	18597
850.275	18578
850.41	18464
850.545	18578
850.68	18700
850.815	18532
850.95	18604
851.085	18734
851.22	18589
851.355	18555
851.49	18559
851.625	18536
851.76	18578
851.895	18391
852.03	18452
852.165	18589
852.299	18582
852.434	18483
852.569	18597
852.703	18551
852.838	18673
852.973	18707
853.107	18654
853.242	18532
853.376	18395
853.511	18266
853.645	18289
853.78	18528
853.914	18544
854.048	18342
854.183	18380
854.317	18429
854.451	18555
854.585	18388
854.72	18388
854.854	18410
854.988	18350
855.122	18418
855.256	18361
855.39	18471
855.524	18475
855.658	18403
855.792	18403
855.926	18467
856.06	18448
856.194	18494
856.327	18422
856.461	18311
856.595	18369
856.729	18407
856.862	18414
856.996	18456
857.13	18395
857.263	18407
857.397	18589
857.53	18384
857.664	18452
857.797	18414
857.931	18582
858.064	18407
858.197	18418
858.331	18323
858.464	18342
858.597	18304
858.731	18388
858.864	18350
858.997	18209
859.13	18395
859.263	18319
859.396	18350
859.529	18254
859.662	18167
859.795	18300
859.928	18327
860.061	18547
860.194	18544
860.327	18308
860.46	18300
860.592	18311
860.725	18403
860.858	18582
860.99	18201
861.123	18213
861.256	18079
861.388	18376
861.521	19088
861.653	18194
861.786	18106
861.918	18152
862.05	18201
862.183	18304
862.315	18361
862.447	18380
862.58	18213
862.712	18136
862.844	18121
862.976	18201
863.108	18144
863.24	18502
863.372	17999
863.504	18068
863.636	18045
863.768	17996
863.9	18049
864.032	17878
864.164	17931
864.296	18087
864.428	18098
864.559	18136
864.691	18038
864.823	17965
864.954	17935
865.086	18030
865.217	17942
865.349	18053
865.48	17973
865.612	18003
865.743	18015
865.875	17920
866.006	17999
866.137	17904
866.269	17908
866.4	18003
866.531	17931
866.662	17939
866.793	17821
866.924	17859
867.055	17980
867.186	17950
867.317	17901
867.448	17790
867.579	17832
867.71	17874
867.841	17824
867.972	17939
868.103	17893
868.233	17912
868.364	17996
868.495	17992
868.625	18072
868.756	18159
868.886	18064
869.017	18159
869.147	18281
869.278	18205
869.408	18060
869.539	18106
869.669	18213
869.799	18273
869.929	18277
870.06	18220
870.19	18521
870.32	18471
870.45	18509
870.58	18616
870.71	18585
870.84	18631
870.97	18547
871.1	18509
871.23	18642
871.36	18612
871.489	18570
871.619	18673
871.749	18700
871.879	18757
872.008	18894
872.138	18719
872.267	18833
872.397	18681
872.526	18574
872.656	18616
872.785	18601
872.915	18749
873.044	18844
873.173	18810
873.303	18684
873.432	18734
873.561	18894
873.69	18745
873.819	18764
873.948	18909
874.077	18715
874.206	18669
874.335	18722
874.464	18802
874.593	19050
874.722	19004
874.851	19114
874.979	19000
875.108	19034
875.237	19069
875.365	18996
875.494	19027
875.623	19179
875.751	19072
875.88	19038
876.008	19251
876.136	19327
876.265	19460
876.393	19571
876.521	19582
876.65	19556
876.778	19502
876.906	19411
877.034	19400
877.162	19407
877.29	19495
877.418	19578
877.546	19537
877.674	19495
877.802	19422
877.93	19506
878.058	19453
878.185	19259
878.313	19407
878.441	19441
878.568	19335
878.696	19518
878.824	19578
878.951	19696
879.079	19803
879.206	19978
879.333	19967
879.461	19799
879.588	20035
879.715	20046
879.842	20107
879.97	19871
880.097	19582
880.224	19483
880.351	19639
880.478	19563
880.605	19499
880.732	19468
880.859	19647
880.986	19415
881.112	19430
881.239	19255
881.366	19069
881.493	19095
881.619	18958
881.746	19118
881.872	19126
881.999	19031
882.125	19046
882.252	19114
882.378	18935
882.505	19088
882.631	18989
882.757	18840
882.883	18947
883.01	18768
883.136	18776
883.262	18703
883.388	18749
883.514	18730
883.64	18749
883.766	18623
883.892	18521
884.018	18631
884.143	18810
884.269	18871
884.395	18642
884.52	18517
884.646	18551
884.772	18357
884.897	18429
885.023	18517
885.148	18574
885.274	18673
885.399	18585
885.524	18521
885.65	18490
885.775	18410
885.9	18528
886.025	18601
886.15	18410
886.275	18414
886.4	18258
886.525	18433
886.65	18254
886.775	18182
886.9	18456
887.025	18620
887.149	18304
887.274	18091
887.399	18182
887.523	18102
887.648	18076
887.773	18041
887.897	18285
888.021	18228
888.146	18133
888.27	18311
888.395	18194
888.519	18190
888.643	18136
888.767	18239
888.891	18117
889.015	17999
889.139	17984
889.263	17893
889.387	18072
889.511	18258
889.635	18091
889.759	17874
889.883	18015
890.006	17969
890.13	17999
890.254	17809
890.377	17855
890.501	17729
890.624	17745
890.748	17843
890.871	17611
890.995	17493
891.118	17467
891.241	17611
891.364	17558
891.488	17695
891.611	17600
891.734	17532
891.857	17608
891.98	17562
892.103	17771
892.226	17623
892.349	17505
892.471	17391
892.594	17414
892.717	17551
892.839	17436
892.962	17524
893.085	17532
893.207	17512
893.33	17379
893.452	17398
893.575	17592
893.697	17440
893.819	17657
893.941	17676
894.064	17581
894.186	17486
894.308	17433
894.43	17687
894.552	17661
894.674	17604
894.796	17440
894.918	17562
895.04	17459
895.161	17596
895.283	17585
895.405	17490
895.526	17520
895.648	17547
895.769	17547
895.891	17676
896.012	17604
896.134	17543
896.255	17649
896.376	17554
896.498	17668
896.619	17668
896.74	17570
896.861	17642
896.982	18098
897.103	18102
897.224	17802
897.345	17954
897.466	17710
897.587	17859
897.708	17923
897.828	17851
897.949	17824
898.07	17676
898.19	17733
898.311	17980
898.431	17710
898.552	17901
898.672	17931
898.792	17893
898.913	17805
899.033	17737
899.153	17710
899.273	17581
899.393	17718
899.513	17592
899.633	17501
899.753	17668
899.873	17547
899.993	17596
900.113	17646
900.232	17646
900.352	17668
900.472	17630
900.591	17478
900.711	17429
900.83	17410
900.95	17581
901.069	17592
901.189	17395
901.308	17132
901.427	17109
901.546	17025
901.665	17105
901.784	17060
901.904	16915
902.023	16927
902.141	16744
902.26	16519
902.379	16706
902.498	16626
902.617	16542
902.735	16637
902.854	16584
902.973	16489
903.091	16291
903.21	16261
903.328	16291
903.446	16124
903.565	16109
903.683	16040
903.801	16013
903.919	16029
904.038	16086
904.156	15838
904.274	15979
904.392	15899
904.51	15876
904.627	15892
904.745	15892
904.863	15934
904.981	15778
905.098	15530
905.216	15515
905.334	15652
905.451	15587
905.569	15500
905.686	15507
905.803	15542
905.921	15294
906.038	15386
906.155	15367
906.272	15256
906.389	15237
906.506	15058
906.623	15135
906.74	15039
906.857	14979
906.974	14933
907.091	15119
907.208	15287
907.324	15097
907.441	14921
907.557	14857
907.674	14739
907.79	14731
907.907	14727
908.023	14758
908.139	14781
908.256	14625
908.372	14705
908.488	14663
908.604	14537
908.72	14571
908.836	14579
908.952	14400
909.068	14499
909.184	14457
909.3	14465
909.415	14533
909.531	14492
909.647	14271
909.762	14259
909.878	14126
909.993	14134
910.108	14145
910.224	14069
910.339	14157
910.454	14092
910.57	13967
910.685	13944
910.8	14176
910.915	14168
911.03	13963
911.145	13791
911.259	13742
911.374	13860
911.489	13784
911.604	13719
911.718	13616
911.833	13540
911.947	13460
912.062	13430
912.176	13537
912.291	13582
912.405	13556
912.519	13727
912.633	13700
912.748	13590
912.862	13575
912.976	13403
913.09	13209
913.204	13381
913.318	13384
913.431	13495
913.545	13491
913.659	13480
913.772	13384
913.886	13217
914	13255
914.113	13339
914.226	13430
914.34	13324
914.453	13129
914.566	13343
914.68	13168
914.793	13042
914.906	13095
915.019	12905
915.132	12859
915.245	13000
915.358	12962
915.47	12875
915.583	12935
915.696	13110
915.809	13023
915.921	12973
916.034	12871
916.146	12844
916.259	12764
916.371	12928
916.483	12932
916.595	12848
916.708	12817
916.82	12814
916.932	12734
917.044	12817
917.156	12817
917.268	12650
917.38	12677
917.491	12673
917.603	12700
917.715	12745
917.826	12738
917.938	12650
918.049	12486
918.161	12722
918.272	12757
918.384	12779
918.495	12604
918.606	12517
918.717	12327
918.828	12551
918.939	12441
919.05	12426
919.161	12426
919.272	12228
919.383	12311
919.494	12525
919.604	12608
919.715	12391
919.826	12315
919.936	12536
920.047	12433
920.157	12517
920.267	12684
920.378	12441
920.488	12399
920.598	12544
920.708	12711
920.818	12574
920.928	12528
921.038	12703
921.148	12601
921.258	12433
921.368	12311
921.477	12182
921.587	12159
921.697	12068
921.806	12171
921.916	12117
922.025	11958
922.134	11885
922.244	11813
922.353	11946
922.462	11760
922.571	11707
922.68	11547
922.789	11474
922.898	11516
923.007	11414
923.116	11596
923.224	11585
923.333	11459
923.442	11455
923.55	11379
923.659	11383
923.767	11474
923.876	11364
923.984	11383
924.092	11277
924.201	11337
924.309	11315
924.417	11341
924.525	11296
924.633	11288
924.741	12159
924.849	11064
924.956	11223
925.064	11090
925.172	11041
925.279	11033
925.387	11083
925.494	11029
925.602	11273
925.709	11269
925.816	10980
925.924	11048
926.031	11079
926.138	11018
926.245	11025
926.352	10930
926.459	11056
926.566	11098
926.673	10953
926.779	10866
926.886	10733
926.993	10763
927.099	10744
927.206	10683
927.312	10691
927.419	10801
927.525	10634
927.631	10660
927.737	10538
927.843	10634
927.95	10443
928.056	10508
928.162	10588
928.267	10622
928.373	11231
928.479	10630
928.585	10394
928.69	10512
928.796	10538
928.901	10455
929.007	10382
929.112	10512
929.218	10447
929.323	10291
929.428	10329
929.533	10459
929.638	10246
929.743	10325
929.848	10329
929.953	10287
930.058	10166
930.163	10032
930.267	10059
930.372	10192
930.477	10025
930.581	10272
930.685	10105
930.79	9922
930.894	9903
930.998	9899
931.103	10071
931.207	9686
931.311	9720
931.415	9545
931.519	9405
931.623	9367
