Data from test_V78500241_439.txt Node
Date: Fri Mar 25 14:36:46 CST 2022
User: usil
Spectrometer: V785-0024
Trigger mode: 0
Integration Time (sec): 4.000000E-1
Scans to average: 1
Nonlinearity correction enabled: false
Boxcar width: 0
Storing dark spectrum: false
XAxis mode: Wavelengths
Number of Pixels in Spectrum: 1024
>>>>>Begin Spectral Data<<<<<
801.071	26602
801.214	26453
801.356	26313
801.499	26145
801.641	25906
801.783	25970
801.926	26046
802.068	26054
802.211	25890
802.353	25837
802.496	25578
802.638	25544
802.78	25537
802.923	25491
803.065	25384
803.208	25460
803.35	25476
803.492	25563
803.635	25708
803.777	25422
803.919	25567
804.061	25864
804.204	25635
804.346	25483
804.488	25441
804.63	25411
804.773	25308
804.915	25350
805.057	25635
805.199	25510
805.341	25632
805.483	25590
805.626	25613
805.768	25392
805.91	25605
806.052	25620
806.194	25419
806.336	25632
806.478	25468
806.62	25419
806.762	25620
806.904	25811
807.046	25963
807.188	25951
807.33	25818
807.472	25871
807.614	25761
807.756	25780
807.898	25723
808.04	25776
808.182	25700
808.324	25632
808.465	25582
808.607	25868
808.749	26081
808.891	26195
809.033	26157
809.174	26103
809.316	25959
809.458	25947
809.6	25989
809.741	26005
809.883	26024
810.025	26187
810.166	26161
810.308	26225
810.45	26077
810.591	25959
810.733	25944
810.875	25830
811.016	25852
811.158	25750
811.299	25921
811.441	26024
811.582	26107
811.724	25864
811.865	25883
812.007	25860
812.148	25811
812.29	26027
812.431	25944
812.573	26107
812.714	26191
812.855	26301
812.997	26499
813.138	26587
813.279	26541
813.421	26294
813.562	26252
813.703	26119
813.845	25890
813.986	25689
814.127	25499
814.268	25628
814.41	25388
814.551	25407
814.692	25415
814.833	25312
814.974	25377
815.115	25339
815.256	25137
815.397	25228
815.539	25217
815.68	25194
815.821	25152
815.962	25228
816.103	25168
816.244	24928
816.385	24871
816.526	24890
816.666	24692
816.807	24574
816.948	24597
817.089	24661
817.23	24627
817.371	24551
817.512	24642
817.653	24448
817.793	24372
817.934	24582
818.075	24452
818.216	24604
818.356	24380
818.497	24467
818.638	24273
818.778	24254
818.919	24197
819.06	24247
819.2	24334
819.341	24353
819.481	24418
819.622	24555
819.762	24684
819.903	24642
820.043	24635
820.184	24525
820.324	24505
820.465	24597
820.605	24521
820.746	24563
820.886	24384
821.026	24422
821.167	24429
821.307	24760
821.447	24346
821.588	24372
821.728	24190
821.868	23977
822.008	24015
822.149	23832
822.289	23756
822.429	23672
822.569	23547
822.709	23592
822.849	23280
822.99	23299
823.13	23417
823.27	23231
823.41	23071
823.55	23067
823.69	23178
823.83	23098
823.97	23060
824.11	22797
824.25	22866
824.389	22691
824.529	22889
824.669	22820
824.809	22999
824.949	22946
825.089	22915
825.228	22972
825.368	22691
825.508	22622
825.648	22713
825.787	22664
825.927	22835
826.067	22542
826.206	22557
826.346	22687
826.485	22691
826.625	22645
826.765	22675
826.904	22679
827.044	22478
827.183	22333
827.323	22375
827.462	22451
827.601	22230
827.741	22428
827.88	22390
828.02	22405
828.159	22265
828.298	22390
828.437	22398
828.577	22238
828.716	22474
828.855	22310
828.994	22109
829.134	22169
829.273	22128
829.412	22017
829.551	21979
829.69	22025
829.829	22055
829.968	22109
830.107	22124
830.246	22059
830.385	21968
830.524	21937
830.663	21865
830.802	21713
830.941	21557
831.08	21686
831.219	21667
831.357	21671
831.496	21774
831.635	21599
831.774	21583
831.913	21591
832.051	21450
832.19	21466
832.329	21458
832.467	21214
832.606	21367
832.744	21165
832.883	21241
833.022	21085
833.16	21252
833.299	21428
833.437	21264
833.576	21313
833.714	21401
833.852	21386
833.991	21214
834.129	21435
834.267	21287
834.406	21233
834.544	21439
834.682	21291
834.821	21249
834.959	21511
835.097	21287
835.235	21214
835.373	21199
835.511	21272
835.65	21093
835.788	21062
835.926	21100
836.064	20895
836.202	20925
836.34	21176
836.478	21199
836.615	21138
836.753	21169
836.891	21161
837.029	21116
837.167	21085
837.305	21074
837.443	21005
837.58	21074
837.718	20971
837.856	21138
837.993	21001
838.131	20872
838.269	20891
838.406	20868
838.544	20697
838.681	20511
838.819	20579
838.956	20537
839.094	20450
839.231	20522
839.369	20594
839.506	20785
839.643	20682
839.781	20446
839.918	20469
840.055	20473
840.193	20358
840.33	20434
840.467	20286
840.604	20408
840.742	20552
840.879	20240
841.016	20183
841.153	20221
841.29	20518
841.427	20408
841.564	20225
841.701	20400
841.838	20313
841.975	20336
842.112	20229
842.249	20126
842.385	20096
842.522	20256
842.659	20107
842.796	19989
842.933	20001
843.069	20012
843.206	20065
843.343	20058
843.479	20168
843.616	20024
843.752	19833
843.889	19799
844.025	20008
844.162	19738
844.298	19959
844.435	19780
844.571	19799
844.708	19898
844.844	19955
844.98	19982
845.117	19864
845.253	19780
845.389	19658
845.525	19871
845.661	19776
845.798	19601
845.934	19620
846.07	19613
846.206	19613
846.342	19780
846.478	19620
846.614	19453
846.75	19331
846.886	19457
847.022	19445
847.158	19411
847.294	19217
847.429	19343
847.565	19228
847.701	19480
847.837	19034
847.972	19057
848.108	19080
848.244	19012
848.379	18871
848.515	18829
848.65	18795
848.786	18833
848.921	18779
849.057	18897
849.192	18993
849.328	18909
849.463	18852
849.598	18829
849.734	18711
849.869	18688
850.004	18551
850.14	18669
850.275	18730
850.41	18532
850.545	18593
850.68	18627
850.815	18502
850.95	18486
851.085	18692
851.22	18707
851.355	18639
851.49	18498
851.625	18452
851.76	18589
851.895	18551
852.03	18521
852.165	18601
852.299	18525
852.434	18650
852.569	18700
852.703	18490
852.838	18502
852.973	18757
853.107	18635
853.242	18525
853.376	18399
853.511	18285
853.645	18338
853.78	18525
853.914	18437
854.048	18365
854.183	18346
854.317	18422
854.451	18585
854.585	18384
854.72	18369
854.854	18483
854.988	18346
855.122	18429
855.256	18414
855.39	18346
855.524	18395
855.658	18464
855.792	18418
855.926	18445
856.06	18426
856.194	18426
856.327	18369
856.461	18361
856.595	18266
856.729	18380
856.862	18521
856.996	18490
857.13	18486
857.263	18399
857.397	18483
857.53	18315
857.664	18376
857.797	18536
857.931	18452
858.064	18365
858.197	18532
858.331	18338
858.464	18311
858.597	18266
858.731	18380
858.864	18437
858.997	18353
859.13	18342
859.263	18365
859.396	18464
859.529	18311
859.662	18342
859.795	18273
859.928	18338
860.061	18426
860.194	18498
860.327	18296
860.46	18311
860.592	18475
860.725	18490
860.858	18517
860.99	18330
861.123	18258
861.256	18273
861.388	18334
861.521	19057
861.653	18140
861.786	18129
861.918	18228
862.05	18262
862.183	18357
862.315	18395
862.447	18464
862.58	18342
862.712	18197
862.844	18098
862.976	18182
863.108	18076
863.24	18589
863.372	18030
863.504	18060
863.636	18095
863.768	18045
863.9	18015
864.032	17950
864.164	18049
864.296	18121
864.428	18174
864.559	18102
864.691	18060
864.823	18194
864.954	18125
865.086	18117
865.217	18007
865.349	17908
865.48	17988
865.612	17973
865.743	18045
865.875	18003
866.006	18022
866.137	18068
866.269	17931
866.4	17973
866.531	17885
866.662	17901
866.793	17901
866.924	17874
867.055	17912
867.186	17946
867.317	17916
867.448	17775
867.579	17961
867.71	17824
867.841	17832
867.972	17950
868.103	18045
868.233	18038
868.364	17840
868.495	17904
868.625	18163
868.756	18197
868.886	18133
869.017	18110
869.147	18285
869.278	18262
869.408	18174
869.539	18171
869.669	18159
869.799	18194
869.929	18258
870.06	18232
870.19	18475
870.32	18437
870.45	18555
870.58	18483
870.71	18574
870.84	18650
870.97	18593
871.1	18711
871.23	18703
871.36	18829
871.489	18582
871.619	18669
871.749	18635
871.879	18730
872.008	18882
872.138	18787
872.267	18764
872.397	18654
872.526	18703
872.656	18517
872.785	18654
872.915	18745
873.044	18757
873.173	18779
873.303	18764
873.432	18909
873.561	18894
873.69	18783
873.819	18875
873.948	18833
874.077	18738
874.206	18772
874.335	18810
874.464	18909
874.593	19004
874.722	18985
874.851	19069
874.979	19061
875.108	19069
875.237	19183
875.365	19042
875.494	19034
875.623	19126
875.751	18985
875.88	19118
876.008	19259
876.136	19346
876.265	19373
876.393	19552
876.521	19514
876.65	19605
876.778	19502
876.906	19339
877.034	19472
877.162	19434
877.29	19426
877.418	19457
877.546	19540
877.674	19449
877.802	19537
877.93	19552
878.058	19411
878.185	19419
878.313	19483
878.441	19403
878.568	19236
878.696	19350
878.824	19419
878.951	19575
879.079	19647
879.206	19731
879.333	19521
879.461	19476
879.588	19491
879.715	19594
879.842	19769
879.97	19586
880.097	19282
880.224	19362
880.351	19350
880.478	19316
880.605	19202
880.732	19301
880.859	19453
880.986	19335
881.112	19289
881.239	19145
881.366	19080
881.493	18993
881.619	18897
881.746	18970
881.872	18817
881.999	18962
882.125	19012
882.252	18973
882.378	18913
882.505	19114
882.631	18798
882.757	18726
882.883	18829
883.01	18639
883.136	18696
883.262	18604
883.388	18547
883.514	18669
883.64	18810
883.766	18684
883.892	18365
884.018	18578
884.143	18654
884.269	18711
884.395	18502
884.52	18369
884.646	18407
884.772	18243
884.897	18232
885.023	18327
885.148	18467
885.274	18460
885.399	18422
885.524	18441
885.65	18376
885.775	18418
885.9	18281
886.025	18433
886.15	18407
886.275	18216
886.4	18258
886.525	18330
886.65	18159
886.775	18247
886.9	18418
887.025	18601
887.149	18254
887.274	18194
887.399	18087
887.523	18068
887.648	18117
887.773	18026
887.897	18087
888.021	18155
888.146	18095
888.27	18209
888.395	18194
888.519	18243
888.643	18106
888.767	18209
888.891	18083
889.015	17946
889.139	18060
889.263	17901
889.387	18015
889.511	17999
889.635	18015
889.759	17908
889.883	17851
890.006	17950
890.13	17965
890.254	17851
890.377	17790
890.501	17722
890.624	17680
890.748	17802
890.871	17562
890.995	17573
891.118	17497
891.241	17520
891.364	17463
891.488	17684
891.611	17581
891.734	17478
891.857	17463
891.98	17608
892.103	17554
892.226	17596
892.349	17535
892.471	17242
892.594	17490
892.717	17512
892.839	17539
892.962	17551
893.085	17596
893.207	17512
893.33	17387
893.452	17440
893.575	17524
893.697	17421
893.819	17657
893.941	17714
894.064	17668
894.186	17379
894.308	17512
894.43	17604
894.552	17687
894.674	17558
894.796	17383
894.918	17516
895.04	17535
895.161	17554
895.283	17493
895.405	17429
895.526	17474
895.648	17634
895.769	17627
895.891	17581
896.012	17619
896.134	17703
896.255	17528
896.376	17505
896.498	17566
896.619	17600
896.74	17577
896.861	17630
896.982	17927
897.103	18072
897.224	17870
897.345	17828
897.466	17775
897.587	17828
897.708	17973
897.828	17828
897.949	17752
898.07	17748
898.19	17767
898.311	17840
898.431	17786
898.552	17870
898.672	17889
898.792	17798
898.913	17931
899.033	17577
899.153	17718
899.273	17509
899.393	17611
899.513	17585
899.633	17668
899.753	17539
899.873	17676
899.993	17611
900.113	17623
900.232	17570
900.352	17551
900.472	17497
900.591	17334
900.711	17497
900.83	17341
900.95	17558
901.069	17440
901.189	17410
901.308	17151
901.427	17067
901.546	17090
901.665	17018
901.784	17140
901.904	16869
902.023	16858
902.141	16584
902.26	16622
902.379	16679
902.498	16512
902.617	16462
902.735	16546
902.854	16481
902.973	16413
903.091	16341
903.21	16230
903.328	16394
903.446	16200
903.565	16074
903.683	16181
903.801	15899
903.919	16063
904.038	16059
904.156	15835
904.274	15915
904.392	15717
904.51	15816
904.627	15857
904.745	15975
904.863	15884
904.981	15675
905.098	15488
905.216	15584
905.334	15557
905.451	15439
905.569	15469
905.686	15614
905.803	15572
905.921	15344
906.038	15545
906.155	15355
906.272	15230
906.389	15287
906.506	15119
906.623	15142
906.74	15058
906.857	14883
906.974	15051
907.091	15108
907.208	15291
907.324	15089
907.441	14979
907.557	14853
907.674	14807
907.79	14781
907.907	14731
908.023	14811
908.139	14792
908.256	14758
908.372	14754
908.488	14663
908.604	14507
908.72	14492
908.836	14415
908.952	14446
909.068	14537
909.184	14549
909.3	14461
909.415	14610
909.531	14446
909.647	14271
909.762	14168
909.878	14336
909.993	14176
910.108	14237
910.224	14111
910.339	14214
910.454	14103
910.57	14024
910.685	14065
910.8	14233
910.915	14145
911.03	13970
911.145	13898
911.259	13849
911.374	13833
911.489	13700
911.604	13761
911.718	13620
911.833	13537
911.947	13468
912.062	13434
912.176	13544
912.291	13636
912.405	13620
912.519	13780
912.633	13704
912.748	13609
912.862	13632
912.976	13422
913.09	13301
913.204	13324
913.318	13377
913.431	13563
913.545	13518
913.659	13575
913.772	13483
913.886	13289
914	13324
914.113	13335
914.226	13335
914.34	13426
914.453	13213
914.566	13255
914.68	13206
914.793	13202
914.906	13012
915.019	12943
915.132	12844
915.245	12935
915.358	13038
915.47	12966
915.583	12962
915.696	13027
915.809	13164
915.921	13168
916.034	13046
916.146	12966
916.259	12859
916.371	12924
916.483	12951
916.595	12886
916.708	12909
916.82	12863
916.932	12810
917.044	12726
917.156	12840
917.268	12696
917.38	12730
917.491	12749
917.603	12726
917.715	12871
917.826	12829
917.938	12730
918.049	12635
918.161	12700
918.272	12749
918.384	12795
918.495	12741
918.606	12551
918.717	12498
918.828	12483
918.939	12593
919.05	12471
919.161	12471
919.272	12315
919.383	12403
919.494	12574
919.604	12639
919.715	12502
919.826	12414
919.936	12517
920.047	12662
920.157	12536
920.267	12673
920.378	12528
920.488	12513
920.598	12608
920.708	12943
920.818	12669
920.928	12692
921.038	12821
921.148	12726
921.258	12540
921.368	12365
921.477	12262
921.587	12319
921.697	12159
921.806	12285
921.916	12152
922.025	11901
922.134	11901
922.244	11954
922.353	12011
922.462	11786
922.571	11882
922.68	11608
922.789	11497
922.898	11623
923.007	11600
923.116	11691
923.224	11547
923.333	11577
923.442	11448
923.55	11448
923.659	11414
923.767	11520
923.876	11463
923.984	11516
924.092	11345
924.201	11410
924.309	11391
924.417	11330
924.525	11372
924.633	11364
924.741	12258
924.849	11166
924.956	11433
925.064	11174
925.172	11128
925.279	11090
925.387	11140
925.494	11117
925.602	11250
925.709	11185
925.816	11121
925.924	11094
926.031	11227
926.138	11052
926.245	11151
926.352	10987
926.459	11159
926.566	11174
926.673	10995
926.779	10923
926.886	10915
926.993	10752
927.099	10786
927.206	10725
927.312	10664
927.419	10797
927.525	10767
927.631	10805
927.737	10683
927.843	10588
927.95	10538
928.056	10538
928.162	10603
928.267	10637
928.373	11261
928.479	10733
928.585	10443
928.69	10599
928.796	10596
928.901	10474
929.007	10261
929.112	10459
929.218	10451
929.323	10451
929.428	10367
929.533	10474
929.638	10276
929.743	10455
929.848	10455
929.953	10333
930.058	10196
930.163	10063
930.267	10101
930.372	10200
930.477	10120
930.581	10272
930.685	10150
930.79	9998
930.894	9934
930.998	10044
931.103	10082
931.207	9778
931.311	9728
931.415	9675
931.519	9420
931.623	9408
