Data from test_V78500241_155.txt Node
Date: Fri Mar 25 14:34:48 CST 2022
User: usil
Spectrometer: V785-0024
Trigger mode: 0
Integration Time (sec): 4.000000E-1
Scans to average: 1
Nonlinearity correction enabled: false
Boxcar width: 0
Storing dark spectrum: false
XAxis mode: Wavelengths
Number of Pixels in Spectrum: 1024
>>>>>Begin Spectral Data<<<<<
801.071	29455
801.214	29254
801.356	29033
801.499	29006
801.641	28763
801.783	28763
801.926	28892
802.068	28816
802.211	28698
802.353	28637
802.496	28557
802.638	28470
802.78	28451
802.923	28356
803.065	28295
803.208	28367
803.35	28299
803.492	28615
803.635	28637
803.777	28386
803.919	28683
804.061	28744
804.204	28580
804.346	28504
804.488	28478
804.63	28615
804.773	28310
804.915	28603
805.057	28694
805.199	28584
805.341	28668
805.483	28725
805.626	28858
805.768	28672
805.91	28786
806.052	28869
806.194	28824
806.336	29166
806.478	28919
806.62	28968
806.762	29136
806.904	29406
807.046	29570
807.188	29665
807.33	29722
807.472	29954
807.614	30091
807.756	30353
807.898	30608
808.04	30875
808.182	31460
808.324	32256
808.465	33089
808.607	34120
808.749	34892
808.891	35421
809.033	35330
809.174	34691
809.316	33895
809.458	32982
809.6	31963
809.741	31620
809.883	30989
810.025	30738
810.166	30486
810.308	30281
810.45	30015
810.591	29901
810.733	29577
810.875	29592
811.016	29315
811.158	29356
811.299	29398
811.441	29334
811.582	29356
811.724	29242
811.865	29010
812.007	29094
812.148	29102
812.29	29185
812.431	29307
812.573	29395
812.714	29478
812.855	29589
812.997	29589
813.138	29710
813.279	29630
813.421	29391
813.562	29258
813.703	29113
813.845	29060
813.986	28729
814.127	28672
814.268	28668
814.41	28603
814.551	28512
814.692	28546
814.833	28550
814.974	28436
815.115	28519
815.256	28371
815.397	28485
815.539	28318
815.68	28303
815.821	28150
815.962	28169
816.103	28169
816.244	27975
816.385	27975
816.526	27789
816.666	27732
816.807	27530
816.948	27545
817.089	27667
817.23	27568
817.371	27504
817.512	27431
817.653	27530
817.793	27431
817.934	27519
818.075	27447
818.216	27481
818.356	27504
818.497	27389
818.638	27138
818.778	27268
818.919	27180
819.06	27291
819.2	27214
819.341	27420
819.481	27511
819.622	27675
819.762	27804
819.903	27690
820.043	27576
820.184	27572
820.324	27374
820.465	27534
820.605	27443
820.746	27412
820.886	27169
821.026	27458
821.167	27329
821.307	27340
821.447	27416
821.588	27332
821.728	27093
821.868	27104
822.008	26887
822.149	26773
822.289	26712
822.429	26461
822.569	26377
822.709	26419
822.849	26267
822.99	26298
823.13	26058
823.27	26065
823.41	26092
823.55	25936
823.69	26027
823.83	25982
823.97	25959
824.11	25750
824.25	25685
824.389	25757
824.529	25944
824.669	25837
824.809	25871
824.949	25917
825.089	25731
825.228	25795
825.368	25670
825.508	25685
825.648	25521
825.787	25700
825.927	25742
826.067	25651
826.206	25620
826.346	25582
826.485	25670
826.625	25533
826.765	25700
826.904	25609
827.044	25396
827.183	25373
827.323	25213
827.462	25187
827.601	25377
827.741	25217
827.88	25255
828.02	25069
828.159	25270
828.298	25141
828.437	25301
828.577	25129
828.716	25411
828.855	25110
828.994	24920
829.134	25042
829.273	25008
829.412	24985
829.551	24806
829.69	24848
829.829	24989
829.968	25038
830.107	24996
830.246	24863
830.385	24871
830.524	24787
830.663	24688
830.802	24490
830.941	24551
831.08	24410
831.219	24559
831.357	24563
831.496	24661
831.635	24551
831.774	24251
831.913	24289
832.051	24277
832.19	24296
832.329	24422
832.467	24232
832.606	24144
832.744	24239
832.883	24292
833.022	24060
833.16	24152
833.299	24258
833.437	24213
833.576	24277
833.714	24391
833.852	24429
833.991	24494
834.129	24593
834.267	24471
834.406	24403
834.544	24433
834.682	24517
834.821	24277
834.959	24410
835.097	24197
835.235	24311
835.373	24254
835.511	24205
835.65	24057
835.788	24026
835.926	23790
836.064	23805
836.202	23760
836.34	23999
836.478	24064
836.615	23878
836.753	23870
836.891	23999
837.029	23984
837.167	23859
837.305	23847
837.443	23726
837.58	23665
837.718	23687
837.856	23832
837.993	23573
838.131	23836
838.269	23615
838.406	23596
838.544	23619
838.681	23292
838.819	23376
838.956	23197
839.094	23151
839.231	23212
839.369	23124
839.506	23520
839.643	23376
839.781	23067
839.918	23098
840.055	23117
840.193	23094
840.33	22976
840.467	22972
840.604	23064
840.742	23265
840.879	22869
841.016	22934
841.153	22877
841.29	23064
841.427	22900
841.564	23117
841.701	22953
841.838	22934
841.975	22786
842.112	22919
842.249	22744
842.385	22710
842.522	23022
842.659	22771
842.796	22771
842.933	22615
843.069	22694
843.206	22755
843.343	22763
843.479	22748
843.616	22812
843.752	22466
843.889	22588
844.025	22645
844.162	22535
844.298	22698
844.435	22683
844.571	22634
844.708	22759
844.844	22965
844.98	23121
845.117	23102
845.253	23273
845.389	23589
845.525	24513
845.661	25982
845.798	27842
845.934	29258
846.07	29939
846.206	29741
846.342	28599
846.478	26621
846.614	24928
846.75	23657
846.886	23014
847.022	22805
847.158	22478
847.294	22284
847.429	22204
847.565	22097
847.701	22280
847.837	21827
847.972	21644
848.108	21812
848.244	21842
848.379	21675
848.515	21477
848.65	21561
848.786	21496
848.921	21561
849.057	21591
849.192	21523
849.328	21473
849.463	21363
849.598	21252
849.734	21329
849.869	21344
850.004	21176
850.14	21214
850.275	21192
850.41	21138
850.545	21116
850.68	21135
850.815	21237
850.95	21157
851.085	21192
851.22	21252
851.355	21214
851.49	21131
851.625	21165
851.76	21077
851.895	20990
852.03	21051
852.165	21043
852.299	21310
852.434	21207
852.569	21138
852.703	21218
852.838	21279
852.973	21302
853.107	21272
853.242	21070
853.376	21077
853.511	20857
853.645	21077
853.78	21195
853.914	21123
854.048	21108
854.183	21085
854.317	21051
854.451	21188
854.585	21017
854.72	21093
854.854	21112
854.988	20971
855.122	21020
855.256	20971
855.39	21096
855.524	21169
855.658	20979
855.792	21108
855.926	21055
856.06	21043
856.194	21081
856.327	20849
856.461	20929
856.595	20792
856.729	20948
856.862	20921
856.996	21032
857.13	20998
857.263	21028
857.397	20994
857.53	20845
857.664	20902
857.797	20990
857.931	20914
858.064	20891
858.197	20910
858.331	20823
858.464	20861
858.597	20629
858.731	20792
858.864	20864
858.997	20739
859.13	20914
859.263	20971
859.396	21001
859.529	20807
859.662	20830
859.795	20845
859.928	20967
860.061	20921
860.194	21093
860.327	20792
860.46	20785
860.592	21005
860.725	20971
860.858	21055
860.99	20849
861.123	20849
861.256	20891
861.388	20777
861.521	21580
861.653	20720
861.786	20651
861.918	20743
862.05	20663
862.183	20921
862.315	20883
862.447	20933
862.58	20750
862.712	20678
862.844	20750
862.976	20636
863.108	20617
863.24	20921
863.372	20602
863.504	20484
863.636	20651
863.768	20575
863.9	20560
864.032	20454
864.164	20385
864.296	20454
864.428	20571
864.559	20454
864.691	20678
864.823	20454
864.954	20511
865.086	20522
865.217	20594
865.349	20389
865.48	20419
865.612	20366
865.743	20556
865.875	20381
866.006	20404
866.137	20374
866.269	20446
866.4	20476
866.531	20339
866.662	20442
866.793	20393
866.924	20412
867.055	20252
867.186	20278
867.317	20446
867.448	20366
867.579	20385
867.71	20252
867.841	20271
867.972	20278
868.103	20434
868.233	20415
868.364	20336
868.495	20324
868.625	20575
868.756	20686
868.886	20590
869.017	20488
869.147	20644
869.278	20602
869.408	20606
869.539	20613
869.669	20644
869.799	20522
869.929	20693
870.06	20720
870.19	20906
870.32	20891
870.45	20849
870.58	21024
870.71	21096
870.84	21195
870.97	20804
871.1	21062
871.23	21249
871.36	21188
871.489	21043
871.619	21135
871.749	21214
871.879	21252
872.008	21325
872.138	21154
872.267	21119
872.397	21127
872.526	21081
872.656	21214
872.785	21009
872.915	21214
873.044	21272
873.173	21321
873.303	21142
873.432	21389
873.561	21511
873.69	21382
873.819	21268
873.948	21344
874.077	21359
874.206	21279
874.335	21279
874.464	21424
874.593	21660
874.722	21511
874.851	21507
874.979	21663
875.108	21713
875.237	21439
875.365	21431
875.494	21644
875.623	21686
875.751	21538
875.88	21644
876.008	21876
876.136	21854
876.265	22070
876.393	22238
876.521	22192
876.65	22295
876.778	22268
876.906	22147
877.034	22299
877.162	22128
877.29	22139
877.418	22200
877.546	22238
877.674	22291
877.802	22325
877.93	22291
878.058	22382
878.185	22356
878.313	22432
878.441	22599
878.568	22519
878.696	22809
878.824	23109
878.951	23292
879.079	23794
879.206	24441
879.333	24867
879.461	25434
879.588	25708
879.715	25738
879.842	25658
879.97	24909
880.097	24133
880.224	23733
880.351	23531
880.478	23197
880.605	23025
880.732	22961
880.859	23033
880.986	22797
881.112	22801
881.239	22691
881.366	22504
881.493	22379
881.619	22413
881.746	22440
881.872	22375
881.999	22390
882.125	22398
882.252	22295
882.378	22402
882.505	22519
882.631	22348
882.757	22234
882.883	22257
883.01	22291
883.136	22120
883.262	21975
883.388	22093
883.514	22177
883.64	22059
883.766	22200
883.892	21949
884.018	21884
884.143	22097
884.269	22200
884.395	21949
884.52	21838
884.646	21926
884.772	21652
884.897	21793
885.023	21831
885.148	21895
885.274	21979
885.399	21953
885.524	21736
885.65	21618
885.775	21637
885.9	21644
886.025	21591
886.15	21526
886.275	21530
886.4	21317
886.525	21424
886.65	21287
886.775	21351
886.9	21466
887.025	21679
887.149	21146
887.274	21192
887.399	21005
887.523	21096
887.648	20918
887.773	20910
887.897	21089
888.021	21020
888.146	20769
888.27	20902
888.395	20967
888.519	20918
888.643	20872
888.767	20895
888.891	20769
889.015	20648
889.139	20686
889.263	20541
889.387	20689
889.511	20758
889.635	20689
889.759	20560
889.883	20434
890.006	20495
890.13	20583
890.254	20317
890.377	20385
890.501	20339
890.624	20237
890.748	20336
890.871	20256
890.995	19974
891.118	20027
891.241	19970
891.364	19978
891.488	20119
891.611	20016
891.734	19982
891.857	20069
891.98	20069
892.103	20058
892.226	19959
892.349	19963
892.471	19803
892.594	19887
892.717	19913
892.839	19788
892.962	19936
893.085	19993
893.207	19871
893.33	19795
893.452	19791
893.575	19906
893.697	19734
893.819	19928
893.941	20005
894.064	19955
894.186	19803
894.308	19635
894.43	19868
894.552	19925
894.674	19898
894.796	19677
894.918	19643
895.04	19674
895.161	19845
895.283	19818
895.405	19769
895.526	19742
895.648	19712
895.769	19708
895.891	19738
896.012	19849
896.134	19784
896.255	19727
896.376	19635
896.498	19727
896.619	19731
896.74	19765
896.861	19913
896.982	20062
897.103	20237
897.224	20031
897.345	20088
897.466	19940
897.587	19913
897.708	20122
897.828	19963
897.949	19830
898.07	19769
898.19	19814
898.311	20039
898.431	19791
898.552	19902
898.672	19936
898.792	20020
898.913	19902
899.033	19738
899.153	19674
899.273	19590
899.393	19578
899.513	19651
899.633	19651
899.753	19609
899.873	19613
899.993	19666
900.113	19658
900.232	19609
900.352	19586
900.472	19407
900.591	19476
900.711	19525
900.83	19369
900.95	19483
901.069	19453
901.189	19293
901.308	19244
901.427	19118
901.546	19122
901.665	19038
901.784	19042
901.904	19012
902.023	18798
902.141	18566
902.26	18559
902.379	18608
902.498	18426
902.617	18467
902.735	18506
902.854	18486
902.973	18422
903.091	18228
903.21	18186
903.328	18174
903.446	18034
903.565	17984
903.683	18072
903.801	17927
903.919	18026
904.038	17908
904.156	17813
904.274	17794
904.392	17592
904.51	17608
904.627	17699
904.745	17672
904.863	17707
904.981	17547
905.098	17299
905.216	17280
905.334	17326
905.451	17448
905.569	17258
905.686	17486
905.803	17265
905.921	17056
906.038	17143
906.155	17181
906.272	17033
906.389	17025
906.506	16866
906.623	16862
906.74	16873
906.857	16763
906.974	16752
907.091	16850
907.208	16949
907.324	16949
907.441	16786
907.557	16626
907.674	16531
907.79	16535
907.907	16451
908.023	16558
908.139	16588
908.256	16546
908.372	16542
908.488	16447
908.604	16329
908.72	16173
908.836	16246
908.952	16257
909.068	16226
909.184	16299
909.3	16185
909.415	16173
909.531	16238
909.647	15991
909.762	15983
909.878	15869
909.993	15903
910.108	15819
910.224	15838
910.339	15926
910.454	15842
910.57	15846
910.685	15603
910.8	15979
910.915	15903
911.03	15720
911.145	15477
911.259	15481
911.374	15591
911.489	15511
911.604	15363
911.718	15214
911.833	15344
911.947	15135
912.062	15119
912.176	15157
912.291	15207
912.405	15226
912.519	15386
912.633	15351
912.748	15329
912.862	15169
912.976	15089
913.09	14971
913.204	15036
913.318	15108
913.431	15116
913.545	15230
913.659	15142
913.772	15081
913.886	14963
914	14979
914.113	15039
914.226	14956
914.34	14941
914.453	14750
914.566	14910
914.68	14804
914.793	14735
914.906	14575
915.019	14495
915.132	14488
915.245	14549
915.358	14556
915.47	14450
915.583	14564
915.696	14480
915.809	14636
915.921	14587
916.034	14480
916.146	14415
916.259	14408
916.371	14503
916.483	14454
916.595	14427
916.708	14404
916.82	14324
916.932	14370
917.044	14324
917.156	14324
917.268	14221
917.38	14225
917.491	14199
917.603	14221
917.715	14305
917.826	14278
917.938	14103
918.049	13887
918.161	14062
918.272	14218
918.384	14252
918.495	14027
918.606	13974
918.717	13883
918.828	13970
918.939	13989
919.05	13864
919.161	13845
919.272	13731
919.383	13685
919.494	13849
919.604	14084
919.715	13944
919.826	13902
919.936	13753
920.047	13944
920.157	13837
920.267	14069
920.378	13902
920.488	13833
920.598	14081
920.708	14187
920.818	14046
920.928	13799
921.038	14168
921.148	13993
921.258	13803
921.368	13761
921.477	13552
921.587	13674
921.697	13544
921.806	13639
921.916	13468
922.025	13312
922.134	13236
922.244	13179
922.353	13213
922.462	13126
922.571	13099
922.68	12932
922.789	12954
922.898	12973
923.007	12901
923.116	13046
923.224	12829
923.333	12882
923.442	12722
923.55	12776
923.659	12684
923.767	12741
923.876	12749
923.984	12776
924.092	12570
924.201	12692
924.309	12623
924.417	12582
924.525	12479
924.633	12616
924.741	13438
924.849	12323
924.956	12563
925.064	12369
925.172	12369
925.279	12342
925.387	12441
925.494	12388
925.602	12414
925.709	12338
925.816	12270
925.924	12277
926.031	12296
926.138	12220
926.245	12346
926.352	12213
926.459	12319
926.566	12323
926.673	12247
926.779	12053
926.886	12159
926.993	11980
927.099	11980
927.206	11767
927.312	11847
927.419	11961
927.525	11961
927.631	11813
927.737	11813
927.843	11726
927.95	11646
928.056	11707
928.162	11866
928.267	11821
928.373	12330
928.479	11817
928.585	11585
928.69	11684
928.796	11779
928.901	11703
929.007	11364
929.112	11596
929.218	11573
929.323	11554
929.428	11410
929.533	11608
929.638	11433
929.743	11406
929.848	11528
929.953	11425
930.058	11334
930.163	11143
930.267	11288
930.372	11337
930.477	11067
930.581	11280
930.685	11242
930.79	11029
930.894	11083
930.998	11060
931.103	11170
931.207	10797
931.311	10752
931.415	10649
931.519	10474
931.623	10459
