Data from test_V78500241_1462.txt Node
Date: Fri Mar 25 14:43:53 CST 2022
User: usil
Spectrometer: V785-0024
Trigger mode: 0
Integration Time (sec): 4.000000E-1
Scans to average: 1
Nonlinearity correction enabled: false
Boxcar width: 0
Storing dark spectrum: false
XAxis mode: Wavelengths
Number of Pixels in Spectrum: 1024
>>>>>Begin Spectral Data<<<<<
801.071	22542
801.214	22382
801.356	21960
801.499	22059
801.641	21759
801.783	21759
801.926	21785
802.068	21789
802.211	21591
802.353	21481
802.496	21519
802.638	21332
802.78	21180
802.923	21226
803.065	21123
803.208	21154
803.35	21180
803.492	21256
803.635	21260
803.777	21157
803.919	21127
804.061	21367
804.204	21188
804.346	21116
804.488	20967
804.63	21043
804.773	21009
804.915	21096
805.057	21165
805.199	21074
805.341	21173
805.483	21161
805.626	21127
805.768	21058
805.91	21100
806.052	21096
806.194	20880
806.336	21188
806.478	20990
806.62	20872
806.762	21173
806.904	21367
807.046	21488
807.188	21439
807.33	21393
807.472	21420
807.614	21435
807.756	21386
807.898	21382
808.04	21195
808.182	21298
808.324	21351
808.465	21374
808.607	21530
808.749	21675
808.891	21732
809.033	21835
809.174	21629
809.316	21660
809.458	21545
809.6	21572
809.741	21603
809.883	21637
810.025	21698
810.166	21778
810.308	21637
810.45	21603
810.591	21587
810.733	21401
810.875	21302
811.016	21199
811.158	21119
811.299	21211
811.441	21393
811.582	21405
811.724	21291
811.865	21233
812.007	21154
812.148	21214
812.29	21283
812.431	21374
812.573	21549
812.714	21576
812.855	21622
812.997	21846
813.138	21987
813.279	21846
813.421	21713
813.562	21549
813.703	21534
813.845	21420
813.986	21093
814.127	20998
814.268	20849
814.41	20944
814.551	20785
814.692	20826
814.833	20819
814.974	20765
815.115	20804
815.256	20549
815.397	20587
815.539	20598
815.68	20511
815.821	20518
815.962	20461
816.103	20526
816.244	20514
816.385	20195
816.526	20221
816.666	19978
816.807	19932
816.948	20062
817.089	20043
817.23	20024
817.371	20046
817.512	19963
817.653	19898
817.793	20039
817.934	19947
818.075	19883
818.216	19925
818.356	19871
818.497	19689
818.638	19510
818.778	19635
818.919	19601
819.06	19685
819.2	19803
819.341	19833
819.481	19814
819.622	19944
819.762	20206
819.903	20065
820.043	19951
820.184	19982
820.324	19909
820.465	19993
820.605	19890
820.746	19822
820.886	19826
821.026	19826
821.167	19921
821.307	19894
821.447	19822
821.588	19750
821.728	19624
821.868	19499
822.008	19301
822.149	19236
822.289	19297
822.429	19076
822.569	19050
822.709	18985
822.849	18821
822.99	18768
823.13	18642
823.27	18623
823.41	18665
823.55	18498
823.69	18494
823.83	18601
823.97	18502
824.11	18452
824.25	18357
824.389	18338
824.529	18464
824.669	18395
824.809	18490
824.949	18513
825.089	18410
825.228	18426
825.368	18273
825.508	18136
825.648	18190
825.787	18254
825.927	18262
826.067	18144
826.206	18159
826.346	18174
826.485	18216
826.625	18254
826.765	18277
826.904	18171
827.044	17954
827.183	17946
827.323	17779
827.462	17939
827.601	17775
827.741	17923
827.88	17882
828.02	17771
828.159	17779
828.298	17935
828.437	17885
828.577	17710
828.716	17901
828.855	17813
828.994	17596
829.134	17535
829.273	17585
829.412	17608
829.551	17482
829.69	17547
829.829	17649
829.968	17668
830.107	17562
830.246	17619
830.385	17512
830.524	17471
830.663	17417
830.802	17280
830.941	17220
831.08	17231
831.219	17311
831.357	17261
831.496	17455
831.635	17223
831.774	17086
831.913	17067
832.051	17003
832.19	17033
832.329	17109
832.467	16881
832.606	16854
832.744	16919
832.883	16869
833.022	16843
833.16	16877
833.299	16946
833.437	16923
833.576	16934
833.714	16919
833.852	17056
833.991	16938
834.129	17022
834.267	16984
834.406	16915
834.544	16892
834.682	17003
834.821	16949
834.959	17166
835.097	16961
835.235	17067
835.373	17025
835.511	16968
835.65	16949
835.788	16835
835.926	16801
836.064	16698
836.202	16596
836.34	16854
836.478	16873
836.615	16721
836.753	16862
836.891	16919
837.029	16824
837.167	16771
837.305	16767
837.443	16717
837.58	16611
837.718	16847
837.856	16763
837.993	16584
838.131	16767
838.269	16573
838.406	16649
838.544	16596
838.681	16287
838.819	16402
838.956	16177
839.094	16173
839.231	16314
839.369	16325
839.506	16592
839.643	16489
839.781	16188
839.918	16234
840.055	16261
840.193	16192
840.33	16238
840.467	16246
840.604	16219
840.742	16371
840.879	16177
841.016	16101
841.153	16082
841.29	16325
841.427	16291
841.564	16272
841.701	16242
841.838	16207
841.975	16162
842.112	16097
842.249	16078
842.385	16082
842.522	16226
842.659	16040
842.796	15953
842.933	16017
843.069	15842
843.206	15998
843.343	16112
843.479	15998
843.616	16093
843.752	15766
843.889	15770
844.025	15880
844.162	15774
844.298	15930
844.435	15842
844.571	15819
844.708	15937
844.844	15972
844.98	16029
845.117	15964
845.253	15728
845.389	15736
845.525	15823
845.661	15842
845.798	15774
845.934	15850
846.07	15846
846.206	15903
846.342	15964
846.478	15888
846.614	15606
846.75	15302
846.886	15313
847.022	15439
847.158	15466
847.294	15287
847.429	15386
847.565	15416
847.701	15606
847.837	15169
847.972	15138
848.108	15199
848.244	15218
848.379	14994
848.515	14971
848.65	14914
848.786	14887
848.921	14948
849.057	15081
849.192	15100
849.328	15001
849.463	15051
849.598	14910
849.734	14842
849.869	14876
850.004	14693
850.14	14845
850.275	14792
850.41	14712
850.545	14712
850.68	14670
850.815	14731
850.95	14712
851.085	14880
851.22	14762
851.355	14663
851.49	14625
851.625	14651
851.76	14697
851.895	14629
852.03	14583
852.165	14632
852.299	14724
852.434	14853
852.569	14765
852.703	14785
852.838	14811
852.973	14960
853.107	14887
853.242	14629
853.376	14556
853.511	14454
853.645	14526
853.78	14724
853.914	14583
854.048	14488
854.183	14469
854.317	14689
854.451	14743
854.585	14632
854.72	14537
854.854	14674
854.988	14526
855.122	14552
855.256	14446
855.39	14594
855.524	14758
855.658	14651
855.792	14587
855.926	14621
856.06	14686
856.194	14724
856.327	14556
856.461	14568
856.595	14526
856.729	14480
856.862	14594
856.996	14598
857.13	14693
857.263	14621
857.397	14674
857.53	14610
857.664	14587
857.797	14758
857.931	14632
858.064	14613
858.197	14686
858.331	14594
858.464	14583
858.597	14492
858.731	14537
858.864	14571
858.997	14590
859.13	14617
859.263	14655
859.396	14705
859.529	14632
859.662	14503
859.795	14552
859.928	14625
860.061	14727
860.194	14716
860.327	14663
860.46	14518
860.592	14655
860.725	14689
860.858	14579
860.99	14617
861.123	14560
861.256	14587
861.388	14583
861.521	15176
861.653	14480
861.786	14450
861.918	14427
862.05	14488
862.183	14655
862.315	14549
862.447	14526
862.58	14564
862.712	14301
862.844	14317
862.976	14480
863.108	14427
863.24	14876
863.372	14286
863.504	14351
863.636	14415
863.768	14396
863.9	14366
864.032	14393
864.164	14339
864.296	14480
864.428	14514
864.559	14404
864.691	14389
864.823	14355
864.954	14450
865.086	14385
865.217	14389
865.349	14259
865.48	14294
865.612	14389
865.743	14571
865.875	14434
866.006	14355
866.137	14332
866.269	14282
866.4	14290
866.531	14476
866.662	14259
866.793	14408
866.924	14286
867.055	14366
867.186	14431
867.317	14294
867.448	14278
867.579	14240
867.71	14423
867.841	14275
867.972	14408
868.103	14404
868.233	14396
868.364	14431
868.495	14377
868.625	14545
868.756	14769
868.886	14579
869.017	14549
869.147	14724
869.278	14758
869.408	14610
869.539	14644
869.669	14667
869.799	14670
869.929	14613
870.06	14705
870.19	14967
870.32	14986
870.45	14994
870.58	15013
870.71	15066
870.84	15214
870.97	14982
871.1	15085
871.23	15207
871.36	15226
871.489	15131
871.619	15203
871.749	15195
871.879	15237
872.008	15340
872.138	15298
872.267	15287
872.397	15135
872.526	14998
872.656	15085
872.785	15001
872.915	15222
873.044	15348
873.173	15192
873.303	15264
873.432	15256
873.561	15355
873.69	15272
873.819	15226
873.948	15386
874.077	15241
874.206	15203
874.335	15348
874.464	15405
874.593	15568
874.722	15530
874.851	15667
874.979	15545
875.108	15603
875.237	15545
875.365	15420
875.494	15511
875.623	15663
875.751	15587
875.88	15606
876.008	15709
876.136	15785
876.265	16059
876.393	16188
876.521	16017
876.65	16036
876.778	16055
876.906	15915
877.034	15945
877.162	15956
877.29	15975
877.418	15998
877.546	15968
877.674	15979
877.802	15991
877.93	15998
878.058	15953
878.185	15850
878.313	16029
878.441	15956
878.568	15865
878.696	15918
878.824	16150
878.951	16074
879.079	16192
879.206	16382
879.333	16265
879.461	16196
879.588	16207
879.715	16371
879.842	16360
879.97	16215
880.097	15949
880.224	15918
880.351	15937
880.478	15979
880.605	15903
880.732	15880
880.859	16036
880.986	15915
881.112	15846
881.239	15823
881.366	15743
881.493	15553
881.619	15485
881.746	15530
881.872	15625
881.999	15412
882.125	15481
882.252	15580
882.378	15507
882.505	15625
882.631	15439
882.757	15382
882.883	15374
883.01	15359
883.136	15275
883.262	15199
883.388	15218
883.514	15298
883.64	15450
883.766	15291
883.892	15184
884.018	15230
884.143	15367
884.269	15435
884.395	15074
884.52	15020
884.646	15093
884.772	15017
884.897	14952
885.023	15020
885.148	15161
885.274	15222
885.399	15043
885.524	15009
885.65	15039
885.775	15028
885.9	14990
886.025	15062
886.15	15039
886.275	14963
886.4	14937
886.525	14990
886.65	14876
886.775	15013
886.9	15074
887.025	15207
887.149	14998
887.274	14914
887.399	14731
887.523	14762
887.648	14823
887.773	14792
887.897	14952
888.021	14902
888.146	14819
888.27	14906
888.395	14887
888.519	14918
888.643	14944
888.767	14929
888.891	14826
889.015	14674
889.139	14720
889.263	14659
889.387	14868
889.511	14963
889.635	14735
889.759	14743
889.883	14689
890.006	14762
890.13	14830
890.254	14648
890.377	14708
890.501	14480
890.624	14522
890.748	14648
890.871	14442
890.995	14438
891.118	14294
891.241	14393
891.364	14358
891.488	14560
891.611	14275
891.734	14419
891.857	14324
891.98	14396
892.103	14457
892.226	14343
892.349	14294
892.471	14191
892.594	14294
892.717	14431
892.839	14389
892.962	14370
893.085	14457
893.207	14305
893.33	14259
893.452	14328
893.575	14389
893.697	14465
893.819	14507
893.941	14598
894.064	14488
894.186	14389
894.308	14351
894.43	14568
894.552	14663
894.674	14590
894.796	14339
894.918	14385
895.04	14320
895.161	14518
895.283	14568
895.405	14431
895.526	14446
895.648	14503
895.769	14533
895.891	14526
896.012	14606
896.134	14590
896.255	14587
896.376	14518
896.498	14530
896.619	14636
896.74	14594
896.861	14617
896.982	14899
897.103	14967
897.224	14834
897.345	14937
897.466	14765
897.587	14807
897.708	15005
897.828	14868
897.949	14785
898.07	14682
898.19	14811
898.311	14948
898.431	14838
898.552	14872
898.672	15009
898.792	14990
898.913	14971
899.033	14735
899.153	14864
899.273	14610
899.393	14708
899.513	14788
899.633	14811
899.753	14796
899.873	14629
899.993	14800
900.113	14750
900.232	14716
900.352	14830
900.472	14731
900.591	14636
900.711	14735
900.83	14598
900.95	14731
901.069	14724
901.189	14537
901.308	14381
901.427	14275
901.546	14294
901.665	14301
901.784	14336
901.904	14164
902.023	14103
902.141	13978
902.26	13830
902.379	13841
902.498	13879
902.617	13811
902.735	13833
902.854	13845
902.973	13799
903.091	13594
903.21	13567
903.328	13544
903.446	13533
903.565	13422
903.683	13441
903.801	13350
903.919	13392
904.038	13407
904.156	13297
904.274	13251
904.392	13247
904.51	13244
904.627	13285
904.745	13244
904.863	13247
904.981	13065
905.098	12939
905.216	12852
905.334	12989
905.451	12886
905.569	12894
905.686	12993
905.803	12840
905.921	12669
906.038	12783
906.155	12738
906.272	12642
906.389	12696
906.506	12475
906.623	12490
906.74	12551
906.857	12441
906.974	12513
907.091	12532
907.208	12570
907.324	12555
907.441	12391
907.557	12292
907.674	12235
907.79	12285
907.907	12232
908.023	12281
908.139	12178
908.256	12159
908.372	12239
908.488	12095
908.604	12053
908.72	11935
908.836	12015
908.952	12019
909.068	12057
909.184	12175
909.3	12049
909.415	12079
909.531	12064
909.647	11737
909.762	11809
909.878	11733
909.993	11764
910.108	11760
910.224	11752
910.339	11748
910.454	11714
910.57	11623
910.685	11581
910.8	11855
910.915	11783
911.03	11646
911.145	11535
911.259	11444
911.374	11421
911.489	11337
911.604	11376
911.718	11307
911.833	11223
911.947	11056
912.062	11102
912.176	11239
912.291	11208
912.405	11204
912.519	11387
912.633	11395
912.748	11189
912.862	11223
912.976	11052
913.09	10930
913.204	11033
913.318	11022
913.431	11254
913.545	11140
913.659	11201
913.772	10987
913.886	11033
914	10961
914.113	11098
914.226	11124
914.34	10984
914.453	10892
914.566	11029
914.68	10889
914.793	10904
914.906	10748
915.019	10729
915.132	10637
915.245	10683
915.358	10839
915.47	10714
915.583	10748
915.696	10767
915.809	10938
915.921	10873
916.034	10653
916.146	10706
916.259	10653
916.371	10729
916.483	10717
916.595	10554
916.708	10615
916.82	10592
916.932	10584
917.044	10535
917.156	10474
917.268	10569
917.38	10531
917.491	10504
917.603	10546
917.715	10603
917.826	10615
917.938	10462
918.049	10379
918.161	10470
918.272	10717
918.384	10622
918.495	10577
918.606	10443
918.717	10402
918.828	10478
918.939	10428
919.05	10306
919.161	10379
919.272	10188
919.383	10291
919.494	10493
919.604	10531
919.715	10386
919.826	10360
919.936	10440
920.047	10466
920.157	10413
920.267	10687
920.378	10413
920.488	10360
920.598	10577
920.708	10725
920.818	10588
920.928	10615
921.038	10687
921.148	10759
921.258	10402
921.368	10341
921.477	10246
921.587	10287
921.697	10192
921.806	10303
921.916	10139
922.025	9960
922.134	9949
922.244	9903
922.353	9994
922.462	9838
922.571	9789
922.68	9599
922.789	9625
922.898	9660
923.007	9568
923.116	9671
923.224	9660
923.333	9591
923.442	9572
923.55	9526
923.659	9523
923.767	9576
923.876	9542
923.984	9519
924.092	9435
924.201	9572
924.309	9458
924.417	9443
924.525	9500
924.633	9485
924.741	10329
924.849	9294
924.956	9428
925.064	9291
925.172	9207
925.279	9260
925.387	9310
925.494	9302
925.602	9439
925.709	9420
925.816	9199
925.924	9298
926.031	9420
926.138	9340
926.245	9329
926.352	9241
926.459	9310
926.566	9428
926.673	9192
926.779	9093
926.886	9135
926.993	9013
927.099	9017
927.206	8963
927.312	8998
927.419	9043
927.525	8944
927.631	8963
927.737	9020
927.843	8975
927.95	8811
928.056	8895
928.162	8921
928.267	8891
928.373	9538
928.479	9005
928.585	8724
928.69	8914
928.796	8948
928.901	8834
929.007	8682
929.112	8834
929.218	8800
929.323	8743
929.428	8766
929.533	8861
929.638	8655
929.743	8701
929.848	8750
929.953	8689
930.058	8659
930.163	8450
930.267	8499
930.372	8617
930.477	8492
930.581	8766
930.685	8583
930.79	8408
930.894	8412
930.998	8393
931.103	8530
931.207	8256
931.311	8134
931.415	8084
931.519	7894
931.623	7883
