Data from test_V78500241_2682.txt Node
Date: Fri Mar 25 14:52:23 CST 2022
User: usil
Spectrometer: V785-0024
Trigger mode: 0
Integration Time (sec): 4.000000E-1
Scans to average: 1
Nonlinearity correction enabled: false
Boxcar width: 0
Storing dark spectrum: false
XAxis mode: Wavelengths
Number of Pixels in Spectrum: 1024
>>>>>Begin Spectral Data<<<<<
801.071	22032
801.214	21865
801.356	21523
801.499	21595
801.641	21454
801.783	21252
801.926	21382
802.068	21287
802.211	21218
802.353	21180
802.496	20921
802.638	20883
802.78	20895
802.923	20792
803.065	20674
803.208	20583
803.35	20640
803.492	20887
803.635	20895
803.777	20663
803.919	20906
804.061	20918
804.204	20705
804.346	20492
804.488	20511
804.63	20644
804.773	20530
804.915	20556
805.057	20613
805.199	20590
805.341	20636
805.483	20663
805.626	20617
805.768	20606
805.91	20697
806.052	20651
806.194	20541
806.336	20640
806.478	20602
806.62	20499
806.762	20587
806.904	20800
807.046	20998
807.188	20883
807.33	20952
807.472	20956
807.614	20807
807.756	20941
807.898	20701
808.04	20598
808.182	20670
808.324	20644
808.465	20746
808.607	20777
808.749	20925
808.891	21131
809.033	21070
809.174	21089
809.316	20880
809.458	20902
809.6	20880
809.741	20834
809.883	20994
810.025	21055
810.166	21077
810.308	21081
810.45	21051
810.591	21047
810.733	20826
810.875	20785
811.016	20682
811.158	20655
811.299	20876
811.441	20849
811.582	20891
811.724	20720
811.865	20682
812.007	20731
812.148	20526
812.29	20651
812.431	20853
812.573	21055
812.714	21051
812.855	21195
812.997	21359
813.138	21397
813.279	21359
813.421	21112
813.562	21070
813.703	20979
813.845	20834
813.986	20594
814.127	20339
814.268	20377
814.41	20263
814.551	20218
814.692	20305
814.833	20195
814.974	20157
815.115	20248
815.256	20115
815.397	20058
815.539	20145
815.68	19982
815.821	19902
815.962	19932
816.103	20043
816.244	19864
816.385	19704
816.526	19635
816.666	19567
816.807	19480
816.948	19449
817.089	19620
817.23	19445
817.371	19350
817.512	19415
817.653	19354
817.793	19369
817.934	19403
818.075	19411
818.216	19407
818.356	19415
818.497	19187
818.638	19076
818.778	19091
818.919	19046
819.06	19103
819.2	19175
819.341	19187
819.481	19251
819.622	19320
819.762	19552
819.903	19407
820.043	19400
820.184	19415
820.324	19388
820.465	19472
820.605	19419
820.746	19274
820.886	19225
821.026	19377
821.167	19270
821.307	19312
821.447	19320
821.588	19129
821.728	19091
821.868	19061
822.008	18798
822.149	18844
822.289	18814
822.429	18604
822.569	18483
822.709	18517
822.849	18262
822.99	18220
823.13	18350
823.27	18216
823.41	18140
823.55	18083
823.69	18015
823.83	18079
823.97	17950
824.11	17870
824.25	17847
824.389	17794
824.529	17832
824.669	17794
824.809	17927
824.949	17977
825.089	17908
825.228	17786
825.368	17710
825.508	17657
825.648	17783
825.787	17665
825.927	17684
826.067	17634
826.206	17630
826.346	17756
826.485	17714
826.625	17535
826.765	17764
826.904	17608
827.044	17429
827.183	17364
827.323	17341
827.462	17501
827.601	17273
827.741	17284
827.88	17353
828.02	17250
828.159	17311
828.298	17402
828.437	17421
828.577	17288
828.716	17364
828.855	17322
828.994	17086
829.134	17102
829.273	17185
829.412	16953
829.551	17159
829.69	17117
829.829	17136
829.968	17132
830.107	17197
830.246	17064
830.385	17128
830.524	16915
830.663	16930
830.802	16919
830.941	16763
831.08	16634
831.219	16889
831.357	16809
831.496	16904
831.635	16645
831.774	16641
831.913	16542
832.051	16462
832.19	16470
832.329	16550
832.467	16451
832.606	16371
832.744	16462
832.883	16405
833.022	16390
833.16	16470
833.299	16394
833.437	16508
833.576	16478
833.714	16447
833.852	16489
833.991	16512
834.129	16565
834.267	16451
834.406	16371
834.544	16360
834.682	16611
834.821	16447
834.959	16656
835.097	16531
835.235	16580
835.373	16447
835.511	16451
835.65	16295
835.788	16451
835.926	16276
836.064	16162
836.202	16158
836.34	16303
836.478	16527
836.615	16379
836.753	16398
836.891	16455
837.029	16402
837.167	16386
837.305	16356
837.443	16268
837.58	16234
837.718	16421
837.856	16333
837.993	16352
838.131	16280
838.269	16185
838.406	16238
838.544	16169
838.681	16006
838.819	16021
838.956	15671
839.094	15755
839.231	15850
839.369	15941
839.506	16246
839.643	16044
839.781	15793
839.918	15808
840.055	15899
840.193	15743
840.33	15846
840.467	15846
840.604	15800
840.742	16086
840.879	15614
841.016	15660
841.153	15663
841.29	15911
841.427	15884
841.564	15846
841.701	15812
841.838	15857
841.975	15713
842.112	15823
842.249	15564
842.385	15572
842.522	15800
842.659	15698
842.796	15492
842.933	15576
843.069	15656
843.206	15545
843.343	15682
843.479	15564
843.616	15545
843.752	15439
843.889	15401
844.025	15641
844.162	15386
844.298	15428
844.435	15420
844.571	15325
844.708	15523
844.844	15622
844.98	15606
845.117	15496
845.253	15325
845.389	15374
845.525	15374
845.661	15260
845.798	15188
845.934	15188
846.07	15192
846.206	15211
846.342	15336
846.478	15180
846.614	15001
846.75	15032
846.886	14921
847.022	15093
847.158	14921
847.294	14948
847.429	15020
847.565	15032
847.701	15230
847.837	14674
847.972	14773
848.108	14830
848.244	14743
848.379	14655
848.515	14533
848.65	14518
848.786	14503
848.921	14571
849.057	14651
849.192	14648
849.328	14659
849.463	14571
849.598	14488
849.734	14503
849.869	14389
850.004	14328
850.14	14267
850.275	14370
850.41	14259
850.545	14180
850.68	14339
850.815	14396
850.95	14294
851.085	14476
851.22	14396
851.355	14381
851.49	14267
851.625	14263
851.76	14229
851.895	14138
852.03	14183
852.165	14393
852.299	14320
852.434	14431
852.569	14404
852.703	14332
852.838	14385
852.973	14511
853.107	14507
853.242	14393
853.376	14225
853.511	14119
853.645	14111
853.78	14229
853.914	14267
854.048	14149
854.183	14149
854.317	14210
854.451	14396
854.585	14298
854.72	14168
854.854	14332
854.988	14096
855.122	14149
855.256	14065
855.39	14054
855.524	14282
855.658	14172
855.792	14221
855.926	14271
856.06	14233
856.194	14343
856.327	14214
856.461	14164
856.595	14202
856.729	14233
856.862	14336
856.996	14199
857.13	14275
857.263	14278
857.397	14263
857.53	14248
857.664	14214
857.797	14267
857.931	14324
858.064	14317
858.197	14355
858.331	14164
858.464	14138
858.597	14096
858.731	14187
858.864	14157
858.997	14092
859.13	14180
859.263	14221
859.396	14328
859.529	14111
859.662	14240
859.795	14142
859.928	14157
860.061	14347
860.194	14393
860.327	14199
860.46	14237
860.592	14244
860.725	14278
860.858	14320
860.99	14145
861.123	14130
861.256	14168
861.388	14145
861.521	14883
861.653	14054
861.786	14088
861.918	14103
862.05	14172
862.183	14096
862.315	14195
862.447	14290
862.58	14134
862.712	13883
862.844	13986
862.976	14100
863.108	14005
863.24	14370
863.372	13986
863.504	13921
863.636	14020
863.768	14088
863.9	13997
864.032	13936
864.164	13879
864.296	14065
864.428	14130
864.559	14084
864.691	14119
864.823	14168
864.954	13989
865.086	13959
865.217	13974
865.349	13909
865.48	14039
865.612	14020
865.743	14123
865.875	14039
866.006	13932
866.137	14020
866.269	14012
866.4	13986
866.531	13932
866.662	13947
866.793	14005
866.924	14043
867.055	14039
867.186	14024
867.317	13974
867.448	13814
867.579	13902
867.71	13986
867.841	14016
867.972	13986
868.103	13951
868.233	14005
868.364	14005
868.495	14134
868.625	14176
868.756	14389
868.886	14100
869.017	14256
869.147	14332
869.278	14355
869.408	14286
869.539	14275
869.669	14305
869.799	14336
869.929	14389
870.06	14438
870.19	14552
870.32	14625
870.45	14568
870.58	14708
870.71	14682
870.84	14792
870.97	14617
871.1	14720
871.23	14937
871.36	14830
871.489	14708
871.619	14781
871.749	14902
871.879	14883
872.008	14986
872.138	14918
872.267	14826
872.397	14716
872.526	14712
872.656	14758
872.785	14777
872.915	14811
873.044	14963
873.173	14933
873.303	14963
873.432	14895
873.561	15020
873.69	14880
873.819	14857
873.948	15055
874.077	14975
874.206	15013
874.335	14948
874.464	15032
874.593	15264
874.722	15157
874.851	15169
874.979	15214
875.108	15329
875.237	15199
875.365	15173
875.494	15199
875.623	15302
875.751	15142
875.88	15279
876.008	15382
876.136	15500
876.265	15667
876.393	15736
876.521	15694
876.65	15728
876.778	15717
876.906	15606
877.034	15591
877.162	15690
877.29	15454
877.418	15610
877.546	15709
877.674	15606
877.802	15545
877.93	15606
878.058	15542
878.185	15576
878.313	15652
878.441	15587
878.568	15492
878.696	15587
878.824	15584
878.951	15629
879.079	15831
879.206	15968
879.333	15797
879.461	15724
879.588	15698
879.715	15762
879.842	16006
879.97	15755
880.097	15416
880.224	15481
880.351	15481
880.478	15515
880.605	15435
880.732	15367
880.859	15736
880.986	15492
881.112	15515
881.239	15408
881.366	15211
881.493	15161
881.619	15176
881.746	15272
881.872	15097
881.999	15036
882.125	15142
882.252	15264
882.378	15173
882.505	15431
882.631	15058
882.757	14971
882.883	15051
883.01	14956
883.136	14868
883.262	14838
883.388	14716
883.514	14956
883.64	15020
883.766	15081
883.892	14788
884.018	14686
884.143	14998
884.269	15051
884.395	14701
884.52	14655
884.646	14731
884.772	14594
884.897	14613
885.023	14754
885.148	14701
885.274	14788
885.399	14781
885.524	14712
885.65	14594
885.775	14735
885.9	14644
886.025	14769
886.15	14674
886.275	14644
886.4	14667
886.525	14625
886.65	14610
886.775	14537
886.9	14773
887.025	14921
887.149	14712
887.274	14613
887.399	14473
887.523	14442
887.648	14469
887.773	14351
887.897	14461
888.021	14579
888.146	14457
888.27	14636
888.395	14648
888.519	14583
888.643	14651
888.767	14488
888.891	14427
889.015	14336
889.139	14400
889.263	14419
889.387	14495
889.511	14533
889.635	14518
889.759	14381
889.883	14385
890.006	14412
890.13	14522
890.254	14305
890.377	14313
890.501	14210
890.624	14107
890.748	14252
890.871	14210
890.995	14065
891.118	13955
891.241	14153
891.364	14050
891.488	14214
891.611	14027
891.734	14046
891.857	14119
891.98	14054
892.103	14149
892.226	14096
892.349	13978
892.471	14008
892.594	13986
892.717	14195
892.839	14020
892.962	14046
893.085	14195
893.207	13989
893.33	13803
893.452	14016
893.575	14172
893.697	14027
893.819	14320
893.941	14343
894.064	14214
894.186	14043
894.308	14062
894.43	14199
894.552	14282
894.674	14180
894.796	14062
894.918	14096
895.04	14027
895.161	14225
895.283	14218
895.405	14126
895.526	14153
895.648	14161
895.769	14202
895.891	14351
896.012	14298
896.134	14157
896.255	14286
896.376	14244
896.498	14229
896.619	14278
896.74	14240
896.861	14324
896.982	14610
897.103	14735
897.224	14507
897.345	14511
897.466	14358
897.587	14473
897.708	14568
897.828	14495
897.949	14408
898.07	14374
898.19	14476
898.311	14511
898.431	14530
898.552	14587
898.672	14594
898.792	14610
898.913	14689
899.033	14469
899.153	14377
899.273	14347
899.393	14434
899.513	14457
899.633	14484
899.753	14541
899.873	14343
899.993	14419
900.113	14415
900.232	14469
900.352	14389
900.472	14305
900.591	14278
900.711	14362
900.83	14229
900.95	14442
901.069	14320
901.189	14221
901.308	14001
901.427	13955
901.546	13982
901.665	13982
901.784	13898
901.904	13799
902.023	13750
902.141	13586
902.26	13605
902.379	13525
902.498	13628
902.617	13453
902.735	13578
902.854	13544
902.973	13514
903.091	13312
903.21	13274
903.328	13247
903.446	13171
903.565	13118
903.683	13015
903.801	13050
903.919	13069
904.038	12962
904.156	12993
904.274	12996
904.392	12958
904.51	12886
904.627	12848
904.745	12981
904.863	13000
904.981	12688
905.098	12635
905.216	12627
905.334	12532
905.451	12734
905.569	12604
905.686	12631
905.803	12639
905.921	12471
906.038	12490
906.155	12502
906.272	12308
906.389	12448
906.506	12262
906.623	12273
906.74	12216
906.857	12133
906.974	12114
907.091	12273
907.208	12395
907.324	12277
907.441	12140
907.557	11977
907.674	12049
907.79	11840
907.907	11950
908.023	12034
908.139	11961
908.256	11965
908.372	11889
908.488	11885
908.604	11707
908.72	11672
908.836	11726
908.952	11756
909.068	11649
909.184	11824
909.3	11741
909.415	11775
909.531	11764
909.647	11566
909.762	11573
909.878	11501
909.993	11558
910.108	11391
910.224	11425
910.339	11425
910.454	11391
910.57	11322
910.685	11269
910.8	11463
910.915	11547
911.03	11379
911.145	11280
911.259	11166
911.374	11292
911.489	11151
911.604	11025
911.718	10923
911.833	10953
911.947	10839
912.062	10790
912.176	11022
912.291	10896
912.405	10999
912.519	11185
912.633	11166
912.748	11056
912.862	10965
912.976	10786
913.09	10710
913.204	10748
913.318	10900
913.431	10904
913.545	10892
913.659	11010
913.772	10843
913.886	10736
914	10694
914.113	10816
914.226	10873
914.34	10736
914.453	10672
914.566	10771
914.68	10717
914.793	10664
914.906	10531
915.019	10379
915.132	10390
915.245	10428
915.358	10481
915.47	10546
915.583	10497
915.696	10516
915.809	10634
915.921	10649
916.034	10375
916.146	10386
916.259	10481
916.371	10542
916.483	10542
916.595	10356
916.708	10424
916.82	10474
916.932	10382
917.044	10386
917.156	10367
917.268	10265
917.38	10341
917.491	10287
917.603	10341
917.715	10409
917.826	10360
917.938	10246
918.049	10181
918.161	10394
918.272	10493
918.384	10417
918.495	10268
918.606	10207
918.717	10139
918.828	10162
918.939	10196
919.05	10158
919.161	10135
919.272	9979
919.383	10010
919.494	10284
919.604	10428
919.715	10173
919.826	10158
919.936	10215
920.047	10265
920.157	10230
920.267	10367
920.378	10131
920.488	10276
920.598	10436
920.708	10527
920.818	10363
920.928	10432
921.038	10565
921.148	10500
921.258	10207
921.368	10105
921.477	10078
921.587	10036
921.697	9937
921.806	10112
921.916	9915
922.025	9831
922.134	9751
922.244	9667
922.353	9797
922.462	9690
922.571	9492
922.68	9416
922.789	9507
922.898	9481
923.007	9416
923.116	9485
923.224	9420
923.333	9507
923.442	9397
923.55	9321
923.659	9370
923.767	9473
923.876	9321
923.984	9412
924.092	9237
924.201	9294
924.309	9325
924.417	9306
924.525	9222
924.633	9291
924.741	10029
924.849	9055
924.956	9260
925.064	9138
925.172	8986
925.279	9047
925.387	9157
925.494	9100
925.602	9325
925.709	9123
925.816	9009
925.924	9157
926.031	9199
926.138	9070
926.245	9119
926.352	9058
926.459	9161
926.566	9146
926.673	9100
926.779	8933
926.886	8891
926.993	8887
927.099	8800
927.206	8712
927.312	8720
927.419	8883
927.525	8826
927.631	8910
927.737	8712
927.843	8697
927.95	8613
928.056	8667
928.162	8739
928.267	8785
928.373	9340
928.479	8788
928.585	8625
928.69	8708
928.796	8701
928.901	8640
929.007	8457
929.112	8663
929.218	8629
929.323	8552
929.428	8495
929.533	8625
929.638	8537
929.743	8514
929.848	8587
929.953	8526
930.058	8419
930.163	8279
930.267	8282
930.372	8465
930.477	8305
930.581	8469
930.685	8396
930.79	8199
930.894	8290
930.998	8199
931.103	8434
931.207	8077
931.311	7997
931.415	7917
931.519	7833
931.623	7780
