Data from test_V78500241_2268.txt Node
Date: Fri Mar 25 14:49:30 CST 2022
User: usil
Spectrometer: V785-0024
Trigger mode: 0
Integration Time (sec): 4.000000E-1
Scans to average: 1
Nonlinearity correction enabled: false
Boxcar width: 0
Storing dark spectrum: false
XAxis mode: Wavelengths
Number of Pixels in Spectrum: 1024
>>>>>Begin Spectral Data<<<<<
801.071	22120
801.214	22059
801.356	21846
801.499	21827
801.641	21720
801.783	21603
801.926	21671
802.068	21572
802.211	21420
802.353	21351
802.496	21096
802.638	21119
802.78	20975
802.923	20971
803.065	20979
803.208	20758
803.35	20910
803.492	21043
803.635	21051
803.777	20880
803.919	21009
804.061	21329
804.204	21043
804.346	20838
804.488	20746
804.63	20891
804.773	20906
804.915	20880
805.057	20933
805.199	20815
805.341	20834
805.483	20971
805.626	20868
805.768	20785
805.91	20929
806.052	20899
806.194	20716
806.336	20971
806.478	20811
806.62	20739
806.762	20868
806.904	21051
807.046	21233
807.188	21195
807.33	21192
807.472	21260
807.614	21051
807.756	21039
807.898	21081
808.04	20906
808.182	20845
808.324	20944
808.465	20982
808.607	21066
808.749	21237
808.891	21397
809.033	21321
809.174	21340
809.316	21249
809.458	21222
809.6	21188
809.741	21313
809.883	21340
810.025	21408
810.166	21374
810.308	21310
810.45	21264
810.591	21135
810.733	21272
810.875	21165
811.016	20929
811.158	20963
811.299	21039
811.441	21085
811.582	21089
811.724	20979
811.865	20861
812.007	20982
812.148	21028
812.29	21028
812.431	21112
812.573	21401
812.714	21401
812.855	21466
812.997	21614
813.138	21629
813.279	21641
813.421	21599
813.562	21408
813.703	21294
813.845	21100
813.986	20815
814.127	20735
814.268	20617
814.41	20564
814.551	20473
814.692	20655
814.833	20461
814.974	20465
815.115	20537
815.256	20305
815.397	20434
815.539	20465
815.68	20271
815.821	20240
815.962	20358
816.103	20214
816.244	20210
816.385	20111
816.526	20065
816.666	19887
816.807	19700
816.948	19925
817.089	19750
817.23	19704
817.371	19685
817.512	19818
817.653	19674
817.793	19632
817.934	19639
818.075	19772
818.216	19670
818.356	19586
818.497	19468
818.638	19274
818.778	19419
818.919	19350
819.06	19354
819.2	19453
819.341	19544
819.481	19563
819.622	19651
819.762	19921
819.903	19822
820.043	19643
820.184	19719
820.324	19495
820.465	19632
820.605	19643
820.746	19761
820.886	19480
821.026	19597
821.167	19647
821.307	19727
821.447	19480
821.588	19544
821.728	19400
821.868	19148
822.008	19137
822.149	18981
822.289	19076
822.429	18916
822.569	18787
822.709	18715
822.849	18555
822.99	18509
823.13	18509
823.27	18445
823.41	18410
823.55	18361
823.69	18311
823.83	18369
823.97	18224
824.11	18026
824.25	18213
824.389	18178
824.529	18209
824.669	18117
824.809	18311
824.949	18174
825.089	18117
825.228	18022
825.368	17946
825.508	17923
825.648	17843
825.787	18030
825.927	17973
826.067	17771
826.206	17756
826.346	17885
826.485	17851
826.625	17908
826.765	18011
826.904	17958
827.044	17672
827.183	17684
827.323	17562
827.462	17703
827.601	17630
827.741	17535
827.88	17554
828.02	17440
828.159	17532
828.298	17596
828.437	17642
828.577	17619
828.716	17592
828.855	17608
828.994	17433
829.134	17250
829.273	17326
829.412	17235
829.551	17307
829.69	17353
829.829	17334
829.968	17406
830.107	17273
830.246	17364
830.385	17193
830.524	17200
830.663	17155
830.802	16991
830.941	17003
831.08	16911
831.219	16858
831.357	16953
831.496	17239
831.635	16858
831.774	16862
831.913	16896
832.051	16672
832.19	16706
832.329	16752
832.467	16630
832.606	16546
832.744	16577
832.883	16607
833.022	16542
833.16	16531
833.299	16618
833.437	16622
833.576	16668
833.714	16687
833.852	16710
833.991	16603
834.129	16748
834.267	16710
834.406	16622
834.544	16660
834.682	16672
834.821	16691
834.959	16790
835.097	16573
835.235	16805
835.373	16596
835.511	16607
835.65	16523
835.788	16538
835.926	16573
836.064	16352
836.202	16405
836.34	16546
836.478	16561
836.615	16485
836.753	16618
836.891	16485
837.029	16634
837.167	16421
837.305	16470
837.443	16428
837.58	16291
837.718	16500
837.856	16440
837.993	16424
838.131	16402
838.269	16386
838.406	16348
838.544	16284
838.681	16074
838.819	16063
838.956	15949
839.094	16040
839.231	16036
839.369	16166
839.506	16257
839.643	16226
839.781	15994
839.918	15915
840.055	15979
840.193	15937
840.33	15873
840.467	15892
840.604	15991
840.742	16192
840.879	15800
841.016	15781
841.153	15953
841.29	15960
841.427	15907
841.564	15907
841.701	15987
841.838	15903
841.975	15835
842.112	15743
842.249	15816
842.385	15759
842.522	15854
842.659	15701
842.796	15747
842.933	15755
843.069	15648
843.206	15774
843.343	15762
843.479	15747
843.616	15804
843.752	15595
843.889	15519
844.025	15701
844.162	15408
844.298	15580
844.435	15564
844.571	15519
844.708	15614
844.844	15584
844.98	15690
845.117	15542
845.253	15485
845.389	15374
845.525	15420
845.661	15325
845.798	15268
845.934	15374
846.07	15142
846.206	15336
846.342	15500
846.478	15431
846.614	15199
846.75	15066
846.886	15039
847.022	15123
847.158	15100
847.294	15009
847.429	15161
847.565	15009
847.701	15241
847.837	14849
847.972	14815
848.108	14891
848.244	14853
848.379	14804
848.515	14716
848.65	14724
848.786	14697
848.921	14811
849.057	14769
849.192	14727
849.328	14777
849.463	14823
849.598	14667
849.734	14579
849.869	14537
850.004	14575
850.14	14484
850.275	14415
850.41	14457
850.545	14309
850.68	14434
850.815	14503
850.95	14393
851.085	14686
851.22	14545
851.355	14484
851.49	14434
851.625	14427
851.76	14343
851.895	14336
852.03	14294
852.165	14381
852.299	14473
852.434	14450
852.569	14514
852.703	14469
852.838	14518
852.973	14564
853.107	14587
853.242	14423
853.376	14355
853.511	14191
853.645	14237
853.78	14461
853.914	14374
854.048	14290
854.183	14256
854.317	14305
854.451	14362
854.585	14317
854.72	14237
854.854	14324
854.988	14290
855.122	14317
855.256	14195
855.39	14256
855.524	14389
855.658	14343
855.792	14389
855.926	14328
856.06	14336
856.194	14400
856.327	14305
856.461	14301
856.595	14256
856.729	14336
856.862	14412
856.996	14412
857.13	14358
857.263	14434
857.397	14518
857.53	14313
857.664	14355
857.797	14404
857.931	14377
858.064	14324
858.197	14469
858.331	14237
858.464	14301
858.597	14244
858.731	14385
858.864	14278
858.997	14301
859.13	14286
859.263	14301
859.396	14446
859.529	14286
859.662	14195
859.795	14290
859.928	14358
860.061	14465
860.194	14511
860.327	14278
860.46	14271
860.592	14419
860.725	14408
860.858	14473
860.99	14332
861.123	14195
861.256	14271
861.388	14233
861.521	14838
861.653	14172
861.786	14084
861.918	14191
862.05	14244
862.183	14248
862.315	14339
862.447	14351
862.58	14290
862.712	14119
862.844	14035
862.976	14130
863.108	14123
863.24	14393
863.372	13909
863.504	14035
863.636	14069
863.768	14195
863.9	14005
864.032	14077
864.164	14035
864.296	14130
864.428	14161
864.559	14199
864.691	14199
864.823	14210
864.954	14126
865.086	14130
865.217	14069
865.349	14024
865.48	14035
865.612	14054
865.743	14168
865.875	14069
866.006	14035
866.137	14130
866.269	14046
866.4	14126
866.531	13970
866.662	13947
866.793	13963
866.924	13993
867.055	14126
867.186	13997
867.317	14062
867.448	13906
867.579	14008
867.71	13947
867.841	13894
867.972	14081
868.103	13997
868.233	14153
868.364	14069
868.495	14210
868.625	14328
868.756	14450
868.886	14218
869.017	14267
869.147	14442
869.278	14469
869.408	14400
869.539	14358
869.669	14362
869.799	14351
869.929	14571
870.06	14507
870.19	14686
870.32	14537
870.45	14610
870.58	14705
870.71	14796
870.84	14861
870.97	14678
871.1	14689
871.23	14918
871.36	14857
871.489	14872
871.619	14807
871.749	14887
871.879	14823
872.008	15047
872.138	14906
872.267	14906
872.397	14762
872.526	14739
872.656	14697
872.785	14815
872.915	14937
873.044	14975
873.173	14842
873.303	14979
873.432	14986
873.561	15001
873.69	15024
873.819	14929
873.948	15062
874.077	14918
874.206	14857
874.335	14918
874.464	15081
874.593	15256
874.722	15188
874.851	15310
874.979	15260
875.108	15348
875.237	15306
875.365	15135
875.494	15245
875.623	15203
875.751	15321
875.88	15329
876.008	15492
876.136	15500
876.265	15599
876.393	15736
876.521	15808
876.65	15755
876.778	15682
876.906	15660
877.034	15690
877.162	15614
877.29	15549
877.418	15720
877.546	15652
877.674	15572
877.802	15629
877.93	15663
878.058	15667
878.185	15500
878.313	15690
878.441	15679
878.568	15622
878.696	15606
878.824	15675
878.951	15694
879.079	15835
879.206	15975
879.333	15876
879.461	15793
879.588	15778
879.715	15831
879.842	16002
879.97	15667
880.097	15492
880.224	15591
880.351	15568
880.478	15663
880.605	15519
880.732	15603
880.859	15713
880.986	15561
881.112	15492
881.239	15397
881.366	15302
881.493	15154
881.619	15195
881.746	15173
881.872	15173
881.999	15184
882.125	15173
882.252	15230
882.378	15142
882.505	15348
882.631	14998
882.757	15043
882.883	15089
883.01	14937
883.136	14910
883.262	14990
883.388	14857
883.514	14948
883.64	15036
883.766	15081
883.892	14857
884.018	14910
884.143	15017
884.269	15127
884.395	14785
884.52	14640
884.646	14663
884.772	14659
884.897	14587
885.023	14644
885.148	14807
885.274	14849
885.399	14788
885.524	14754
885.65	14781
885.775	14674
885.9	14670
886.025	14887
886.15	14743
886.275	14724
886.4	14644
886.525	14701
886.65	14583
886.775	14739
886.9	14807
887.025	15020
887.149	14792
887.274	14583
887.399	14526
887.523	14613
887.648	14442
887.773	14385
887.897	14503
888.021	14556
888.146	14446
888.27	14598
888.395	14670
888.519	14598
888.643	14606
888.767	14617
888.891	14473
889.015	14400
889.139	14355
889.263	14377
889.387	14640
889.511	14552
889.635	14518
889.759	14400
889.883	14415
890.006	14404
890.13	14495
890.254	14336
890.377	14332
890.501	14195
890.624	14153
890.748	14336
890.871	14119
890.995	14069
891.118	14020
891.241	14081
891.364	14077
891.488	14214
891.611	14039
891.734	14130
891.857	14176
891.98	14054
892.103	14168
892.226	14065
892.349	14084
892.471	13989
892.594	14062
892.717	14130
892.839	14092
892.962	14077
893.085	14164
893.207	14115
893.33	13989
893.452	14050
893.575	14161
893.697	13944
893.819	14313
893.941	14229
894.064	14180
894.186	14088
894.308	13898
894.43	14183
894.552	14286
894.674	14237
894.796	14062
894.918	14183
895.04	14183
895.161	14256
895.283	14202
895.405	14161
895.526	14123
895.648	14191
895.769	14191
895.891	14195
896.012	14343
896.134	14298
896.255	14271
896.376	14103
896.498	14286
896.619	14313
896.74	14294
896.861	14317
896.982	14636
897.103	14826
897.224	14644
897.345	14484
897.466	14507
897.587	14522
897.708	14602
897.828	14568
897.949	14636
898.07	14469
898.19	14590
898.311	14750
898.431	14568
898.552	14606
898.672	14731
898.792	14746
898.913	14765
899.033	14461
899.153	14480
899.273	14457
899.393	14377
899.513	14499
899.633	14495
899.753	14560
899.873	14423
899.993	14522
900.113	14480
900.232	14552
900.352	14457
900.472	14328
900.591	14271
900.711	14366
900.83	14339
900.95	14507
901.069	14404
901.189	14263
901.308	14100
901.427	14092
901.546	14008
901.665	14020
901.784	14126
901.904	13963
902.023	13772
902.141	13636
902.26	13616
902.379	13776
902.498	13575
902.617	13487
902.735	13597
902.854	13624
902.973	13567
903.091	13343
903.21	13354
903.328	13320
903.446	13247
903.565	13103
903.683	13244
903.801	13080
903.919	13160
904.038	13190
904.156	12954
904.274	12977
904.392	12962
904.51	12947
904.627	12916
904.745	13088
904.863	13088
904.981	12821
905.098	12768
905.216	12798
905.334	12711
905.451	12711
905.569	12760
905.686	12749
905.803	12631
905.921	12471
906.038	12555
906.155	12513
906.272	12365
906.389	12448
906.506	12213
906.623	12258
906.74	12270
906.857	12186
906.974	12213
907.091	12300
907.208	12433
907.324	12338
907.441	12129
907.557	12026
907.674	11996
907.79	11958
907.907	11984
908.023	12045
908.139	12091
908.256	11916
908.372	11984
908.488	11870
908.604	11752
908.72	11668
908.836	11771
908.952	11760
909.068	11767
909.184	11901
909.3	11783
909.415	11794
909.531	11779
909.647	11562
909.762	11520
909.878	11558
909.993	11524
910.108	11520
910.224	11535
910.339	11524
910.454	11421
910.57	11376
910.685	11349
910.8	11600
910.915	11520
911.03	11417
911.145	11246
911.259	11227
911.374	11299
911.489	11166
911.604	11071
911.718	11010
911.833	11018
911.947	10869
912.062	10759
912.176	10961
912.291	10930
912.405	10934
912.519	11121
912.633	11231
912.748	11071
912.862	10957
912.976	10812
913.09	10706
913.204	10771
913.318	10858
913.431	10953
913.545	10976
913.659	11029
913.772	10763
913.886	10782
914	10733
914.113	10915
914.226	10911
914.34	10839
914.453	10630
914.566	10816
914.68	10782
914.793	10698
914.906	10519
915.019	10527
915.132	10409
915.245	10535
915.358	10451
915.47	10603
915.583	10523
915.696	10596
915.809	10618
915.921	10607
916.034	10531
916.146	10489
916.259	10466
916.371	10485
916.483	10421
916.595	10322
916.708	10447
916.82	10367
916.932	10348
917.044	10367
917.156	10405
917.268	10318
917.38	10382
917.491	10272
917.603	10253
917.715	10382
917.826	10432
917.938	10303
918.049	10230
918.161	10253
918.272	10451
918.384	10443
918.495	10287
918.606	10169
918.717	10135
918.828	10177
918.939	10253
919.05	10112
919.161	10227
919.272	10029
919.383	10010
919.494	10227
919.604	10470
919.715	10253
919.826	10147
919.936	10173
920.047	10341
920.157	10227
920.267	10428
920.378	10299
920.488	10128
920.598	10424
920.708	10561
920.818	10394
920.928	10440
921.038	10577
921.148	10569
921.258	10299
921.368	10196
921.477	10082
921.587	10074
921.697	9949
921.806	10120
921.916	10021
922.025	9762
922.134	9797
922.244	9705
922.353	9797
922.462	9667
922.571	9595
922.68	9450
922.789	9454
922.898	9534
923.007	9435
923.116	9496
923.224	9382
923.333	9492
923.442	9306
923.55	9408
923.659	9363
923.767	9462
923.876	9287
923.984	9412
924.092	9313
924.201	9386
924.309	9363
924.417	9367
924.525	9260
924.633	9249
924.741	10261
924.849	9055
924.956	9294
925.064	9066
925.172	9062
925.279	9127
925.387	9142
925.494	9127
925.602	9344
925.709	9249
925.816	9146
925.924	9119
926.031	9188
926.138	9150
926.245	9154
926.352	9020
926.459	9150
926.566	9230
926.673	9119
926.779	8986
926.886	8937
926.993	8868
927.099	8864
927.206	8804
927.312	8788
927.419	8910
927.525	8792
927.631	8861
927.737	8705
927.843	8693
927.95	8621
928.056	8701
928.162	8731
928.267	8762
928.373	9473
928.479	8804
928.585	8556
928.69	8727
928.796	8697
928.901	8602
929.007	8511
929.112	8594
929.218	8556
929.323	8560
929.428	8522
929.533	8739
929.638	8476
929.743	8484
929.848	8526
929.953	8507
930.058	8476
930.163	8282
930.267	8381
930.372	8381
930.477	8279
930.581	8499
930.685	8305
930.79	8221
930.894	8305
930.998	8256
931.103	8366
931.207	7993
931.311	8001
931.415	7936
931.519	7822
931.623	7780
