Data from test_V78500241_2144.txt Node
Date: Fri Mar 25 14:48:38 CST 2022
User: usil
Spectrometer: V785-0024
Trigger mode: 0
Integration Time (sec): 4.000000E-1
Scans to average: 1
Nonlinearity correction enabled: false
Boxcar width: 0
Storing dark spectrum: false
XAxis mode: Wavelengths
Number of Pixels in Spectrum: 1024
>>>>>Begin Spectral Data<<<<<
801.071	22150
801.214	21994
801.356	21915
801.499	21797
801.641	21629
801.783	21485
801.926	21614
802.068	21443
802.211	21348
802.353	21233
802.496	21138
802.638	21116
802.78	21077
802.923	21051
803.065	20815
803.208	20819
803.35	20963
803.492	20994
803.635	20990
803.777	20887
803.919	21043
804.061	21302
804.204	20895
804.346	20868
804.488	20792
804.63	20914
804.773	20693
804.915	20834
805.057	20929
805.199	20754
805.341	20864
805.483	20857
805.626	20781
805.768	20785
805.91	20895
806.052	20834
806.194	20724
806.336	20933
806.478	20765
806.62	20777
806.762	20823
806.904	21085
807.046	21218
807.188	21089
807.33	21039
807.472	21104
807.614	21096
807.756	20979
807.898	20948
808.04	20773
808.182	20864
808.324	20963
808.465	20944
808.607	21070
808.749	21241
808.891	21325
809.033	21389
809.174	21260
809.316	21169
809.458	21192
809.6	21260
809.741	21294
809.883	21245
810.025	21237
810.166	21367
810.308	21378
810.45	21306
810.591	21302
810.733	21062
810.875	20929
811.016	20880
811.158	20883
811.299	20982
811.441	21051
811.582	21066
811.724	20960
811.865	20853
812.007	20967
812.148	20975
812.29	21020
812.431	20979
812.573	21332
812.714	21359
812.855	21538
812.997	21504
813.138	21728
813.279	21507
813.421	21431
813.562	21386
813.703	21237
813.845	21024
813.986	20948
814.127	20549
814.268	20644
814.41	20575
814.551	20526
814.692	20625
814.833	20476
814.974	20442
815.115	20579
815.256	20408
815.397	20404
815.539	20336
815.68	20240
815.821	20145
815.962	20111
816.103	20157
816.244	20046
816.385	20027
816.526	19963
816.666	19670
816.807	19643
816.948	19795
817.089	19791
817.23	19651
817.371	19761
817.512	19613
817.653	19738
817.793	19544
817.934	19655
818.075	19719
818.216	19670
818.356	19601
818.497	19548
818.638	19304
818.778	19434
818.919	19396
819.06	19358
819.2	19407
819.341	19502
819.481	19453
819.622	19700
819.762	19887
819.903	19708
820.043	19677
820.184	19742
820.324	19624
820.465	19712
820.605	19639
820.746	19662
820.886	19628
821.026	19495
821.167	19628
821.307	19597
821.447	19521
821.588	19419
821.728	19339
821.868	19183
822.008	18977
822.149	19027
822.289	18973
822.429	18802
822.569	18623
822.709	18749
822.849	18517
822.99	18513
823.13	18528
823.27	18486
823.41	18391
823.55	18239
823.69	18357
823.83	18365
823.97	18289
824.11	18076
824.25	18091
824.389	18030
824.529	18159
824.669	18064
824.809	18258
824.949	18247
825.089	18163
825.228	18102
825.368	18019
825.508	17958
825.648	17939
825.787	17992
825.927	17931
826.067	17855
826.206	17733
826.346	17984
826.485	17855
826.625	17916
826.765	17988
826.904	18003
827.044	17649
827.183	17733
827.323	17497
827.462	17646
827.601	17551
827.741	17604
827.88	17600
828.02	17524
828.159	17566
828.298	17638
828.437	17581
828.577	17539
828.716	17703
828.855	17577
828.994	17322
829.134	17334
829.273	17269
829.412	17315
829.551	17246
829.69	17200
829.829	17292
829.968	17383
830.107	17463
830.246	17322
830.385	17315
830.524	17132
830.663	17143
830.802	16999
830.941	16930
831.08	16919
831.219	16885
831.357	17022
831.496	17136
831.635	16828
831.774	16949
831.913	16801
832.051	16763
832.19	16774
832.329	16771
832.467	16622
832.606	16577
832.744	16607
832.883	16649
833.022	16607
833.16	16683
833.299	16759
833.437	16641
833.576	16649
833.714	16729
833.852	16664
833.991	16713
834.129	16649
834.267	16805
834.406	16683
834.544	16748
834.682	16717
834.821	16729
834.959	16866
835.097	16653
835.235	16778
835.373	16668
835.511	16713
835.65	16599
835.788	16702
835.926	16478
836.064	16333
836.202	16379
836.34	16538
836.478	16717
836.615	16656
836.753	16683
836.891	16596
837.029	16706
837.167	16527
837.305	16523
837.443	16485
837.58	16493
837.718	16573
837.856	16436
837.993	16451
838.131	16470
838.269	16386
838.406	16417
838.544	16409
838.681	16223
838.819	16200
838.956	15987
839.094	16017
839.231	15998
839.369	16257
839.506	16375
839.643	16238
839.781	16154
839.918	15983
840.055	16025
840.193	16112
840.33	16044
840.467	16086
840.604	16067
840.742	16219
840.879	15918
841.016	15922
841.153	15869
841.29	16139
841.427	16029
841.564	16051
841.701	15994
841.838	16086
841.975	15915
842.112	15941
842.249	15884
842.385	15743
842.522	16036
842.659	15838
842.796	15797
842.933	15770
843.069	15747
843.206	15808
843.343	15831
843.479	15842
843.616	15846
843.752	15652
843.889	15629
844.025	15736
844.162	15557
844.298	15759
844.435	15564
844.571	15526
844.708	15713
844.844	15743
844.98	15770
845.117	15610
845.253	15507
845.389	15485
845.525	15568
845.661	15530
845.798	15431
845.934	15435
846.07	15428
846.206	15443
846.342	15561
846.478	15363
846.614	15264
846.75	15055
846.886	15108
847.022	15291
847.158	15211
847.294	15279
847.429	15192
847.565	15108
847.701	15473
847.837	14830
847.972	14929
848.108	14994
848.244	14963
848.379	14868
848.515	14716
848.65	14735
848.786	14785
848.921	14796
849.057	14830
849.192	14796
849.328	14750
849.463	14765
849.598	14750
849.734	14682
849.869	14545
850.004	14518
850.14	14617
850.275	14579
850.41	14377
850.545	14480
850.68	14663
850.815	14533
850.95	14492
851.085	14697
851.22	14705
851.355	14564
851.49	14511
851.625	14511
851.76	14552
851.895	14461
852.03	14454
852.165	14541
852.299	14610
852.434	14613
852.569	14606
852.703	14571
852.838	14594
852.973	14735
853.107	14678
853.242	14507
853.376	14484
853.511	14317
853.645	14305
853.78	14545
853.914	14442
854.048	14389
854.183	14393
854.317	14393
854.451	14549
854.585	14408
854.72	14415
854.854	14488
854.988	14339
855.122	14419
855.256	14210
855.39	14290
855.524	14465
855.658	14396
855.792	14278
855.926	14514
856.06	14503
856.194	14415
856.327	14408
856.461	14343
856.595	14305
856.729	14366
856.862	14530
856.996	14423
857.13	14530
857.263	14499
857.397	14465
857.53	14362
857.664	14332
857.797	14461
857.931	14511
858.064	14412
858.197	14537
858.331	14438
858.464	14339
858.597	14320
858.731	14366
858.864	14427
858.997	14343
859.13	14434
859.263	14412
859.396	14552
859.529	14438
859.662	14358
859.795	14450
859.928	14343
860.061	14545
860.194	14537
860.327	14431
860.46	14381
860.592	14556
860.725	14473
860.858	14587
860.99	14355
861.123	14320
861.256	14336
861.388	14427
861.521	15112
861.653	14237
861.786	14351
861.918	14305
862.05	14298
862.183	14427
862.315	14404
862.447	14511
862.58	14324
862.712	14153
862.844	14081
862.976	14199
863.108	14187
863.24	14625
863.372	14119
863.504	14218
863.636	14157
863.768	14267
863.9	14309
864.032	14145
864.164	14195
864.296	14275
864.428	14320
864.559	14275
864.691	14313
864.823	14218
864.954	14134
865.086	14233
865.217	14221
865.349	14084
865.48	14218
865.612	14153
865.743	14313
865.875	14214
866.006	14134
866.137	14244
866.269	14130
866.4	14130
866.531	14115
866.662	14161
866.793	14145
866.924	14218
867.055	14088
867.186	14130
867.317	14008
867.448	14005
867.579	14103
867.71	14107
867.841	14123
867.972	14172
868.103	14210
868.233	14115
868.364	14149
868.495	14259
868.625	14396
868.756	14492
868.886	14351
869.017	14438
869.147	14590
869.278	14568
869.408	14457
869.539	14434
869.669	14533
869.799	14362
869.929	14507
870.06	14457
870.19	14712
870.32	14735
870.45	14800
870.58	14750
870.71	14910
870.84	14941
870.97	14682
871.1	14811
871.23	15013
871.36	15009
871.489	14857
871.619	14967
871.749	15062
871.879	15066
872.008	15104
872.138	15089
872.267	15077
872.397	14929
872.526	14834
872.656	14864
872.785	14914
872.915	14982
873.044	15123
873.173	14994
873.303	15062
873.432	15032
873.561	15150
873.69	15150
873.819	15039
873.948	15020
874.077	15009
874.206	15058
874.335	15089
874.464	15264
874.593	15279
874.722	15431
874.851	15424
874.979	15450
875.108	15439
875.237	15321
875.365	15306
875.494	15355
875.623	15397
875.751	15348
875.88	15458
876.008	15523
876.136	15561
876.265	15789
876.393	15899
876.521	15823
876.65	15838
876.778	15781
876.906	15766
877.034	15679
877.162	15816
877.29	15789
877.418	15751
877.546	15869
877.674	15808
877.802	15819
877.93	15770
878.058	15595
878.185	15747
878.313	15724
878.441	15850
878.568	15584
878.696	15701
878.824	15823
878.951	15949
879.079	15975
879.206	16204
879.333	16025
879.461	15793
879.588	15873
879.715	16025
879.842	16055
879.97	15831
880.097	15511
880.224	15568
880.351	15701
880.478	15675
880.605	15675
880.732	15625
880.859	15854
880.986	15675
881.112	15584
881.239	15564
881.366	15367
881.493	15313
881.619	15230
881.746	15279
881.872	15325
881.999	15268
882.125	15279
882.252	15378
882.378	15218
882.505	15454
882.631	15214
882.757	15112
882.883	15237
883.01	15108
883.136	15017
883.262	15028
883.388	14948
883.514	15097
883.64	15184
883.766	15123
883.892	14883
884.018	14937
884.143	15199
884.269	15176
884.395	14906
884.52	14800
884.646	14849
884.772	14864
884.897	14746
885.023	14849
885.148	14849
885.274	14986
885.399	14933
885.524	14807
885.65	14807
885.775	14876
885.9	14785
886.025	14937
886.15	14956
886.275	14727
886.4	14724
886.525	14712
886.65	14663
886.775	14807
886.9	14918
887.025	15074
887.149	14773
887.274	14663
887.399	14583
887.523	14552
887.648	14705
887.773	14537
887.897	14693
888.021	14743
888.146	14629
888.27	14716
888.395	14842
888.519	14598
888.643	14762
888.767	14765
888.891	14613
889.015	14454
889.139	14514
889.263	14530
889.387	14606
889.511	14720
889.635	14571
889.759	14499
889.883	14400
890.006	14495
890.13	14583
890.254	14408
890.377	14431
890.501	14313
890.624	14298
890.748	14427
890.871	14309
890.995	14134
891.118	14119
891.241	14240
891.364	14176
891.488	14298
891.611	14058
891.734	14298
891.857	14210
891.98	14206
892.103	14305
892.226	14248
892.349	14259
892.471	14084
892.594	14248
892.717	14145
892.839	14172
892.962	14252
893.085	14225
893.207	14153
893.33	14035
893.452	14069
893.575	14259
893.697	14210
893.819	14362
893.941	14396
894.064	14351
894.186	14164
894.308	14183
894.43	14263
894.552	14385
894.674	14278
894.796	14240
894.918	14332
895.04	14206
895.161	14381
895.283	14324
895.405	14301
895.526	14275
895.648	14324
895.769	14343
895.891	14324
896.012	14469
896.134	14389
896.255	14389
896.376	14343
896.498	14427
896.619	14355
896.74	14400
896.861	14419
896.982	14769
897.103	14842
897.224	14587
897.345	14678
897.466	14571
897.587	14610
897.708	14716
897.828	14522
897.949	14556
898.07	14461
898.19	14537
898.311	14792
898.431	14705
898.552	14781
898.672	14861
898.792	14902
898.913	14720
899.033	14625
899.153	14613
899.273	14541
899.393	14530
899.513	14575
899.633	14625
899.753	14530
899.873	14579
899.993	14575
900.113	14594
900.232	14716
900.352	14594
900.472	14419
900.591	14374
900.711	14514
900.83	14427
900.95	14473
901.069	14533
901.189	14317
901.308	14187
901.427	14065
901.546	14130
901.665	14092
901.784	14103
901.904	14073
902.023	13887
902.141	13765
902.26	13609
902.379	13738
902.498	13723
902.617	13613
902.735	13712
902.854	13761
902.973	13597
903.091	13350
903.21	13445
903.328	13324
903.446	13324
903.565	13316
903.683	13221
903.801	13114
903.919	13244
904.038	13168
904.156	13091
904.274	13164
904.392	13008
904.51	13046
904.627	13042
904.745	13076
904.863	13194
904.981	12848
905.098	12681
905.216	12722
905.334	12852
905.451	12798
905.569	12646
905.686	12795
905.803	12722
905.921	12646
906.038	12593
906.155	12578
906.272	12517
906.389	12448
906.506	12270
906.623	12323
906.74	12273
906.857	12300
906.974	12270
907.091	12376
907.208	12479
907.324	12327
907.441	12197
907.557	12098
907.674	12125
907.79	12087
907.907	12038
908.023	12057
908.139	12117
908.256	12003
908.372	11965
908.488	11954
908.604	11893
908.72	11855
908.836	11843
908.952	11756
909.068	11832
909.184	11912
909.3	11874
909.415	11855
909.531	11855
909.647	11634
909.762	11657
909.878	11589
909.993	11577
910.108	11600
910.224	11646
910.339	11695
910.454	11516
910.57	11433
910.685	11387
910.8	11688
910.915	11619
911.03	11486
911.145	11372
911.259	11318
911.374	11284
911.489	11246
911.604	11193
911.718	11086
911.833	11071
911.947	10987
912.062	10927
912.176	11018
912.291	11128
912.405	11083
912.519	11265
912.633	11273
912.748	11143
912.862	11079
912.976	11006
913.09	10850
913.204	10965
913.318	10919
913.431	11151
913.545	11033
913.659	11079
913.772	11006
913.886	10889
914	10831
914.113	10987
914.226	11041
914.34	10953
914.453	10752
914.566	10881
914.68	10729
914.793	10862
914.906	10626
915.019	10592
915.132	10489
915.245	10603
915.358	10531
915.47	10535
915.583	10618
915.696	10622
915.809	10733
915.921	10729
916.034	10497
916.146	10535
916.259	10527
916.371	10649
916.483	10645
916.595	10512
916.708	10459
916.82	10588
916.932	10485
917.044	10523
917.156	10447
917.268	10352
917.38	10440
917.491	10455
917.603	10516
917.715	10489
917.826	10637
917.938	10318
918.049	10276
918.161	10337
918.272	10577
918.384	10584
918.495	10436
918.606	10299
918.717	10272
918.828	10398
918.939	10261
919.05	10242
919.161	10246
919.272	10196
919.383	10071
919.494	10322
919.604	10535
919.715	10333
919.826	10204
919.936	10230
920.047	10375
920.157	10390
920.267	10584
920.378	10360
920.488	10306
920.598	10474
920.708	10588
920.818	10512
920.928	10550
921.038	10710
921.148	10637
921.258	10375
921.368	10265
921.477	10158
921.587	10177
921.697	10036
921.806	10177
921.916	10032
922.025	9888
922.134	9949
922.244	9838
922.353	9835
922.462	9644
922.571	9618
922.68	9610
922.789	9538
922.898	9568
923.007	9481
923.116	9580
923.224	9538
923.333	9576
923.442	9435
923.55	9462
923.659	9473
923.767	9507
923.876	9397
923.984	9549
924.092	9507
924.201	9454
924.309	9428
924.417	9397
924.525	9393
924.633	9298
924.741	10322
924.849	9199
924.956	9348
925.064	9199
925.172	9119
925.279	9192
925.387	9188
925.494	9256
925.602	9378
925.709	9294
925.816	9188
925.924	9222
926.031	9325
926.138	9279
926.245	9226
926.352	9058
926.459	9313
926.566	9370
926.673	9161
926.779	9097
926.886	9047
926.993	8921
927.099	8895
927.206	8842
927.312	8910
927.419	8944
927.525	8944
927.631	8960
927.737	8830
927.843	8785
927.95	8758
928.056	8678
928.162	8823
928.267	8842
928.373	9439
928.479	8895
928.585	8697
928.69	8762
928.796	8899
928.901	8777
929.007	8590
929.112	8750
929.218	8712
929.323	8644
929.428	8606
929.533	8811
929.638	8560
929.743	8693
929.848	8686
929.953	8594
930.058	8473
930.163	8412
930.267	8442
930.372	8511
930.477	8389
930.581	8621
930.685	8492
930.79	8313
930.894	8374
930.998	8355
931.103	8499
931.207	8134
931.311	8081
931.415	8027
931.519	7852
931.623	7776
