Data from test_V78500241_527.txt Node
Date: Fri Mar 25 14:37:23 CST 2022
User: usil
Spectrometer: V785-0024
Trigger mode: 0
Integration Time (sec): 4.000000E-1
Scans to average: 1
Nonlinearity correction enabled: false
Boxcar width: 0
Storing dark spectrum: false
XAxis mode: Wavelengths
Number of Pixels in Spectrum: 1024
>>>>>Begin Spectral Data<<<<<
801.071	27142
801.214	27017
801.356	26773
801.499	26724
801.641	26632
801.783	26621
801.926	26602
802.068	26594
802.211	26533
802.353	26381
802.496	26065
802.638	26111
802.78	26039
802.923	26073
803.065	25978
803.208	26046
803.35	26054
803.492	26081
803.635	26122
803.777	26142
803.919	26122
804.061	26355
804.204	26077
804.346	25993
804.488	25940
804.63	26081
804.773	25894
804.915	26084
805.057	26168
805.199	26119
805.341	26233
805.483	26286
805.626	26294
805.768	26172
805.91	26183
806.052	26225
806.194	26164
806.336	26446
806.478	26320
806.62	26298
806.762	26632
806.904	26777
807.046	27146
807.188	27150
807.33	27192
807.472	27435
807.614	27458
807.756	27641
807.898	27823
808.04	28204
808.182	28698
808.324	29375
808.465	29996
808.607	31008
808.749	31628
808.891	32130
809.033	32142
809.174	31731
809.316	30840
809.458	29954
809.6	29246
809.741	28694
809.883	28177
810.025	28082
810.166	27736
810.308	27462
810.45	27504
810.591	27154
810.733	27070
810.875	26948
811.016	26625
811.158	26693
811.299	26701
811.441	26899
811.582	26701
811.724	26594
811.865	26571
812.007	26632
812.148	26533
812.29	26457
812.431	26800
812.573	26845
812.714	26899
812.855	26902
812.997	27146
813.138	27116
813.279	26921
813.421	26876
813.562	26777
813.703	26602
813.845	26552
813.986	26164
814.127	26168
814.268	26001
814.41	25883
814.551	25822
814.692	26012
814.833	25822
814.974	25776
815.115	25936
815.256	25837
815.397	25750
815.539	25628
815.68	25529
815.821	25502
815.962	25632
816.103	25529
816.244	25460
816.385	25308
816.526	25240
816.666	25171
816.807	24962
816.948	25023
817.089	24928
817.23	24962
817.371	24932
817.512	24909
817.653	24863
817.793	24863
817.934	25027
818.075	24939
818.216	24882
818.356	24947
818.497	24669
818.638	24551
818.778	24787
818.919	24604
819.06	24639
819.2	24707
819.341	24871
819.481	24837
819.622	24913
819.762	25198
819.903	24966
820.043	25042
820.184	24905
820.324	24791
820.465	25000
820.605	24935
820.746	24848
820.886	24787
821.026	24901
821.167	24783
821.307	24837
821.447	24783
821.588	24692
821.728	24418
821.868	24338
822.008	24064
822.149	24216
822.289	24136
822.429	23950
822.569	23832
822.709	23748
822.849	23653
822.99	23463
823.13	23619
823.27	23619
823.41	23429
823.55	23372
823.69	23463
823.83	23497
823.97	23326
824.11	23174
824.25	23052
824.389	23155
824.529	23113
824.669	23212
824.809	23326
824.949	23261
825.089	23121
825.228	23204
825.368	23010
825.508	23014
825.648	22965
825.787	23060
825.927	22942
826.067	22904
826.206	22938
826.346	23052
826.485	23094
826.625	22919
826.765	22999
826.904	22934
827.044	22752
827.183	22767
827.323	22630
827.462	22752
827.601	22805
827.741	22622
827.88	22729
828.02	22398
828.159	22668
828.298	22626
828.437	22645
828.577	22577
828.716	22691
828.855	22557
828.994	22272
829.134	22352
829.273	22447
829.412	22303
829.551	22276
829.69	22299
829.829	22379
829.968	22363
830.107	22223
830.246	22261
830.385	22272
830.524	22230
830.663	22192
830.802	22036
830.941	21869
831.08	21953
831.219	21945
831.357	21975
831.496	22150
831.635	21960
831.774	21827
831.913	21762
832.051	21625
832.19	21675
832.329	21751
832.467	21698
832.606	21526
832.744	21583
832.883	21629
833.022	21660
833.16	21701
833.299	21728
833.437	21709
833.576	21751
833.714	21804
833.852	21987
833.991	21869
834.129	21968
834.267	21835
834.406	21854
834.544	21892
834.682	21819
834.821	21812
834.959	21953
835.097	21614
835.235	21774
835.373	21698
835.511	21583
835.65	21587
835.788	21523
835.926	21370
836.064	21294
836.202	21268
836.34	21382
836.478	21549
836.615	21389
836.753	21378
836.891	21492
837.029	21291
837.167	21374
837.305	21477
837.443	21321
837.58	21260
837.718	21245
837.856	21249
837.993	21252
838.131	21180
838.269	21157
838.406	21332
838.544	21218
838.681	20849
838.819	20754
838.956	20777
839.094	20731
839.231	20716
839.369	20891
839.506	21005
839.643	20921
839.781	20708
839.918	20598
840.055	20735
840.193	20743
840.33	20575
840.467	20655
840.604	20682
840.742	20853
840.879	20632
841.016	20473
841.153	20522
841.29	20735
841.427	20568
841.564	20674
841.701	20727
841.838	20609
841.975	20556
842.112	20526
842.249	20438
842.385	20267
842.522	20575
842.659	20336
842.796	20332
842.933	20362
843.069	20347
843.206	20275
843.343	20393
843.479	20358
843.616	20393
843.752	20161
843.889	20161
844.025	20465
844.162	20149
844.298	20328
844.435	20172
844.571	20237
844.708	20366
844.844	20465
844.98	20708
845.117	20705
845.253	20925
845.389	21039
845.525	22006
845.661	23220
845.798	24939
845.934	26180
846.07	26636
846.206	26423
846.342	25571
846.478	23813
846.614	22261
846.75	21218
846.886	20640
847.022	20343
847.158	20069
847.294	19909
847.429	19803
847.565	19791
847.701	19947
847.837	19487
847.972	19400
848.108	19449
848.244	19483
848.379	19202
848.515	19274
848.65	19129
848.786	19202
848.921	19072
849.057	19312
849.192	19270
849.328	19209
849.463	19141
849.598	19084
849.734	19152
849.869	18993
850.004	18886
850.14	18859
850.275	18939
850.41	18726
850.545	18863
850.68	18852
850.815	18993
850.95	18840
851.085	18996
851.22	18913
851.355	18852
851.49	18856
851.625	18844
851.76	18798
851.895	18681
852.03	18707
852.165	18897
852.299	18852
852.434	18905
852.569	18882
852.703	18909
852.838	18890
852.973	18897
853.107	19034
853.242	18837
853.376	18779
853.511	18665
853.645	18791
853.78	18848
853.914	18779
854.048	18688
854.183	18802
854.317	18764
854.451	18913
854.585	18776
854.72	18768
854.854	18791
854.988	18639
855.122	18703
855.256	18532
855.39	18673
855.524	18863
855.658	18741
855.792	18684
855.926	18760
856.06	18787
856.194	18734
856.327	18642
856.461	18711
856.595	18566
856.729	18654
856.862	18787
856.996	18719
857.13	18574
857.263	18661
857.397	18749
857.53	18650
857.664	18711
857.797	18726
857.931	18779
858.064	18673
858.197	18757
858.331	18669
858.464	18601
858.597	18479
858.731	18646
858.864	18589
858.997	18475
859.13	18506
859.263	18639
859.396	18616
859.529	18544
859.662	18509
859.795	18563
859.928	18681
860.061	18661
860.194	18795
860.327	18604
860.46	18570
860.592	18703
860.725	18768
860.858	18681
860.99	18601
861.123	18433
861.256	18570
861.388	18604
861.521	19426
861.653	18437
861.786	18407
861.918	18509
862.05	18486
862.183	18551
862.315	18551
862.447	18627
862.58	18703
862.712	18334
862.844	18391
862.976	18311
863.108	18361
863.24	18764
863.372	18338
863.504	18251
863.636	18334
863.768	18490
863.9	18296
864.032	18266
864.164	18296
864.296	18296
864.428	18391
864.559	18319
864.691	18384
864.823	18308
864.954	18239
865.086	18308
865.217	18197
865.349	18224
865.48	18220
865.612	18213
865.743	18353
865.875	18232
866.006	18232
866.137	18220
866.269	18251
866.4	18228
866.531	18243
866.662	18068
866.793	18163
866.924	18205
867.055	18266
867.186	18144
867.317	18209
867.448	18053
867.579	18022
867.71	18083
867.841	18091
867.972	18197
868.103	18159
868.233	18273
868.364	18178
868.495	18148
868.625	18388
868.756	18593
868.886	18327
869.017	18361
869.147	18498
869.278	18547
869.408	18350
869.539	18437
869.669	18418
869.799	18460
869.929	18445
870.06	18525
870.19	18684
870.32	18707
870.45	18738
870.58	18878
870.71	18894
870.84	18913
870.97	18837
871.1	18722
871.23	18996
871.36	19057
871.489	18901
871.619	18951
871.749	19057
871.879	19034
872.008	19012
872.138	19103
872.267	18973
872.397	18993
872.526	18863
872.656	18943
872.785	18833
872.915	19084
873.044	19202
873.173	19103
873.303	19114
873.432	19126
873.561	19141
873.69	19168
873.819	19152
873.948	19320
874.077	19247
874.206	19118
874.335	19194
874.464	19228
874.593	19384
874.722	19335
874.851	19495
874.979	19529
875.108	19453
875.237	19468
875.365	19415
875.494	19499
875.623	19491
875.751	19495
875.88	19552
876.008	19662
876.136	19738
876.265	19997
876.393	20111
876.521	19986
876.65	20050
876.778	20031
876.906	19974
877.034	19894
877.162	20126
877.29	19955
877.418	20096
877.546	20130
877.674	20065
877.802	20145
877.93	20062
878.058	20149
878.185	20206
878.313	20385
878.441	20267
878.568	20450
878.696	20587
878.824	20804
878.951	21024
879.079	21511
879.206	22169
879.333	22573
879.461	22915
879.588	23322
879.715	23299
879.842	23242
879.97	22546
880.097	21827
880.224	21428
880.351	21218
880.478	20956
880.605	20807
880.732	20815
880.859	20891
880.986	20701
881.112	20492
881.239	20480
881.366	20275
881.493	20229
881.619	20103
881.746	20218
881.872	20107
881.999	20240
882.125	20218
882.252	20301
882.378	20317
882.505	20336
882.631	20096
882.757	19913
882.883	20138
883.01	19993
883.136	20084
883.262	19944
883.388	19799
883.514	20096
883.64	20005
883.766	19909
883.892	19849
884.018	19875
884.143	19788
884.269	20100
884.395	19795
884.52	19723
884.646	19624
884.772	19666
884.897	19658
885.023	19609
885.148	19715
885.274	19658
885.399	19727
885.524	19460
885.65	19537
885.775	19548
885.9	19464
886.025	19472
886.15	19487
886.275	19358
886.4	19255
886.525	19365
886.65	19190
886.775	19320
886.9	19297
887.025	19419
887.149	19187
887.274	18993
887.399	18947
887.523	19004
887.648	18802
887.773	18791
887.897	18966
888.021	18913
888.146	18783
888.27	18890
888.395	18867
888.519	18844
888.643	18863
888.767	18810
888.891	18669
889.015	18661
889.139	18665
889.263	18608
889.387	18703
889.511	18810
889.635	18616
889.759	18414
889.883	18601
890.006	18513
890.13	18593
890.254	18433
890.377	18441
890.501	18228
890.624	18281
890.748	18357
890.871	18133
890.995	18083
891.118	18060
891.241	18117
891.364	18068
891.488	18159
891.611	18091
891.734	18106
891.857	18068
891.98	18034
892.103	18057
892.226	18015
892.349	18022
892.471	17741
892.594	17866
892.717	17931
892.839	17901
892.962	17969
893.085	17980
893.207	18019
893.33	17729
893.452	17878
893.575	17863
893.697	17870
893.819	18045
893.941	18114
894.064	18026
894.186	17863
894.308	17752
894.43	18038
894.552	18015
894.674	17939
894.796	17745
894.918	17931
895.04	17802
895.161	17927
895.283	17882
895.405	17741
895.526	17802
895.648	17874
895.769	17999
895.891	17942
896.012	17824
896.134	17942
896.255	17939
896.376	17912
896.498	17802
896.619	17988
896.74	17923
896.861	17984
896.982	18273
897.103	18403
897.224	18232
897.345	18114
897.466	18087
897.587	18117
897.708	18213
897.828	18095
897.949	18110
898.07	17958
898.19	18057
898.311	18224
898.431	18083
898.552	18171
898.672	18117
898.792	18174
898.913	18114
899.033	18068
899.153	18045
899.273	17798
899.393	17836
899.513	17882
899.633	17859
899.753	17828
899.873	17889
899.993	17923
900.113	17882
900.232	17889
900.352	17840
900.472	17927
900.591	17676
900.711	17687
900.83	17695
900.95	17805
901.069	17802
901.189	17649
901.308	17402
901.427	17364
901.546	17284
901.665	17383
901.784	17376
901.904	17197
902.023	17140
902.141	16953
902.26	16820
902.379	16892
902.498	16877
902.617	16763
902.735	16839
902.854	16675
902.973	16793
903.091	16516
903.21	16493
903.328	16554
903.446	16348
903.565	16356
903.683	16333
903.801	16147
903.919	16215
904.038	16291
904.156	16196
904.274	16162
904.392	16051
904.51	16013
904.627	16048
904.745	15987
904.863	16059
904.981	15960
905.098	15808
905.216	15728
905.334	15808
905.451	15747
905.569	15720
905.686	15720
905.803	15663
905.921	15500
906.038	15591
906.155	15500
906.272	15435
906.389	15389
906.506	15256
906.623	15214
906.74	15256
906.857	15150
906.974	15097
907.091	15378
907.208	15351
907.324	15142
907.441	15146
907.557	15001
907.674	15024
907.79	14925
907.907	14944
908.023	15039
908.139	15005
908.256	14910
908.372	14880
908.488	14788
908.604	14686
908.72	14701
908.836	14720
908.952	14651
909.068	14701
909.184	14705
909.3	14575
909.415	14701
909.531	14598
909.647	14492
909.762	14313
909.878	14309
909.993	14465
910.108	14221
910.224	14305
910.339	14298
910.454	14221
910.57	14237
910.685	14126
910.8	14404
910.915	14347
911.03	14202
911.145	13989
911.259	14035
911.374	14012
911.489	13928
911.604	13875
911.718	13776
911.833	13719
911.947	13563
912.062	13533
912.176	13689
912.291	13795
912.405	13715
912.519	13921
912.633	13860
912.748	13814
912.862	13708
912.976	13639
913.09	13540
913.204	13578
913.318	13571
913.431	13681
913.545	13681
913.659	13693
913.772	13582
913.886	13411
914	13502
914.113	13521
914.226	13563
914.34	13449
914.453	13289
914.566	13506
914.68	13415
914.793	13327
914.906	13187
915.019	13084
915.132	13042
915.245	13069
915.358	13156
915.47	13103
915.583	13114
915.696	13099
915.809	13202
915.921	13293
916.034	13088
916.146	12977
916.259	12993
916.371	12993
916.483	13050
916.595	13065
916.708	13050
916.82	12901
916.932	13023
917.044	13015
917.156	12981
917.268	12821
917.38	12825
917.491	12760
917.603	12795
917.715	12962
917.826	12867
917.938	12787
918.049	12616
918.161	12776
918.272	13027
918.384	12837
918.495	12821
918.606	12559
918.717	12521
918.828	12639
918.939	12722
919.05	12464
919.161	12585
919.272	12410
919.383	12460
919.494	12635
919.604	12817
919.715	12555
919.826	12506
919.936	12612
920.047	12623
920.157	12684
920.267	12791
920.378	12616
920.488	12467
920.598	12840
920.708	12882
920.818	12783
920.928	12707
921.038	12829
921.148	12833
921.258	12475
921.368	12410
921.477	12445
921.587	12247
921.697	12159
921.806	12433
921.916	12201
922.025	12076
922.134	12064
922.244	11973
922.353	12083
922.462	12007
922.571	11912
922.68	11764
922.789	11665
922.898	11691
923.007	11589
923.116	11627
923.224	11691
923.333	11707
923.442	11516
923.55	11452
923.659	11547
923.767	11642
923.876	11524
923.984	11524
924.092	11509
924.201	11478
924.309	11455
924.417	11459
924.525	11433
924.633	11429
924.741	12030
924.849	11193
924.956	11326
925.064	11292
925.172	11128
925.279	11162
925.387	11242
925.494	11216
925.602	11330
925.709	11296
925.816	11193
925.924	11166
926.031	11250
926.138	11113
926.245	11193
926.352	11025
926.459	11235
926.566	11155
926.673	11109
926.779	11025
926.886	10915
926.993	10915
927.099	10866
927.206	10782
927.312	10752
927.419	10790
927.525	10881
927.631	10847
927.737	10759
927.843	10687
927.95	10668
928.056	10656
928.162	10691
928.267	10668
928.373	11303
928.479	10809
928.585	10531
928.69	10637
928.796	10702
928.901	10584
929.007	10367
929.112	10535
929.218	10558
929.323	10523
929.428	10424
929.533	10550
929.638	10310
929.743	10409
929.848	10417
929.953	10356
930.058	10291
930.163	10200
930.267	10204
930.372	10363
930.477	10131
930.581	10306
930.685	10143
930.79	10093
930.894	10124
930.998	10105
931.103	10196
931.207	9816
931.311	9740
931.415	9743
931.519	9595
931.623	9481
