Data from test_V78500241_1988.txt Node
Date: Fri Mar 25 14:47:33 CST 2022
User: usil
Spectrometer: V785-0024
Trigger mode: 0
Integration Time (sec): 4.000000E-1
Scans to average: 1
Nonlinearity correction enabled: false
Boxcar width: 0
Storing dark spectrum: false
XAxis mode: Wavelengths
Number of Pixels in Spectrum: 1024
>>>>>Begin Spectral Data<<<<<
801.071	22070
801.214	22013
801.356	21705
801.499	21625
801.641	21431
801.783	21519
801.926	21587
802.068	21492
802.211	21405
802.353	21218
802.496	21036
802.638	21077
802.78	20826
802.923	20891
803.065	20796
803.208	20788
803.35	20906
803.492	20876
803.635	20906
803.777	20948
803.919	21001
804.061	21173
804.204	20815
804.346	20842
804.488	20651
804.63	20811
804.773	20594
804.915	20705
805.057	20804
805.199	20667
805.341	20758
805.483	20868
805.626	20937
805.768	20636
805.91	20693
806.052	20587
806.194	20644
806.336	20853
806.478	20670
806.62	20708
806.762	20758
806.904	20853
807.046	21085
807.188	20986
807.33	21093
807.472	20956
807.614	21085
807.756	20925
807.898	20975
808.04	20769
808.182	20769
808.324	20754
808.465	20906
808.607	20963
808.749	21104
808.891	21032
809.033	21275
809.174	21108
809.316	21077
809.458	21085
809.6	21062
809.741	21154
809.883	21062
810.025	21199
810.166	21340
810.308	21241
810.45	21256
810.591	21051
810.733	20952
810.875	20937
811.016	20910
811.158	20693
811.299	20990
811.441	20960
811.582	20842
811.724	20891
811.865	20750
812.007	20735
812.148	20845
812.29	20963
812.431	20937
812.573	21211
812.714	21256
812.855	21424
812.997	21523
813.138	21523
813.279	21511
813.421	21378
813.562	21230
813.703	21188
813.845	21020
813.986	20804
814.127	20587
814.268	20495
814.41	20518
814.551	20484
814.692	20434
814.833	20370
814.974	20434
815.115	20400
815.256	20366
815.397	20233
815.539	20294
815.68	20176
815.821	20180
815.962	20062
816.103	20077
816.244	19932
816.385	19875
816.526	19883
816.666	19647
816.807	19563
816.948	19571
817.089	19666
817.23	19670
817.371	19578
817.512	19563
817.653	19540
817.793	19464
817.934	19567
818.075	19491
818.216	19544
818.356	19521
818.497	19358
818.638	19175
818.778	19289
818.919	19362
819.06	19312
819.2	19346
819.341	19384
819.481	19480
819.622	19514
819.762	19575
819.903	19677
820.043	19571
820.184	19521
820.324	19521
820.465	19643
820.605	19460
820.746	19445
820.886	19400
821.026	19578
821.167	19392
821.307	19514
821.447	19407
821.588	19331
821.728	19297
821.868	19065
822.008	18817
822.149	18932
822.289	18837
822.429	18692
822.569	18722
822.709	18574
822.849	18464
822.99	18346
823.13	18327
823.27	18403
823.41	18148
823.55	18194
823.69	18296
823.83	18201
823.97	18262
824.11	17988
824.25	18049
824.389	17965
824.529	18053
824.669	18022
824.809	18098
824.949	18030
825.089	18110
825.228	18076
825.368	17847
825.508	17764
825.648	17790
825.787	17904
825.927	17920
826.067	17809
826.206	17703
826.346	17783
826.485	17851
826.625	17775
826.765	17942
826.904	17760
827.044	17543
827.183	17532
827.323	17497
827.462	17528
827.601	17368
827.741	17581
827.88	17463
828.02	17376
828.159	17414
828.298	17486
828.437	17528
828.577	17387
828.716	17665
828.855	17406
828.994	17303
829.134	17235
829.273	17277
829.412	17246
829.551	17200
829.69	17288
829.829	17250
829.968	17326
830.107	17288
830.246	17220
830.385	17117
830.524	17132
830.663	16995
830.802	17018
830.941	16911
831.08	16911
831.219	16915
831.357	16953
831.496	17041
831.635	16858
831.774	16850
831.913	16733
832.051	16634
832.19	16637
832.329	16744
832.467	16630
832.606	16474
832.744	16504
832.883	16577
833.022	16565
833.16	16531
833.299	16645
833.437	16485
833.576	16546
833.714	16523
833.852	16691
833.991	16603
834.129	16653
834.267	16653
834.406	16645
834.544	16656
834.682	16596
834.821	16596
834.959	16824
835.097	16531
835.235	16618
835.373	16588
835.511	16603
835.65	16565
835.788	16508
835.926	16390
836.064	16322
836.202	16413
836.34	16634
836.478	16596
836.615	16546
836.753	16630
836.891	16523
837.029	16626
837.167	16523
837.305	16436
837.443	16421
837.58	16443
837.718	16497
837.856	16409
837.993	16417
838.131	16382
838.269	16215
838.406	16352
838.544	16230
838.681	16082
838.819	16082
838.956	15998
839.094	16078
839.231	16002
839.369	16105
839.506	16299
839.643	16051
839.781	15911
839.918	15922
840.055	15941
840.193	15907
840.33	15903
840.467	15945
840.604	15873
840.742	16223
840.879	15797
841.016	15770
841.153	15804
841.29	16067
841.427	16032
841.564	15979
841.701	15945
841.838	15842
841.975	15857
842.112	15850
842.249	15755
842.385	15698
842.522	15911
842.659	15694
842.796	15667
842.933	15808
843.069	15728
843.206	15694
843.343	15819
843.479	15690
843.616	15759
843.752	15553
843.889	15545
844.025	15679
844.162	15443
844.298	15671
844.435	15545
844.571	15488
844.708	15477
844.844	15648
844.98	15591
845.117	15610
845.253	15458
845.389	15424
845.525	15473
845.661	15454
845.798	15382
845.934	15351
846.07	15241
846.206	15458
846.342	15492
846.478	15386
846.614	15047
846.75	15150
846.886	15047
847.022	15161
847.158	15123
847.294	15100
847.429	15207
847.565	15085
847.701	15321
847.837	14876
847.972	14785
848.108	14868
848.244	14918
848.379	14739
848.515	14636
848.65	14670
848.786	14693
848.921	14686
849.057	14857
849.192	14800
849.328	14750
849.463	14632
849.598	14712
849.734	14484
849.869	14644
850.004	14537
850.14	14461
850.275	14438
850.41	14317
850.545	14377
850.68	14438
850.815	14514
850.95	14438
851.085	14670
851.22	14560
851.355	14526
851.49	14362
851.625	14469
851.76	14336
851.895	14446
852.03	14415
852.165	14343
852.299	14495
852.434	14564
852.569	14469
852.703	14400
852.838	14518
852.973	14571
853.107	14541
853.242	14415
853.376	14301
853.511	14305
853.645	14237
853.78	14495
853.914	14339
854.048	14355
854.183	14324
854.317	14290
854.451	14450
854.585	14256
854.72	14237
854.854	14301
854.988	14286
855.122	14229
855.256	14183
855.39	14290
855.524	14362
855.658	14415
855.792	14313
855.926	14343
856.06	14400
856.194	14484
856.327	14332
856.461	14286
856.595	14145
856.729	14278
856.862	14480
856.996	14313
857.13	14343
857.263	14549
857.397	14465
857.53	14290
857.664	14431
857.797	14320
857.931	14473
858.064	14328
858.197	14495
858.331	14313
858.464	14256
858.597	14229
858.731	14370
858.864	14324
858.997	14317
859.13	14351
859.263	14328
859.396	14423
859.529	14259
859.662	14290
859.795	14195
859.928	14332
860.061	14419
860.194	14530
860.327	14305
860.46	14290
860.592	14404
860.725	14457
860.858	14393
860.99	14286
861.123	14183
861.256	14252
861.388	14389
861.521	15039
861.653	14244
861.786	14115
861.918	14218
862.05	14290
862.183	14286
862.315	14434
862.447	14408
862.58	14218
862.712	14073
862.844	14008
862.976	14252
863.108	14240
863.24	14434
863.372	14012
863.504	14062
863.636	14031
863.768	14103
863.9	14126
864.032	14081
864.164	14050
864.296	14180
864.428	14142
864.559	14195
864.691	14065
864.823	14145
864.954	14153
865.086	14214
865.217	14050
865.349	14024
865.48	14119
865.612	14058
865.743	14214
865.875	14096
866.006	13989
866.137	14039
866.269	14065
866.4	14092
866.531	14069
866.662	14012
866.793	13978
866.924	14027
867.055	14142
867.186	14069
867.317	13932
867.448	14024
867.579	14016
867.71	14005
867.841	13978
867.972	14005
868.103	14145
868.233	14050
868.364	14123
868.495	14115
868.625	14259
868.756	14332
868.886	14313
869.017	14374
869.147	14465
869.278	14476
869.408	14290
869.539	14324
869.669	14396
869.799	14434
869.929	14480
870.06	14427
870.19	14644
870.32	14606
870.45	14705
870.58	14804
870.71	14845
870.84	14819
870.97	14746
871.1	14701
871.23	14918
871.36	14948
871.489	14823
871.619	14899
871.749	14933
871.879	14971
872.008	15104
872.138	14842
872.267	14910
872.397	14781
872.526	14674
872.656	14746
872.785	14724
872.915	14982
873.044	15051
873.173	14883
873.303	15036
873.432	14971
873.561	15009
873.69	14990
873.819	14906
873.948	15074
874.077	14963
874.206	14971
874.335	15116
874.464	15161
874.593	15218
874.722	15222
874.851	15336
874.979	15329
875.108	15325
875.237	15260
875.365	15348
875.494	15321
875.623	15389
875.751	15344
875.88	15348
876.008	15435
876.136	15591
876.265	15675
876.393	15797
876.521	15816
876.65	15808
876.778	15728
876.906	15625
877.034	15648
877.162	15633
877.29	15576
877.418	15667
877.546	15675
877.674	15747
877.802	15759
877.93	15667
878.058	15686
878.185	15610
878.313	15618
878.441	15732
878.568	15572
878.696	15682
878.824	15675
878.951	15724
879.079	15861
879.206	15880
879.333	15899
879.461	15770
879.588	15808
879.715	15869
879.842	16051
879.97	15732
880.097	15652
880.224	15473
880.351	15675
880.478	15538
880.605	15572
880.732	15561
880.859	15785
880.986	15644
881.112	15633
881.239	15378
881.366	15336
881.493	15287
881.619	15108
881.746	15291
881.872	15157
881.999	15226
882.125	15154
882.252	15249
882.378	15199
882.505	15336
882.631	15154
882.757	15108
882.883	15097
883.01	15093
883.136	14902
883.262	14853
883.388	14834
883.514	14998
883.64	15138
883.766	14933
883.892	14941
884.018	14864
884.143	14933
884.269	15081
884.395	14868
884.52	14682
884.646	14826
884.772	14682
884.897	14651
885.023	14697
885.148	14906
885.274	14944
885.399	14804
885.524	14788
885.65	14701
885.775	14754
885.9	14781
886.025	14807
886.15	14754
886.275	14716
886.4	14541
886.525	14773
886.65	14560
886.775	14655
886.9	14906
887.025	15001
887.149	14590
887.274	14545
887.399	14461
887.523	14552
887.648	14473
887.773	14511
887.897	14686
888.021	14655
888.146	14579
888.27	14678
888.395	14693
888.519	14602
888.643	14632
888.767	14670
888.891	14446
889.015	14419
889.139	14526
889.263	14442
889.387	14488
889.511	14545
889.635	14549
889.759	14454
889.883	14358
890.006	14450
890.13	14564
890.254	14423
890.377	14351
890.501	14210
890.624	14199
890.748	14267
890.871	14168
890.995	14096
891.118	14081
891.241	14130
891.364	14046
891.488	14202
891.611	14111
891.734	14172
891.857	14157
891.98	14130
892.103	14199
892.226	14161
892.349	14073
892.471	14031
892.594	14145
892.717	14130
892.839	14100
892.962	14115
893.085	14210
893.207	14138
893.33	14043
893.452	14069
893.575	14252
893.697	14233
893.819	14248
893.941	14278
894.064	14259
894.186	14092
894.308	14077
894.43	14225
894.552	14423
894.674	14320
894.796	14035
894.918	14130
895.04	14157
895.161	14339
895.283	14263
895.405	14138
895.526	14195
895.648	14149
895.769	14305
895.891	14267
896.012	14267
896.134	14324
896.255	14347
896.376	14263
896.498	14286
896.619	14328
896.74	14309
896.861	14324
896.982	14640
897.103	14739
897.224	14541
897.345	14530
897.466	14511
897.587	14438
897.708	14617
897.828	14587
897.949	14556
898.07	14476
898.19	14590
898.311	14697
898.431	14590
898.552	14636
898.672	14724
898.792	14773
898.913	14659
899.033	14625
899.153	14552
899.273	14450
899.393	14469
899.513	14484
899.633	14396
899.753	14514
899.873	14412
899.993	14617
900.113	14457
900.232	14503
900.352	14473
900.472	14419
900.591	14393
900.711	14336
900.83	14347
900.95	14507
901.069	14427
901.189	14366
901.308	14039
901.427	13967
901.546	14096
901.665	14069
901.784	13997
901.904	13833
902.023	13826
902.141	13693
902.26	13571
902.379	13780
902.498	13605
902.617	13548
902.735	13639
902.854	13548
902.973	13559
903.091	13365
903.21	13278
903.328	13316
903.446	13285
903.565	13244
903.683	13244
903.801	13095
903.919	13152
904.038	13053
904.156	13031
904.274	12996
904.392	12989
904.51	12993
904.627	13031
904.745	13019
904.863	12996
904.981	12833
905.098	12681
905.216	12627
905.334	12726
905.451	12772
905.569	12741
905.686	12730
905.803	12696
905.921	12422
906.038	12646
906.155	12517
906.272	12388
906.389	12441
906.506	12330
906.623	12281
906.74	12232
906.857	12201
906.974	12133
907.091	12399
907.208	12346
907.324	12277
907.441	12194
907.557	12038
907.674	12083
907.79	12011
907.907	11965
908.023	12038
908.139	12015
908.256	12022
908.372	11923
908.488	11923
908.604	11821
908.72	11813
908.836	11726
908.952	11729
909.068	11828
909.184	11908
909.3	11752
909.415	11897
909.531	11878
909.647	11547
909.762	11528
909.878	11577
909.993	11695
910.108	11497
910.224	11478
910.339	11512
910.454	11509
910.57	11379
910.685	11315
910.8	11672
910.915	11524
911.03	11474
911.145	11315
911.259	11246
911.374	11277
911.489	11162
911.604	11037
911.718	11060
911.833	11052
911.947	10904
912.062	10805
912.176	10999
912.291	10938
912.405	10995
912.519	11223
912.633	11166
912.748	11151
912.862	11022
912.976	10877
913.09	10763
913.204	10839
913.318	10911
913.431	11048
913.545	10938
913.659	10999
913.772	10961
913.886	10763
914	10736
914.113	10847
914.226	10946
914.34	10816
914.453	10744
914.566	10881
914.68	10721
914.793	10687
914.906	10603
915.019	10489
915.132	10424
915.245	10641
915.358	10512
915.47	10519
915.583	10565
915.696	10497
915.809	10744
915.921	10615
916.034	10531
916.146	10481
916.259	10413
916.371	10538
916.483	10584
916.595	10428
916.708	10424
916.82	10519
916.932	10386
917.044	10424
917.156	10402
917.268	10295
917.38	10367
917.491	10295
917.603	10379
917.715	10436
917.826	10481
917.938	10348
918.049	10169
918.161	10375
918.272	10577
918.384	10481
918.495	10409
918.606	10257
918.717	10131
918.828	10242
918.939	10238
919.05	10177
919.161	10196
919.272	9994
919.383	10135
919.494	10246
919.604	10451
919.715	10223
919.826	10219
919.936	10120
920.047	10310
920.157	10303
920.267	10497
920.378	10303
920.488	10253
920.598	10462
920.708	10561
920.818	10398
920.928	10432
921.038	10569
921.148	10565
921.258	10280
921.368	10207
921.477	10036
921.587	10131
921.697	9983
921.806	10086
921.916	10021
922.025	9892
922.134	9842
922.244	9838
922.353	9823
922.462	9720
922.571	9663
922.68	9504
922.789	9374
922.898	9515
923.007	9443
923.116	9526
923.224	9469
923.333	9507
923.442	9336
923.55	9386
923.659	9435
923.767	9439
923.876	9348
923.984	9393
924.092	9264
924.201	9393
924.309	9329
924.417	9306
924.525	9294
924.633	9363
924.741	10204
924.849	9161
924.956	9317
925.064	9165
925.172	9104
925.279	9112
925.387	9081
925.494	9173
925.602	9294
925.709	9180
925.816	8990
925.924	9135
926.031	9294
926.138	9127
926.245	9184
926.352	9058
926.459	9192
926.566	9180
926.673	9085
926.779	9077
926.886	9005
926.993	8933
927.099	8807
927.206	8861
927.312	8796
927.419	8880
927.525	8861
927.631	8849
927.737	8815
927.843	8804
927.95	8682
928.056	8746
928.162	8731
928.267	8781
928.373	9397
928.479	8819
928.585	8617
928.69	8697
928.796	8697
928.901	8636
929.007	8556
929.112	8602
929.218	8598
929.323	8606
929.428	8579
929.533	8651
929.638	8499
929.743	8590
929.848	8625
929.953	8541
930.058	8454
930.163	8351
930.267	8366
930.372	8492
930.477	8290
930.581	8530
930.685	8457
930.79	8294
930.894	8294
930.998	8271
931.103	8492
931.207	8035
931.311	7993
931.415	7925
931.519	7765
931.623	7814
