Data from test_V78500241_1242.txt Node
Date: Fri Mar 25 14:42:21 CST 2022
User: usil
Spectrometer: V785-0024
Trigger mode: 0
Integration Time (sec): 4.000000E-1
Scans to average: 1
Nonlinearity correction enabled: false
Boxcar width: 0
Storing dark spectrum: false
XAxis mode: Wavelengths
Number of Pixels in Spectrum: 1024
>>>>>Begin Spectral Data<<<<<
801.071	22481
801.214	22322
801.356	21934
801.499	21831
801.641	21827
801.783	21819
801.926	21755
802.068	21797
802.211	21629
802.353	21576
802.496	21321
802.638	21188
802.78	21218
802.923	21135
803.065	21100
803.208	21058
803.35	21043
803.492	21203
803.635	21275
803.777	21138
803.919	21241
804.061	21450
804.204	21131
804.346	20941
804.488	20933
804.63	21028
804.773	20921
804.915	20994
805.057	21119
805.199	20952
805.341	20998
805.483	21047
805.626	21009
805.768	20906
805.91	20975
806.052	21096
806.194	20921
806.336	21062
806.478	21036
806.62	20963
806.762	21093
806.904	21249
807.046	21485
807.188	21355
807.33	21405
807.472	21439
807.614	21264
807.756	21367
807.898	21306
808.04	21165
808.182	21214
808.324	21195
808.465	21310
808.607	21458
808.749	21538
808.891	21504
809.033	21667
809.174	21538
809.316	21450
809.458	21606
809.6	21431
809.741	21553
809.883	21458
810.025	21595
810.166	21637
810.308	21720
810.45	21564
810.591	21481
810.733	21230
810.875	21211
811.016	21214
811.158	21146
811.299	21336
811.441	21431
811.582	21325
811.724	21279
811.865	21131
812.007	21214
812.148	21043
812.29	21245
812.431	21416
812.573	21450
812.714	21587
812.855	21709
812.997	21694
813.138	21911
813.279	21800
813.421	21705
813.562	21656
813.703	21538
813.845	21401
813.986	21123
814.127	20933
814.268	20773
814.41	20739
814.551	20773
814.692	20864
814.833	20617
814.974	20716
815.115	20739
815.256	20689
815.397	20541
815.539	20621
815.68	20537
815.821	20545
815.962	20469
816.103	20442
816.244	20362
816.385	20305
816.526	20210
816.666	20062
816.807	20043
816.948	20062
817.089	20130
817.23	19921
817.371	19894
817.512	19925
817.653	19890
817.793	19917
817.934	19780
818.075	19902
818.216	19856
818.356	19879
818.497	19746
818.638	19571
818.778	19632
818.919	19605
819.06	19556
819.2	19693
819.341	19879
819.481	19727
819.622	19913
819.762	20077
819.903	20016
820.043	19928
820.184	19986
820.324	19936
820.465	19978
820.605	19913
820.746	19860
820.886	19860
821.026	19940
821.167	19818
821.307	20073
821.447	19795
821.588	19651
821.728	19582
821.868	19457
822.008	19304
822.149	19228
822.289	19244
822.429	19099
822.569	18951
822.709	19038
822.849	18806
822.99	18848
823.13	18719
823.27	18700
823.41	18597
823.55	18570
823.69	18593
823.83	18604
823.97	18422
824.11	18357
824.25	18342
824.389	18380
824.529	18502
824.669	18277
824.809	18494
824.949	18403
825.089	18452
825.228	18384
825.368	18296
825.508	18224
825.648	18220
825.787	18239
825.927	18194
826.067	18125
826.206	18110
826.346	18239
826.485	18205
826.625	18064
826.765	18315
826.904	18209
827.044	17973
827.183	17950
827.323	17764
827.462	17973
827.601	17847
827.741	17901
827.88	17920
828.02	17714
828.159	17866
828.298	17961
828.437	17961
828.577	17794
828.716	17988
828.855	17828
828.994	17623
829.134	17646
829.273	17710
829.412	17649
829.551	17512
829.69	17611
829.829	17611
829.968	17748
830.107	17668
830.246	17600
830.385	17558
830.524	17581
830.663	17490
830.802	17307
830.941	17261
831.08	17140
831.219	17254
831.357	17254
831.496	17410
831.635	17136
831.774	17155
831.913	17223
832.051	17052
832.19	17048
832.329	17048
832.467	16927
832.606	16972
832.744	16919
832.883	16915
833.022	16934
833.16	16923
833.299	16938
833.437	16949
833.576	17025
833.714	16911
833.852	17025
833.991	17041
834.129	17041
834.267	17102
834.406	16999
834.544	17197
834.682	17022
834.821	17003
834.959	17132
835.097	16995
835.235	17045
835.373	16965
835.511	17014
835.65	16904
835.788	16915
835.926	16729
836.064	16805
836.202	16618
836.34	16987
836.478	17018
836.615	16889
836.753	16930
836.891	16911
837.029	16995
837.167	16911
837.305	16862
837.443	16771
837.58	16675
837.718	16801
837.856	16854
837.993	16774
838.131	16881
838.269	16679
838.406	16763
838.544	16698
838.681	16497
838.819	16455
838.956	16306
839.094	16341
839.231	16344
839.369	16424
839.506	16763
839.643	16607
839.781	16314
839.918	16276
840.055	16287
840.193	16280
840.33	16265
840.467	16284
840.604	16341
840.742	16599
840.879	16166
841.016	16166
841.153	16234
841.29	16394
841.427	16348
841.564	16371
841.701	16375
841.838	16348
841.975	16207
842.112	16253
842.249	16154
842.385	16017
842.522	16287
842.659	16162
842.796	15956
842.933	16093
843.069	16112
843.206	15953
843.343	16223
843.479	16173
843.616	16135
843.752	15846
843.889	15930
844.025	15979
844.162	15899
844.298	15979
844.435	15975
844.571	15831
844.708	15991
844.844	16082
844.98	16036
845.117	16032
845.253	15800
845.389	15800
845.525	15835
845.661	15743
845.798	15766
845.934	15846
846.07	15865
846.206	15949
846.342	15857
846.478	15774
846.614	15591
846.75	15492
846.886	15454
847.022	15564
847.158	15561
847.294	15447
847.429	15519
847.565	15397
847.701	15622
847.837	15249
847.972	15245
848.108	15268
848.244	15279
848.379	15165
848.515	15058
848.65	14929
848.786	15024
848.921	15005
849.057	15116
849.192	15116
849.328	15157
849.463	15070
849.598	15043
849.734	14998
849.869	14895
850.004	14864
850.14	14979
850.275	14921
850.41	14781
850.545	14762
850.68	14853
850.815	14769
850.95	14781
851.085	14979
851.22	14895
851.355	14895
851.49	14708
851.625	14826
851.76	14788
851.895	14762
852.03	14754
852.165	14826
852.299	14845
852.434	14845
852.569	14845
852.703	14785
852.838	15028
852.973	14956
853.107	14971
853.242	14708
853.376	14743
853.511	14606
853.645	14682
853.78	14785
853.914	14777
854.048	14602
854.183	14686
854.317	14648
854.451	14937
854.585	14621
854.72	14655
854.854	14724
854.988	14575
855.122	14697
855.256	14575
855.39	14617
855.524	14735
855.658	14739
855.792	14754
855.926	14811
856.06	14674
856.194	14853
856.327	14663
856.461	14564
856.595	14644
856.729	14648
856.862	14750
856.996	14754
857.13	14746
857.263	14796
857.397	14811
857.53	14727
857.664	14701
857.797	14830
857.931	14800
858.064	14629
858.197	14777
858.331	14613
858.464	14636
858.597	14549
858.731	14705
858.864	14705
858.997	14678
859.13	14667
859.263	14693
859.396	14769
859.529	14598
859.662	14621
859.795	14606
859.928	14625
860.061	14918
860.194	14975
860.327	14727
860.46	14625
860.592	14746
860.725	14857
860.858	14788
860.99	14636
861.123	14537
861.256	14606
861.388	14632
861.521	15469
861.653	14693
861.786	14461
861.918	14457
862.05	14629
862.183	14552
862.315	14712
862.447	14686
862.58	14564
862.712	14404
862.844	14362
862.976	14564
863.108	14514
863.24	14876
863.372	14400
863.504	14457
863.636	14423
863.768	14522
863.9	14404
864.032	14488
864.164	14461
864.296	14408
864.428	14560
864.559	14590
864.691	14594
864.823	14526
864.954	14473
865.086	14545
865.217	14339
865.349	14347
865.48	14404
865.612	14438
865.743	14568
865.875	14465
866.006	14442
866.137	14522
866.269	14351
866.4	14465
866.531	14575
866.662	14396
866.793	14305
866.924	14396
867.055	14442
867.186	14419
867.317	14412
867.448	14282
867.579	14385
867.71	14351
867.841	14351
867.972	14408
868.103	14480
868.233	14404
868.364	14385
868.495	14434
868.625	14758
868.756	14625
868.886	14697
869.017	14625
869.147	14804
869.278	14705
869.408	14708
869.539	14625
869.669	14849
869.799	14731
869.929	14788
870.06	14777
870.19	15005
870.32	14910
870.45	15047
870.58	15077
870.71	15157
870.84	15237
870.97	15039
871.1	15062
871.23	15245
871.36	15135
871.489	15283
871.619	15199
871.749	15287
871.879	15340
872.008	15291
872.138	15256
872.267	15233
872.397	15218
872.526	15173
872.656	15146
872.785	15100
872.915	15294
873.044	15382
873.173	15325
873.303	15382
873.432	15340
873.561	15386
873.69	15370
873.819	15329
873.948	15359
874.077	15344
874.206	15336
874.335	15355
874.464	15393
874.593	15610
874.722	15603
874.851	15641
874.979	15679
875.108	15705
875.237	15549
875.365	15504
875.494	15667
875.623	15644
875.751	15671
875.88	15660
876.008	15781
876.136	15869
876.265	16044
876.393	16223
876.521	16181
876.65	16173
876.778	16131
876.906	16029
877.034	16078
877.162	15991
877.29	16029
877.418	16048
877.546	16063
877.674	16025
877.802	16097
877.93	16093
878.058	16044
878.185	15968
878.313	16040
878.441	15937
878.568	15949
878.696	16059
878.824	16093
878.951	16120
879.079	16173
879.206	16440
879.333	16185
879.461	16185
879.588	16169
879.715	16276
879.842	16470
879.97	16234
880.097	15945
880.224	15937
880.351	15960
880.478	15945
880.605	15835
880.732	15911
880.859	16150
880.986	15953
881.112	16010
881.239	15850
881.366	15762
881.493	15576
881.619	15564
881.746	15603
881.872	15614
881.999	15534
882.125	15523
882.252	15667
882.378	15568
882.505	15713
882.631	15515
882.757	15526
882.883	15507
883.01	15340
883.136	15458
883.262	15340
883.388	15302
883.514	15454
883.64	15488
883.766	15321
883.892	15211
884.018	15268
884.143	15279
884.269	15481
884.395	15256
884.52	15131
884.646	15127
884.772	14979
884.897	14975
885.023	15039
885.148	15188
885.274	15154
885.399	15176
885.524	15173
885.65	15123
885.775	15154
885.9	15104
886.025	15176
886.15	15203
886.275	15005
886.4	14998
886.525	15028
886.65	14998
886.775	14994
886.9	15230
887.025	15351
887.149	15085
887.274	14982
887.399	14899
887.523	14864
887.648	14823
887.773	14792
887.897	14952
888.021	14963
888.146	14842
888.27	14971
888.395	15104
888.519	14990
888.643	15001
888.767	14986
888.891	14921
889.015	14750
889.139	14777
889.263	14788
889.387	14925
889.511	15005
889.635	14864
889.759	14762
889.883	14762
890.006	14834
890.13	14929
890.254	14701
890.377	14686
890.501	14613
890.624	14552
890.748	14682
890.871	14549
890.995	14419
891.118	14465
891.241	14404
891.364	14488
891.488	14598
891.611	14423
891.734	14469
891.857	14530
891.98	14549
892.103	14621
892.226	14530
892.349	14332
892.471	14343
892.594	14552
892.717	14442
892.839	14484
892.962	14427
893.085	14545
893.207	14454
893.33	14366
893.452	14404
893.575	14450
893.697	14454
893.819	14587
893.941	14686
894.064	14571
894.186	14484
894.308	14427
894.43	14560
894.552	14621
894.674	14594
894.796	14446
894.918	14446
895.04	14446
895.161	14640
895.283	14522
895.405	14522
895.526	14594
895.648	14511
895.769	14545
895.891	14636
896.012	14617
896.134	14655
896.255	14697
896.376	14659
896.498	14617
896.619	14571
896.74	14625
896.861	14693
896.982	14952
897.103	15089
897.224	14880
897.345	14857
897.466	14906
897.587	14914
897.708	14963
897.828	14960
897.949	14880
898.07	14807
898.19	14872
898.311	15005
898.431	14925
898.552	15051
898.672	15085
898.792	15028
898.913	14979
899.033	14929
899.153	14845
899.273	14689
899.393	14800
899.513	14781
899.633	14857
899.753	14941
899.873	14720
899.993	14868
900.113	14792
900.232	14785
900.352	14918
900.472	14750
900.591	14560
900.711	14815
900.83	14575
900.95	14804
901.069	14819
901.189	14533
901.308	14374
901.427	14263
901.546	14301
901.665	14324
901.784	14370
901.904	14103
902.023	14126
902.141	13928
902.26	13940
902.379	14039
902.498	13883
902.617	13833
902.735	13936
902.854	13936
902.973	13769
903.091	13525
903.21	13632
903.328	13590
903.446	13544
903.565	13377
903.683	13468
903.801	13285
903.919	13438
904.038	13362
904.156	13209
904.274	13396
904.392	13365
904.51	13304
904.627	13324
904.745	13316
904.863	13179
904.981	13061
905.098	12993
905.216	12951
905.334	12962
905.451	12951
905.569	12916
905.686	13008
905.803	12875
905.921	12825
906.038	12890
906.155	12711
906.272	12665
906.389	12608
906.506	12597
906.623	12555
906.74	12502
906.857	12479
906.974	12475
907.091	12536
907.208	12722
907.324	12597
907.441	12464
907.557	12365
907.674	12296
907.79	12289
907.907	12182
908.023	12346
908.139	12418
908.256	12213
908.372	12201
908.488	12152
908.604	12178
908.72	12026
908.836	12106
908.952	12053
909.068	12057
909.184	12243
909.3	12007
909.415	12129
909.531	12136
909.647	11783
909.762	11813
909.878	11741
909.993	11847
910.108	11821
910.224	11786
910.339	11927
910.454	11786
910.57	11630
910.685	11573
910.8	11863
910.915	11809
911.03	11745
911.145	11653
911.259	11562
911.374	11558
911.489	11486
911.604	11387
911.718	11174
911.833	11288
911.947	11143
912.062	11041
912.176	11296
912.291	11315
912.405	11231
912.519	11459
912.633	11528
912.748	11307
912.862	11265
912.976	11166
913.09	11056
913.204	11060
913.318	11181
913.431	11296
913.545	11181
913.659	11280
913.772	11113
913.886	11140
914	11033
914.113	11117
914.226	11181
914.34	11102
914.453	10911
914.566	11090
914.68	10980
914.793	10995
914.906	10854
915.019	10755
915.132	10588
915.245	10736
915.358	10854
915.47	10843
915.583	10763
915.696	10843
915.809	10881
915.921	10877
916.034	10748
916.146	10733
916.259	10649
916.371	10816
916.483	10736
916.595	10702
916.708	10698
916.82	10771
916.932	10668
917.044	10736
917.156	10615
917.268	10550
917.38	10550
917.491	10577
917.603	10607
917.715	10649
917.826	10630
917.938	10599
918.049	10432
918.161	10550
918.272	10767
918.384	10603
918.495	10641
918.606	10459
918.717	10306
918.828	10462
918.939	10474
919.05	10371
919.161	10508
919.272	10234
919.383	10295
919.494	10398
919.604	10626
919.715	10485
919.826	10360
919.936	10455
920.047	10497
920.157	10508
920.267	10592
920.378	10485
920.488	10447
920.598	10714
920.708	10782
920.818	10668
920.928	10668
921.038	10725
921.148	10752
921.258	10527
921.368	10367
921.477	10344
921.587	10246
921.697	10227
921.806	10325
921.916	10219
922.025	10013
922.134	9991
922.244	9956
922.353	10078
922.462	9850
922.571	9804
922.68	9774
922.789	9641
922.898	9705
923.007	9682
923.116	9705
923.224	9720
923.333	9747
923.442	9629
923.55	9572
923.659	9519
923.767	9694
923.876	9587
923.984	9625
924.092	9534
924.201	9591
924.309	9595
924.417	9572
924.525	9511
924.633	9500
924.741	10261
924.849	9329
924.956	9530
925.064	9351
925.172	9253
925.279	9298
925.387	9355
925.494	9310
925.602	9420
925.709	9428
925.816	9214
925.924	9279
926.031	9367
926.138	9313
926.245	9359
926.352	9287
926.459	9405
926.566	9458
926.673	9253
926.779	9211
926.886	9150
926.993	9039
927.099	9032
927.206	9024
927.312	8914
927.419	9009
927.525	9058
927.631	9146
927.737	8880
927.843	8994
927.95	8864
928.056	8834
928.162	8975
928.267	8998
928.373	9568
928.479	9009
928.585	8762
928.69	8971
928.796	8925
928.901	8800
929.007	8785
929.112	8842
929.218	8842
929.323	8712
929.428	8777
929.533	8796
929.638	8659
929.743	8739
929.848	8834
929.953	8781
930.058	8598
930.163	8541
930.267	8507
930.372	8617
930.477	8438
930.581	8705
930.685	8556
930.79	8465
930.894	8537
930.998	8408
931.103	8667
931.207	8237
931.311	8111
931.415	8130
931.519	8008
931.623	7928
