Data from test_V78500241_1937.txt Node
Date: Fri Mar 25 14:47:12 CST 2022
User: usil
Spectrometer: V785-0024
Trigger mode: 0
Integration Time (sec): 4.000000E-1
Scans to average: 1
Nonlinearity correction enabled: false
Boxcar width: 0
Storing dark spectrum: false
XAxis mode: Wavelengths
Number of Pixels in Spectrum: 1024
>>>>>Begin Spectral Data<<<<<
801.071	22082
801.214	21987
801.356	21660
801.499	21576
801.641	21428
801.783	21332
801.926	21431
802.068	21428
802.211	21329
802.353	21294
802.496	20929
802.638	21146
802.78	20857
802.923	20887
803.065	20765
803.208	20678
803.35	20804
803.492	20853
803.635	21051
803.777	20792
803.919	20868
804.061	21199
804.204	20807
804.346	20705
804.488	20670
804.63	20743
804.773	20594
804.915	20689
805.057	20762
805.199	20625
805.341	20773
805.483	20807
805.626	20845
805.768	20655
805.91	20769
806.052	20648
806.194	20712
806.336	20838
806.478	20682
806.62	20598
806.762	20648
806.904	20944
807.046	21142
807.188	20986
807.33	20975
807.472	21077
807.614	20925
807.756	21051
807.898	20788
808.04	20674
808.182	20648
808.324	20807
808.465	20880
808.607	20902
808.749	21173
808.891	21150
809.033	21249
809.174	21074
809.316	21096
809.458	21116
809.6	21074
809.741	21127
809.883	21165
810.025	21325
810.166	21249
810.308	21272
810.45	21184
810.591	21104
810.733	20887
810.875	20849
811.016	20743
811.158	20826
811.299	20834
811.441	21013
811.582	21074
811.724	20906
811.865	20754
812.007	20777
812.148	20823
812.29	20921
812.431	21096
812.573	21058
812.714	21268
812.855	21428
812.997	21439
813.138	21603
813.279	21367
813.421	21298
813.562	21321
813.703	21222
813.845	21036
813.986	20667
814.127	20503
814.268	20301
814.41	20400
814.551	20347
814.692	20518
814.833	20309
814.974	20347
815.115	20366
815.256	20210
815.397	20218
815.539	20278
815.68	20024
815.821	20050
815.962	20161
816.103	19974
816.244	19932
816.385	19887
816.526	19788
816.666	19799
816.807	19548
816.948	19674
817.089	19708
817.23	19525
817.371	19483
817.512	19544
817.653	19468
817.793	19495
817.934	19537
818.075	19556
818.216	19506
818.356	19495
818.497	19304
818.638	19187
818.778	19278
818.919	19190
819.06	19187
819.2	19396
819.341	19430
819.481	19434
819.622	19510
819.762	19674
819.903	19525
820.043	19518
820.184	19533
820.324	19441
820.465	19540
820.605	19563
820.746	19514
820.886	19384
821.026	19655
821.167	19426
821.307	19449
821.447	19525
821.588	19346
821.728	19289
821.868	19171
822.008	18966
822.149	18863
822.289	18962
822.429	18688
822.569	18620
822.709	18658
822.849	18422
822.99	18414
823.13	18399
823.27	18395
823.41	18254
823.55	18273
823.69	18296
823.83	18232
823.97	18174
824.11	18034
824.25	17984
824.389	17980
824.529	18034
824.669	18034
824.809	18117
824.949	17882
825.089	18110
825.228	18030
825.368	17779
825.508	17805
825.648	17901
825.787	17859
825.927	17878
826.067	17684
826.206	17657
826.346	17790
826.485	17665
826.625	17824
826.765	17961
826.904	17840
827.044	17608
827.183	17387
827.323	17478
827.462	17501
827.601	17360
827.741	17436
827.88	17596
828.02	17315
828.159	17478
828.298	17467
828.437	17573
828.577	17539
828.716	17619
828.855	17417
828.994	17170
829.134	17334
829.273	17284
829.412	17223
829.551	17098
829.69	17140
829.829	17242
829.968	17398
830.107	17239
830.246	17258
830.385	17220
830.524	17170
830.663	17067
830.802	16923
830.941	16847
831.08	16869
831.219	16896
831.357	16938
831.496	17025
831.635	16816
831.774	16744
831.913	16672
832.051	16607
832.19	16645
832.329	16744
832.467	16596
832.606	16481
832.744	16565
832.883	16500
833.022	16538
833.16	16607
833.299	16664
833.437	16630
833.576	16569
833.714	16645
833.852	16580
833.991	16634
834.129	16725
834.267	16641
834.406	16592
834.544	16668
834.682	16573
834.821	16516
834.959	16736
835.097	16603
835.235	16653
835.373	16603
835.511	16637
835.65	16516
835.788	16535
835.926	16379
836.064	16333
836.202	16402
836.34	16497
836.478	16637
836.615	16546
836.753	16493
836.891	16535
837.029	16618
837.167	16535
837.305	16455
837.443	16409
837.58	16261
837.718	16394
837.856	16405
837.993	16382
838.131	16417
838.269	16299
838.406	16375
838.544	16284
838.681	16162
838.819	16055
838.956	15964
839.094	15835
839.231	15968
839.369	16044
839.506	16413
839.643	16154
839.781	15979
839.918	15846
840.055	15907
840.193	15983
840.33	15850
840.467	15953
840.604	15934
840.742	16116
840.879	15808
841.016	15846
841.153	15831
841.29	16021
841.427	15934
841.564	15998
841.701	15949
841.838	15873
841.975	15934
842.112	15876
842.249	15819
842.385	15675
842.522	15998
842.659	15770
842.796	15660
842.933	15728
843.069	15667
843.206	15660
843.343	15717
843.479	15736
843.616	15778
843.752	15584
843.889	15473
844.025	15694
844.162	15492
844.298	15603
844.435	15587
844.571	15481
844.708	15511
844.844	15682
844.98	15698
845.117	15614
845.253	15462
845.389	15435
845.525	15507
845.661	15325
845.798	15329
845.934	15256
846.07	15245
846.206	15321
846.342	15401
846.478	15294
846.614	15100
846.75	15070
846.886	15013
847.022	15218
847.158	15108
847.294	15112
847.429	15089
847.565	15020
847.701	15283
847.837	14876
847.972	14712
848.108	14986
848.244	14861
848.379	14823
848.515	14701
848.65	14735
848.786	14746
848.921	14686
849.057	14727
849.192	14785
849.328	14762
849.463	14735
849.598	14720
849.734	14552
849.869	14598
850.004	14488
850.14	14564
850.275	14480
850.41	14495
850.545	14324
850.68	14362
850.815	14526
850.95	14389
851.085	14636
851.22	14537
851.355	14465
851.49	14313
851.625	14465
851.76	14389
851.895	14366
852.03	14370
852.165	14514
852.299	14446
852.434	14511
852.569	14492
852.703	14400
852.838	14526
852.973	14644
853.107	14651
853.242	14381
853.376	14309
853.511	14275
853.645	14347
853.78	14442
853.914	14434
854.048	14317
854.183	14267
854.317	14294
854.451	14526
854.585	14259
854.72	14320
854.854	14305
854.988	14206
855.122	14259
855.256	14168
855.39	14244
855.524	14427
855.658	14400
855.792	14313
855.926	14377
856.06	14355
856.194	14457
856.327	14237
856.461	14374
856.595	14275
856.729	14366
856.862	14381
856.996	14355
857.13	14389
857.263	14347
857.397	14492
857.53	14267
857.664	14358
857.797	14400
857.931	14412
858.064	14408
858.197	14423
858.331	14343
858.464	14199
858.597	14168
858.731	14248
858.864	14351
858.997	14332
859.13	14415
859.263	14366
859.396	14484
859.529	14286
859.662	14351
859.795	14309
859.928	14248
860.061	14362
860.194	14415
860.327	14271
860.46	14309
860.592	14328
860.725	14393
860.858	14438
860.99	14393
861.123	14225
861.256	14282
861.388	14339
861.521	14967
861.653	14161
861.786	14153
861.918	14153
862.05	14225
862.183	14290
862.315	14408
862.447	14305
862.58	14309
862.712	14153
862.844	13982
862.976	14195
863.108	14111
863.24	14503
863.372	14031
863.504	14001
863.636	14183
863.768	14172
863.9	14088
864.032	14039
864.164	14073
864.296	14180
864.428	14218
864.559	14172
864.691	14161
864.823	14225
864.954	14130
865.086	14149
865.217	14073
865.349	14058
865.48	14138
865.612	14153
865.743	14275
865.875	14073
866.006	14058
866.137	14100
866.269	14134
866.4	14096
866.531	14046
866.662	13936
866.793	14134
866.924	13989
867.055	14001
867.186	14142
867.317	14058
867.448	13978
867.579	13944
867.71	14031
867.841	13978
867.972	14073
868.103	14153
868.233	14043
868.364	14081
868.495	14229
868.625	14355
868.756	14419
868.886	14263
869.017	14347
869.147	14415
869.278	14362
869.408	14362
869.539	14290
869.669	14450
869.799	14408
869.929	14438
870.06	14545
870.19	14629
870.32	14629
870.45	14632
870.58	14773
870.71	14842
870.84	14864
870.97	14663
871.1	14857
871.23	14845
871.36	14979
871.489	14785
871.619	14864
871.749	14921
871.879	14910
872.008	15047
872.138	14899
872.267	14906
872.397	14750
872.526	14823
872.656	14705
872.785	14868
872.915	14998
873.044	15017
873.173	14948
873.303	14952
873.432	14979
873.561	15024
873.69	15001
873.819	14998
873.948	15123
874.077	15077
874.206	14994
874.335	14994
874.464	15093
874.593	15321
874.722	15272
874.851	15294
874.979	15264
875.108	15332
875.237	15188
875.365	15287
875.494	15260
875.623	15363
875.751	15287
875.88	15393
876.008	15454
876.136	15580
876.265	15861
876.393	15850
876.521	15774
876.65	15766
876.778	15705
876.906	15732
877.034	15622
877.162	15724
877.29	15720
877.418	15766
877.546	15606
877.674	15648
877.802	15785
877.93	15739
878.058	15717
878.185	15629
878.313	15663
878.441	15595
878.568	15515
878.696	15656
878.824	15728
878.951	15759
879.079	15850
879.206	16017
879.333	15835
879.461	15717
879.588	15797
879.715	15854
879.842	15926
879.97	15781
880.097	15644
880.224	15534
880.351	15584
880.478	15648
880.605	15523
880.732	15564
880.859	15869
880.986	15523
881.112	15637
881.239	15466
881.366	15363
881.493	15294
881.619	15135
881.746	15256
881.872	15116
881.999	15138
882.125	15211
882.252	15233
882.378	15317
882.505	15348
882.631	15154
882.757	15024
882.883	15127
883.01	15032
883.136	14948
883.262	14990
883.388	14902
883.514	15001
883.64	15017
883.766	14956
883.892	14807
884.018	14944
884.143	15058
884.269	15154
884.395	14807
884.52	14769
884.646	14762
884.772	14746
884.897	14697
885.023	14731
885.148	14800
885.274	14857
885.399	14804
885.524	14727
885.65	14655
885.775	14823
885.9	14697
886.025	14804
886.15	14773
886.275	14682
886.4	14625
886.525	14758
886.65	14686
886.775	14693
886.9	14861
887.025	15013
887.149	14781
887.274	14640
887.399	14518
887.523	14571
887.648	14552
887.773	14461
887.897	14579
888.021	14564
888.146	14526
888.27	14602
888.395	14705
888.519	14693
888.643	14724
888.767	14518
888.891	14484
889.015	14404
889.139	14461
889.263	14396
889.387	14488
889.511	14655
889.635	14480
889.759	14374
889.883	14457
890.006	14484
890.13	14499
890.254	14412
890.377	14476
890.501	14202
890.624	14240
890.748	14237
890.871	14161
890.995	14142
891.118	14065
891.241	14077
891.364	14103
891.488	14252
891.611	14111
891.734	14134
891.857	14267
891.98	14130
892.103	14271
892.226	14153
892.349	14081
892.471	13978
892.594	14138
892.717	14046
892.839	14172
892.962	14206
893.085	14229
893.207	14142
893.33	13951
893.452	14001
893.575	14134
893.697	14111
893.819	14286
893.941	14358
894.064	14191
894.186	14039
894.308	14084
894.43	14225
894.552	14343
894.674	14218
894.796	14065
894.918	14134
895.04	14233
895.161	14298
895.283	14138
895.405	14157
895.526	14240
895.648	14259
895.769	14210
895.891	14434
896.012	14271
896.134	14419
896.255	14240
896.376	14301
896.498	14286
896.619	14275
896.74	14282
896.861	14476
896.982	14636
897.103	14815
897.224	14632
897.345	14579
897.466	14518
897.587	14537
897.708	14724
897.828	14575
897.949	14530
898.07	14434
898.19	14537
898.311	14765
898.431	14541
898.552	14708
898.672	14781
898.792	14785
898.913	14613
899.033	14533
899.153	14511
899.273	14408
899.393	14590
899.513	14533
899.633	14503
899.753	14560
899.873	14469
899.993	14632
900.113	14522
900.232	14549
900.352	14511
900.472	14377
900.591	14339
900.711	14355
900.83	14438
900.95	14545
901.069	14480
901.189	14275
901.308	14138
901.427	14096
901.546	14111
901.665	14050
901.784	14016
901.904	14020
902.023	13894
902.141	13662
902.26	13632
902.379	13712
902.498	13609
902.617	13632
902.735	13689
902.854	13655
902.973	13609
903.091	13350
903.21	13400
903.328	13434
903.446	13350
903.565	13198
903.683	13190
903.801	13126
903.919	13255
904.038	12996
904.156	12958
904.274	13145
904.392	12977
904.51	12993
904.627	13072
904.745	13129
904.863	13118
904.981	12817
905.098	12650
905.216	12772
905.334	12821
905.451	12726
905.569	12719
905.686	12730
905.803	12711
905.921	12559
906.038	12646
906.155	12589
906.272	12376
906.389	12460
906.506	12323
906.623	12376
906.74	12228
906.857	12167
906.974	12270
907.091	12296
907.208	12414
907.324	12399
907.441	12300
907.557	12045
907.674	12095
907.79	12053
907.907	12064
908.023	12102
908.139	12224
908.256	12030
908.372	11965
908.488	11958
908.604	11866
908.72	11821
908.836	11840
908.952	11798
909.068	11771
909.184	11882
909.3	11832
909.415	11824
909.531	11904
909.647	11623
909.762	11619
909.878	11596
909.993	11634
910.108	11535
910.224	11520
910.339	11570
910.454	11425
910.57	11398
910.685	11395
910.8	11729
910.915	11634
911.03	11436
911.145	11261
911.259	11265
911.374	11155
911.489	11208
911.604	11155
911.718	11090
911.833	10976
911.947	10927
912.062	10869
912.176	11045
912.291	11056
912.405	10995
912.519	11296
912.633	11258
912.748	11124
912.862	11094
912.976	10976
913.09	10748
913.204	10953
913.318	11025
913.431	11033
913.545	10984
913.659	11083
913.772	10911
913.886	10854
914	10763
914.113	10896
914.226	10938
914.34	10908
914.453	10824
914.566	10927
914.68	10790
914.793	10664
914.906	10512
915.019	10504
915.132	10424
915.245	10565
915.358	10489
915.47	10519
915.583	10573
915.696	10653
915.809	10694
915.921	10687
916.034	10542
916.146	10398
916.259	10447
916.371	10588
916.483	10561
916.595	10497
916.708	10451
916.82	10497
916.932	10497
917.044	10462
917.156	10371
917.268	10432
917.38	10367
917.491	10352
917.603	10440
917.715	10474
917.826	10470
917.938	10360
918.049	10284
918.161	10360
918.272	10478
918.384	10485
918.495	10402
918.606	10215
918.717	10093
918.828	10215
918.939	10230
919.05	10181
919.161	10227
919.272	10074
919.383	10143
919.494	10352
919.604	10481
919.715	10379
919.826	10166
919.936	10185
920.047	10303
920.157	10303
920.267	10523
920.378	10314
920.488	10322
920.598	10531
920.708	10607
920.818	10462
920.928	10481
921.038	10694
921.148	10573
921.258	10249
921.368	10249
921.477	10188
921.587	10131
921.697	9979
921.806	10116
921.916	9998
922.025	9812
922.134	9774
922.244	9827
922.353	9903
922.462	9736
922.571	9606
922.68	9492
922.789	9507
922.898	9523
923.007	9416
923.116	9515
923.224	9454
923.333	9538
923.442	9420
923.55	9431
923.659	9431
923.767	9447
923.876	9370
923.984	9500
924.092	9287
924.201	9340
924.309	9412
924.417	9363
924.525	9325
924.633	9317
924.741	10303
924.849	9214
924.956	9272
925.064	9188
925.172	9104
925.279	9150
925.387	9237
925.494	9180
925.602	9351
925.709	9211
925.816	9173
925.924	9123
926.031	9332
926.138	9154
926.245	9253
926.352	9077
926.459	9211
926.566	9264
926.673	9161
926.779	8975
926.886	9013
926.993	8914
927.099	8880
927.206	8876
927.312	8849
927.419	9020
927.525	8902
927.631	8918
927.737	8834
927.843	8769
927.95	8606
928.056	8819
928.162	8746
928.267	8792
928.373	9355
928.479	8853
928.585	8659
928.69	8804
928.796	8773
928.901	8739
929.007	8587
929.112	8708
929.218	8644
929.323	8610
929.428	8663
929.533	8785
929.638	8583
929.743	8579
929.848	8621
929.953	8549
930.058	8461
930.163	8400
930.267	8370
930.372	8499
930.477	8339
930.581	8560
930.685	8438
930.79	8279
930.894	8309
930.998	8347
931.103	8461
931.207	8130
931.311	7951
931.415	8024
931.519	7849
931.623	7803
