Data from test_V78500241_277.txt Node
Date: Fri Mar 25 14:35:39 CST 2022
User: usil
Spectrometer: V785-0024
Trigger mode: 0
Integration Time (sec): 4.000000E-1
Scans to average: 1
Nonlinearity correction enabled: false
Boxcar width: 0
Storing dark spectrum: false
XAxis mode: Wavelengths
Number of Pixels in Spectrum: 1024
>>>>>Begin Spectral Data<<<<<
801.071	27222
801.214	27256
801.356	26891
801.499	26853
801.641	26697
801.783	26689
801.926	26712
802.068	26667
802.211	26667
802.353	26537
802.496	26503
802.638	26263
802.78	26343
802.923	26267
803.065	26119
803.208	26324
803.35	26355
803.492	26157
803.635	26355
803.777	26214
803.919	26298
804.061	26720
804.204	26374
804.346	26126
804.488	26256
804.63	26221
804.773	26111
804.915	26214
805.057	26328
805.199	26229
805.341	26244
805.483	26271
805.626	26339
805.768	26202
805.91	26351
806.052	26358
806.194	26225
806.336	26541
806.478	26229
806.62	26183
806.762	26191
806.904	26393
807.046	26815
807.188	26648
807.33	26625
807.472	26693
807.614	26598
807.756	26575
807.898	26476
808.04	26377
808.182	26484
808.324	26545
808.465	26530
808.607	26765
808.749	26807
808.891	27116
809.033	27047
809.174	26906
809.316	26876
809.458	26963
809.6	26925
809.741	26944
809.883	26933
810.025	27005
810.166	26944
810.308	27051
810.45	26921
810.591	26998
810.733	26746
810.875	26762
811.016	26625
811.158	26488
811.299	26762
811.441	26826
811.582	26864
811.724	26598
811.865	26655
812.007	26621
812.148	26598
812.29	26648
812.431	26819
812.573	26921
812.714	27081
812.855	27199
812.997	27055
813.138	27264
813.279	27249
813.421	27108
813.562	27055
813.703	26990
813.845	26861
813.986	26602
814.127	26358
814.268	26362
814.41	26126
814.551	26313
814.692	26278
814.833	26168
814.974	26096
815.115	26229
815.256	26020
815.397	26031
815.539	25898
815.68	26001
815.821	25856
815.962	26096
816.103	25993
816.244	25856
816.385	25689
816.526	25544
816.666	25495
816.807	25228
816.948	25472
817.089	25479
817.23	25358
817.371	25419
817.512	25259
817.653	25304
817.793	25320
817.934	25308
818.075	25240
818.216	25270
818.356	25339
818.497	25278
818.638	25088
818.778	24901
818.919	24951
819.06	25107
819.2	25225
819.341	25137
819.481	25141
819.622	25457
819.762	25563
819.903	25540
820.043	25289
820.184	25365
820.324	25373
820.465	25358
820.605	25278
820.746	25251
820.886	25171
821.026	25228
821.167	25259
821.307	25244
821.447	25259
821.588	25038
821.728	25057
821.868	24791
822.008	24768
822.149	24642
822.289	24711
822.429	24475
822.569	24369
822.709	24262
822.849	24102
822.99	24053
823.13	23984
823.27	24015
823.41	23855
823.55	23718
823.69	23927
823.83	23885
823.97	23832
824.11	23798
824.25	23551
824.389	23627
824.529	23805
824.669	23649
824.809	23836
824.949	23737
825.089	23798
825.228	23627
825.368	23493
825.508	23505
825.648	23566
825.787	23471
825.927	23505
826.067	23387
826.206	23452
826.346	23478
826.485	23436
826.625	23440
826.765	23463
826.904	23623
827.044	23288
827.183	23174
827.323	22995
827.462	23117
827.601	23254
827.741	23174
827.88	23128
828.02	22946
828.159	23010
828.298	23124
828.437	23193
828.577	23029
828.716	23231
828.855	23086
828.994	22774
829.134	22889
829.273	22919
829.412	22771
829.551	22729
829.69	22793
829.829	22706
829.968	22911
830.107	22915
830.246	22782
830.385	22691
830.524	22660
830.663	22584
830.802	22485
830.941	22367
831.08	22265
831.219	22413
831.357	22367
831.496	22531
831.635	22337
831.774	22375
831.913	22402
832.051	22154
832.19	22055
832.329	22109
832.467	22021
832.606	21941
832.744	22021
832.883	22112
833.022	22002
833.16	22059
833.299	22025
833.437	22124
833.576	22101
833.714	21907
833.852	22059
833.991	22097
834.129	22150
834.267	22143
834.406	22070
834.544	22063
834.682	21972
834.821	21983
834.959	22158
835.097	21941
835.235	22105
835.373	21915
835.511	22048
835.65	21953
835.788	21892
835.926	21785
836.064	21667
836.202	21720
836.34	21835
836.478	21934
836.615	21979
836.753	21739
836.891	21956
837.029	21907
837.167	21804
837.305	21819
837.443	21690
837.58	21644
837.718	21797
837.856	21762
837.993	21606
838.131	21591
838.269	21641
838.406	21679
838.544	21412
838.681	21469
838.819	21386
838.956	21039
839.094	21100
839.231	21207
839.369	21199
839.506	21504
839.643	21424
839.781	21127
839.918	21077
840.055	21066
840.193	21085
840.33	20944
840.467	21058
840.604	20975
840.742	21329
840.879	20880
841.016	21055
841.153	20918
841.29	21165
841.427	21066
841.564	21169
841.701	21032
841.838	20952
841.975	20910
842.112	21005
842.249	20872
842.385	20739
842.522	21024
842.659	20765
842.796	20811
842.933	20724
843.069	20670
843.206	20731
843.343	20758
843.479	20788
843.616	20864
843.752	20492
843.889	20598
844.025	20640
844.162	20476
844.298	20625
844.435	20480
844.571	20434
844.708	20560
844.844	20533
844.98	20533
845.117	20689
845.253	20575
845.389	20381
845.525	20579
845.661	20465
845.798	20499
845.934	20427
846.07	20446
846.206	20408
846.342	20568
846.478	20377
846.614	20214
846.75	19970
846.886	20008
847.022	20119
847.158	19947
847.294	20096
847.429	20008
847.565	19963
847.701	20107
847.837	19715
847.972	19765
848.108	19746
848.244	19803
848.379	19571
848.515	19628
848.65	19556
848.786	19506
848.921	19525
849.057	19506
849.192	19525
849.328	19502
849.463	19460
849.598	19529
849.734	19419
849.869	19373
850.004	19251
850.14	19320
850.275	19415
850.41	19179
850.545	19168
850.68	19141
850.815	19274
850.95	19293
851.085	19324
851.22	19388
851.355	19247
851.49	19274
851.625	19217
851.76	19263
851.895	19088
852.03	19175
852.165	19232
852.299	19247
852.434	19396
852.569	19362
852.703	19221
852.838	19297
852.973	19331
853.107	19324
853.242	19183
853.376	19076
853.511	18947
853.645	18989
853.78	19255
853.914	19206
854.048	19072
854.183	19069
854.317	19034
854.451	19297
854.585	19225
854.72	19000
854.854	19179
854.988	18993
855.122	18993
855.256	18970
855.39	19050
855.524	19053
855.658	19012
855.792	18985
855.926	19107
856.06	19145
856.194	19221
856.327	19114
856.461	18996
856.595	19046
856.729	18977
856.862	19031
856.996	19088
857.13	19118
857.263	19247
857.397	19133
857.53	19038
857.664	19065
857.797	19103
857.931	19133
858.064	18932
858.197	19023
858.331	19004
858.464	18909
858.597	18947
858.731	18897
858.864	18989
858.997	19069
859.13	18993
859.263	18985
859.396	19076
859.529	18954
859.662	18901
859.795	18920
859.928	18981
860.061	19232
860.194	19156
860.327	19107
860.46	18867
860.592	19027
860.725	19069
860.858	19179
860.99	18996
861.123	18897
861.256	18905
861.388	18825
861.521	19525
861.653	18882
861.786	18916
861.918	18935
862.05	18890
862.183	19000
862.315	19061
862.447	19061
862.58	19034
862.712	18840
862.844	18692
862.976	18852
863.108	18810
863.24	19061
863.372	18612
863.504	18673
863.636	18673
863.768	18726
863.9	18650
864.032	18544
864.164	18753
864.296	18677
864.428	18684
864.559	18798
864.691	18684
864.823	18703
864.954	18715
865.086	18764
865.217	18681
865.349	18639
865.48	18544
865.612	18658
865.743	18722
865.875	18597
866.006	18593
866.137	18654
866.269	18616
866.4	18574
866.531	18677
866.662	18513
866.793	18502
866.924	18631
867.055	18642
867.186	18498
867.317	18604
867.448	18502
867.579	18578
867.71	18422
867.841	18456
867.972	18467
868.103	18555
868.233	18551
868.364	18604
868.495	18589
868.625	18722
868.756	18871
868.886	18711
869.017	18802
869.147	18973
869.278	18871
869.408	18722
869.539	18821
869.669	18878
869.799	18844
869.929	18996
870.06	18943
870.19	19202
870.32	19023
870.45	19194
870.58	19236
870.71	19289
870.84	19282
870.97	19213
871.1	19316
871.23	19346
871.36	19384
871.489	19316
871.619	19362
871.749	19381
871.879	19377
872.008	19403
872.138	19411
872.267	19464
872.397	19301
872.526	19198
872.656	19304
872.785	19274
872.915	19339
873.044	19510
873.173	19407
873.303	19495
873.432	19422
873.561	19540
873.69	19506
873.819	19510
873.948	19552
874.077	19529
874.206	19510
874.335	19419
874.464	19655
874.593	19666
874.722	19731
874.851	19696
874.979	19734
875.108	19784
875.237	19685
875.365	19567
875.494	19784
875.623	19860
875.751	19761
875.88	19780
876.008	19837
876.136	19913
876.265	20161
876.393	20157
876.521	20229
876.65	20286
876.778	20195
876.906	20054
877.034	20126
877.162	20115
877.29	20016
877.418	20065
877.546	20157
877.674	20107
877.802	20237
877.93	20027
878.058	20142
878.185	19978
878.313	20043
878.441	20111
878.568	20065
878.696	20122
878.824	20157
878.951	20157
879.079	20412
879.206	20488
879.333	20294
879.461	20149
879.588	20282
879.715	20480
879.842	20484
879.97	20084
880.097	19997
880.224	19921
880.351	19909
880.478	19978
880.605	19982
880.732	19944
880.859	20271
880.986	19967
881.112	20031
881.239	19909
881.366	19833
881.493	19620
881.619	19552
881.746	19533
881.872	19521
881.999	19521
882.125	19499
882.252	19590
882.378	19639
882.505	19696
882.631	19457
882.757	19301
882.883	19441
883.01	19365
883.136	19209
883.262	19179
883.388	19141
883.514	19365
883.64	19396
883.766	19255
883.892	19065
884.018	19236
884.143	19343
884.269	19362
884.395	19080
884.52	19034
884.646	18920
884.772	18913
884.897	18875
885.023	18993
885.148	19148
885.274	19126
885.399	19084
885.524	18935
885.65	19000
885.775	19023
885.9	18913
886.025	19027
886.15	18981
886.275	18867
886.4	18894
886.525	18905
886.65	18886
886.775	18954
886.9	19050
887.025	19152
887.149	18890
887.274	18837
887.399	18810
887.523	18658
887.648	18726
887.773	18589
887.897	18833
888.021	18753
888.146	18563
888.27	18844
888.395	18848
888.519	18745
888.643	18817
888.767	18821
888.891	18658
889.015	18563
889.139	18635
889.263	18547
889.387	18563
889.511	18677
889.635	18650
889.759	18460
889.883	18475
890.006	18448
890.13	18707
890.254	18551
890.377	18365
890.501	18289
890.624	18239
890.748	18174
890.871	18213
890.995	18091
891.118	18125
891.241	18205
891.364	18220
891.488	18342
891.611	18159
891.734	18186
891.857	18148
891.98	18243
892.103	18133
892.226	18186
892.349	18140
892.471	18022
892.594	18034
892.717	18060
892.839	18087
892.962	18022
893.085	18091
893.207	18057
893.33	18015
893.452	17980
893.575	18129
893.697	18155
893.819	18209
893.941	18232
894.064	18152
894.186	18064
894.308	18098
894.43	18194
894.552	18304
894.674	18285
894.796	17946
894.918	18064
895.04	18045
895.161	18228
895.283	18136
895.405	18064
895.526	18060
895.648	18129
895.769	18171
895.891	18224
896.012	18201
896.134	18148
896.255	18106
896.376	18197
896.498	18155
896.619	18171
896.74	18174
896.861	18178
896.982	18521
897.103	18639
897.224	18448
897.345	18418
897.466	18403
897.587	18418
897.708	18513
897.828	18338
897.949	18399
898.07	18155
898.19	18346
898.311	18494
898.431	18391
898.552	18365
898.672	18395
898.792	18395
898.913	18311
899.033	18167
899.153	18144
899.273	18155
899.393	18133
899.513	18125
899.633	18034
899.753	18133
899.873	18201
899.993	18174
900.113	18041
900.232	18117
900.352	18057
900.472	18019
900.591	17870
900.711	18068
900.83	17980
900.95	17988
901.069	18087
901.189	17855
901.308	17722
901.427	17596
901.546	17630
901.665	17600
901.784	17642
901.904	17467
902.023	17337
902.141	17189
902.26	17052
902.379	17212
902.498	17079
902.617	17067
902.735	17090
902.854	17033
902.973	17014
903.091	16858
903.21	16782
903.328	16793
903.446	16702
903.565	16569
903.683	16656
903.801	16546
903.919	16611
904.038	16596
904.156	16367
904.274	16470
904.392	16398
904.51	16386
904.627	16409
904.745	16466
904.863	16413
904.981	16253
905.098	16029
905.216	16074
905.334	16120
905.451	16093
905.569	15998
905.686	16116
905.803	15968
905.921	15831
906.038	15949
906.155	15888
906.272	15724
906.389	15713
906.506	15568
906.623	15580
906.74	15530
906.857	15450
906.974	15507
907.091	15622
907.208	15637
907.324	15584
907.441	15462
907.557	15389
907.674	15226
907.79	15256
907.907	15332
908.023	15218
908.139	15207
908.256	15233
908.372	15161
908.488	15093
908.604	14975
908.72	14979
908.836	14994
908.952	14956
909.068	14975
909.184	15123
909.3	14952
909.415	15032
909.531	14941
909.647	14686
909.762	14663
909.878	14602
909.993	14716
910.108	14621
910.224	14579
910.339	14708
910.454	14476
910.57	14461
910.685	14446
910.8	14830
910.915	14708
911.03	14507
911.145	14381
911.259	14229
911.374	14324
911.489	14252
911.604	14069
911.718	14046
911.833	14100
911.947	13989
912.062	13951
912.176	14043
912.291	14043
912.405	14035
912.519	14206
912.633	14153
912.748	14008
912.862	14016
912.976	13860
913.09	13753
913.204	13826
913.318	13864
913.431	13989
913.545	13963
913.659	13898
913.772	13830
913.886	13670
914	13712
914.113	13795
914.226	13909
914.34	13780
914.453	13521
914.566	13845
914.68	13647
914.793	13578
914.906	13426
915.019	13411
915.132	13331
915.245	13403
915.358	13434
915.47	13430
915.583	13407
915.696	13415
915.809	13453
915.921	13460
916.034	13301
916.146	13327
916.259	13289
916.371	13392
916.483	13320
916.595	13137
916.708	13240
916.82	13160
916.932	13221
917.044	13206
917.156	13099
917.268	13107
917.38	13137
917.491	13110
917.603	13133
917.715	13198
917.826	13190
917.938	13038
918.049	12890
918.161	13046
918.272	13145
918.384	13202
918.495	13065
918.606	12875
918.717	12954
918.828	12875
918.939	12920
919.05	12745
919.161	12856
919.272	12681
919.383	12745
919.494	12878
919.604	13012
919.715	12901
919.826	12783
919.936	12791
920.047	12928
920.157	12833
920.267	12977
920.378	12886
920.488	12779
920.598	12939
920.708	13175
920.818	12916
920.928	13008
921.038	13175
921.148	13122
921.258	12806
921.368	12768
921.477	12681
921.587	12612
921.697	12486
921.806	12669
921.916	12509
922.025	12330
922.134	12178
922.244	12216
922.353	12254
922.462	12167
922.571	12121
922.68	11912
922.789	11878
922.898	11912
923.007	11942
923.116	11939
923.224	11965
923.333	11942
923.442	11836
923.55	11767
923.659	11817
923.767	11733
923.876	11745
923.984	11813
924.092	11688
924.201	11714
924.309	11695
924.417	11733
924.525	11611
924.633	11703
924.741	12502
924.849	11417
924.956	11623
925.064	11429
925.172	11315
925.279	11436
925.387	11490
925.494	11452
925.602	11558
925.709	11436
925.816	11330
925.924	11436
926.031	11539
926.138	11433
926.245	11478
926.352	11349
926.459	11474
926.566	11402
926.673	11402
926.779	11155
926.886	11254
926.993	11128
927.099	11041
927.206	10995
927.312	11052
927.419	11045
927.525	11064
927.631	11033
927.737	10991
927.843	10930
927.95	10797
928.056	10835
928.162	10972
928.267	10961
928.373	11455
928.479	10961
928.585	10733
928.69	10858
928.796	10980
928.901	10736
929.007	10710
929.112	10702
929.218	10683
929.323	10702
929.428	10611
929.533	10786
929.638	10584
929.743	10569
929.848	10645
929.953	10550
930.058	10508
930.163	10379
930.267	10367
930.372	10519
930.477	10303
930.581	10588
930.685	10356
930.79	10291
930.894	10352
930.998	10249
931.103	10417
931.207	9991
931.311	9945
931.415	9865
931.519	9740
931.623	9656
