Data from test_V78500241_2259.txt Node
Date: Fri Mar 25 14:49:26 CST 2022
User: usil
Spectrometer: V785-0024
Trigger mode: 0
Integration Time (sec): 4.000000E-1
Scans to average: 1
Nonlinearity correction enabled: false
Boxcar width: 0
Storing dark spectrum: false
XAxis mode: Wavelengths
Number of Pixels in Spectrum: 1024
>>>>>Begin Spectral Data<<<<<
801.071	22154
801.214	22116
801.356	21751
801.499	21728
801.641	21507
801.783	21599
801.926	21439
802.068	21587
802.211	21447
802.353	21370
802.496	21123
802.638	20956
802.78	21013
802.923	20899
803.065	20815
803.208	20804
803.35	20925
803.492	20933
803.635	21036
803.777	20838
803.919	21005
804.061	21260
804.204	20967
804.346	20788
804.488	20842
804.63	20765
804.773	20731
804.915	20731
805.057	20819
805.199	20739
805.341	20815
805.483	20921
805.626	20868
805.768	20754
805.91	20918
806.052	20792
806.194	20701
806.336	20975
806.478	20842
806.62	20674
806.762	20716
806.904	21039
807.046	21195
807.188	21218
807.33	21100
807.472	21344
807.614	21100
807.756	21119
807.898	20933
808.04	20823
808.182	20853
808.324	20963
808.465	20864
808.607	21093
808.749	21195
808.891	21313
809.033	21275
809.174	21306
809.316	21100
809.458	21169
809.6	21237
809.741	21237
809.883	21275
810.025	21454
810.166	21340
810.308	21279
810.45	21249
810.591	21241
810.733	21214
810.875	21070
811.016	20883
811.158	20815
811.299	21104
811.441	20994
811.582	21036
811.724	20971
811.865	21089
812.007	20960
812.148	20990
812.29	20967
812.431	21119
812.573	21359
812.714	21336
812.855	21424
812.997	21614
813.138	21709
813.279	21595
813.421	21469
813.562	21367
813.703	21199
813.845	21142
813.986	20788
814.127	20743
814.268	20590
814.41	20552
814.551	20575
814.692	20590
814.833	20415
814.974	20450
815.115	20571
815.256	20336
815.397	20400
815.539	20396
815.68	20294
815.821	20172
815.962	20278
816.103	20244
816.244	20145
816.385	20027
816.526	19986
816.666	19731
816.807	19719
816.948	19708
817.089	19677
817.23	19750
817.371	19662
817.512	19727
817.653	19616
817.793	19563
817.934	19510
818.075	19731
818.216	19628
818.356	19597
818.497	19491
818.638	19308
818.778	19266
818.919	19392
819.06	19381
819.2	19445
819.341	19449
819.481	19575
819.622	19662
819.762	19818
819.903	19731
820.043	19655
820.184	19552
820.324	19696
820.465	19727
820.605	19605
820.746	19605
820.886	19457
821.026	19578
821.167	19502
821.307	19597
821.447	19597
821.588	19392
821.728	19251
821.868	19152
822.008	19004
822.149	18932
822.289	18958
822.429	18787
822.569	18677
822.709	18616
822.849	18566
822.99	18544
823.13	18448
823.27	18509
823.41	18338
823.55	18220
823.69	18410
823.83	18350
823.97	18190
824.11	18117
824.25	18057
824.389	18178
824.529	18167
824.669	18060
824.809	18209
824.949	18072
825.089	18129
825.228	18083
825.368	17931
825.508	17882
825.648	17870
825.787	17832
825.927	17878
826.067	17821
826.206	17767
826.346	17855
826.485	17889
826.625	17805
826.765	18038
826.904	17908
827.044	17695
827.183	17573
827.323	17524
827.462	17589
827.601	17429
827.741	17490
827.88	17566
828.02	17509
828.159	17532
828.298	17440
828.437	17615
828.577	17493
828.716	17729
828.855	17505
828.994	17318
829.134	17216
829.273	17269
829.412	17166
829.551	17204
829.69	17288
829.829	17265
829.968	17307
830.107	17330
830.246	17181
830.385	17231
830.524	17181
830.663	17166
830.802	16995
830.941	16889
831.08	16873
831.219	16961
831.357	16946
831.496	17189
831.635	16824
831.774	16805
831.913	16816
832.051	16725
832.19	16736
832.329	16683
832.467	16573
832.606	16603
832.744	16531
832.883	16634
833.022	16599
833.16	16630
833.299	16550
833.437	16523
833.576	16592
833.714	16592
833.852	16634
833.991	16565
834.129	16721
834.267	16763
834.406	16634
834.544	16637
834.682	16558
834.821	16660
834.959	16847
835.097	16618
835.235	16706
835.373	16599
835.511	16694
835.65	16508
835.788	16580
835.926	16390
836.064	16341
836.202	16382
836.34	16622
836.478	16607
836.615	16440
836.753	16447
836.891	16641
837.029	16542
837.167	16440
837.305	16371
837.443	16443
837.58	16287
837.718	16466
837.856	16478
837.993	16341
838.131	16344
838.269	16207
838.406	16299
838.544	16257
838.681	16036
838.819	15994
838.956	15926
839.094	15994
839.231	15979
839.369	16143
839.506	16318
839.643	16223
839.781	15983
839.918	15876
840.055	15998
840.193	15873
840.33	15857
840.467	16002
840.604	16082
840.742	16086
840.879	15743
841.016	15789
841.153	15812
841.29	16029
841.427	15979
841.564	15899
841.701	15926
841.838	15831
841.975	15888
842.112	15835
842.249	15720
842.385	15778
842.522	15785
842.659	15800
842.796	15675
842.933	15770
843.069	15633
843.206	15690
843.343	15850
843.479	15747
843.616	15747
843.752	15469
843.889	15473
844.025	15625
844.162	15431
844.298	15526
844.435	15492
844.571	15454
844.708	15553
844.844	15641
844.98	15694
845.117	15519
845.253	15450
845.389	15408
845.525	15420
845.661	15279
845.798	15211
845.934	15317
846.07	15241
846.206	15336
846.342	15408
846.478	15279
846.614	15024
846.75	15013
846.886	14986
847.022	15123
847.158	15070
847.294	14998
847.429	15180
847.565	15062
847.701	15279
847.837	14876
847.972	14815
848.108	14781
848.244	14929
848.379	14739
848.515	14743
848.65	14533
848.786	14651
848.921	14606
849.057	14765
849.192	14785
849.328	14773
849.463	14746
849.598	14659
849.734	14651
849.869	14579
850.004	14408
850.14	14412
850.275	14434
850.41	14355
850.545	14419
850.68	14434
850.815	14389
850.95	14362
851.085	14541
851.22	14533
851.355	14575
851.49	14320
851.625	14370
851.76	14446
851.895	14332
852.03	14324
852.165	14389
852.299	14495
852.434	14549
852.569	14461
852.703	14366
852.838	14484
852.973	14613
853.107	14549
853.242	14434
853.376	14427
853.511	14183
853.645	14237
853.78	14389
853.914	14214
854.048	14237
854.183	14218
854.317	14328
854.451	14442
854.585	14286
854.72	14244
854.854	14408
854.988	14218
855.122	14286
855.256	14195
855.39	14252
855.524	14442
855.658	14290
855.792	14328
855.926	14278
856.06	14370
856.194	14374
856.327	14301
856.461	14256
856.595	14240
856.729	14244
856.862	14393
856.996	14358
857.13	14374
857.263	14469
857.397	14396
857.53	14351
857.664	14336
857.797	14423
857.931	14423
858.064	14358
858.197	14419
858.331	14229
858.464	14275
858.597	14191
858.731	14336
858.864	14351
858.997	14332
859.13	14336
859.263	14180
859.396	14332
859.529	14233
859.662	14229
859.795	14263
859.928	14290
860.061	14381
860.194	14492
860.327	14263
860.46	14404
860.592	14389
860.725	14450
860.858	14427
860.99	14358
861.123	14229
861.256	14240
861.388	14298
861.521	14849
861.653	14176
861.786	14305
861.918	14199
862.05	14267
862.183	14275
862.315	14252
862.447	14374
862.58	14214
862.712	14027
862.844	13951
862.976	14256
863.108	14107
863.24	14427
863.372	13951
863.504	14058
863.636	13993
863.768	14077
863.9	14164
864.032	13955
864.164	14020
864.296	14115
864.428	14183
864.559	14138
864.691	14206
864.823	14145
864.954	14039
865.086	14024
865.217	13967
865.349	13864
865.48	14088
865.612	14054
865.743	14282
865.875	14111
866.006	14031
866.137	14016
866.269	14001
866.4	14039
866.531	14027
866.662	13955
866.793	13959
866.924	14027
867.055	14111
867.186	14065
867.317	13986
867.448	13883
867.579	14084
867.71	14020
867.841	13974
867.972	14001
868.103	14107
868.233	14084
868.364	14088
868.495	14145
868.625	14275
868.756	14431
868.886	14180
869.017	14267
869.147	14377
869.278	14442
869.408	14328
869.539	14328
869.669	14393
869.799	14393
869.929	14412
870.06	14393
870.19	14552
870.32	14606
870.45	14640
870.58	14663
870.71	14830
870.84	14910
870.97	14678
871.1	14625
871.23	14815
871.36	14899
871.489	14849
871.619	14762
871.749	14887
871.879	14883
872.008	14941
872.138	14929
872.267	14849
872.397	14659
872.526	14781
872.656	14731
872.785	14781
872.915	15028
873.044	15074
873.173	14952
873.303	15001
873.432	15024
873.561	15077
873.69	14941
873.819	14868
873.948	15119
874.077	14941
874.206	14895
874.335	14986
874.464	15116
874.593	15348
874.722	15214
874.851	15287
874.979	15336
875.108	15249
875.237	15138
875.365	15226
875.494	15237
875.623	15359
875.751	15203
875.88	15340
876.008	15443
876.136	15496
876.265	15743
876.393	15850
876.521	15728
876.65	15785
876.778	15652
876.906	15637
877.034	15633
877.162	15564
877.29	15614
877.418	15682
877.546	15686
877.674	15652
877.802	15679
877.93	15648
878.058	15610
878.185	15523
878.313	15667
878.441	15603
878.568	15519
878.696	15629
878.824	15755
878.951	15831
879.079	15873
879.206	15979
879.333	15778
879.461	15682
879.588	15778
879.715	15823
879.842	15934
879.97	15698
880.097	15530
880.224	15473
880.351	15584
880.478	15599
880.605	15523
880.732	15538
880.859	15804
880.986	15599
881.112	15545
881.239	15408
881.366	15272
881.493	15195
881.619	15097
881.746	15245
881.872	15294
881.999	15097
882.125	15135
882.252	15230
882.378	15252
882.505	15344
882.631	15085
882.757	15036
882.883	15085
883.01	15043
883.136	14967
883.262	14883
883.388	14864
883.514	15013
883.64	15055
883.766	14887
883.892	14838
884.018	14826
884.143	15047
884.269	15066
884.395	14823
884.52	14583
884.646	14659
884.772	14552
884.897	14587
885.023	14636
885.148	14773
885.274	14914
885.399	14849
885.524	14705
885.65	14743
885.775	14804
885.9	14750
886.025	14800
886.15	14712
886.275	14560
886.4	14571
886.525	14659
886.65	14556
886.775	14610
886.9	14754
887.025	14857
887.149	14670
887.274	14488
887.399	14518
887.523	14499
887.648	14492
887.773	14495
887.897	14598
888.021	14625
888.146	14545
888.27	14651
888.395	14617
888.519	14571
888.643	14514
888.767	14617
888.891	14438
889.015	14385
889.139	14427
889.263	14347
889.387	14522
889.511	14575
889.635	14507
889.759	14362
889.883	14377
890.006	14518
890.13	14518
890.254	14218
890.377	14317
890.501	14069
890.624	14263
890.748	14294
890.871	14134
890.995	14012
891.118	14020
891.241	14043
891.364	14202
891.488	14225
891.611	14100
891.734	14039
891.857	14237
891.98	14088
892.103	14103
892.226	14195
892.349	13986
892.471	13944
892.594	14149
892.717	14050
892.839	14107
892.962	14126
893.085	14157
893.207	14065
893.33	14020
893.452	14069
893.575	14149
893.697	14058
893.819	14107
893.941	14324
894.064	14244
894.186	14054
894.308	14145
894.43	14168
894.552	14381
894.674	14225
894.796	14092
894.918	14142
895.04	14134
895.161	14218
895.283	14218
895.405	14195
895.526	14221
895.648	14202
895.769	14214
895.891	14305
896.012	14294
896.134	14164
896.255	14259
896.376	14168
896.498	14290
896.619	14305
896.74	14225
896.861	14370
896.982	14606
897.103	14796
897.224	14522
897.345	14450
897.466	14412
897.587	14606
897.708	14625
897.828	14587
897.949	14461
898.07	14374
898.19	14530
898.311	14632
898.431	14556
898.552	14499
898.672	14682
898.792	14625
898.913	14495
899.033	14522
899.153	14473
899.273	14423
899.393	14423
899.513	14549
899.633	14480
899.753	14476
899.873	14438
899.993	14511
900.113	14419
900.232	14518
900.352	14488
900.472	14362
900.591	14415
900.711	14336
900.83	14317
900.95	14434
901.069	14442
901.189	14313
901.308	14138
901.427	14119
901.546	13978
901.665	14103
901.784	14100
901.904	13917
902.023	13837
902.141	13658
902.26	13556
902.379	13658
902.498	13624
902.617	13468
902.735	13715
902.854	13632
902.973	13476
903.091	13301
903.21	13282
903.328	13327
903.446	13289
903.565	13129
903.683	13171
903.801	13091
903.919	13168
904.038	13168
904.156	12977
904.274	13110
904.392	12939
904.51	12993
904.627	12935
904.745	12981
904.863	13019
904.981	12798
905.098	12646
905.216	12589
905.334	12719
905.451	12616
905.569	12684
905.686	12840
905.803	12749
905.921	12525
906.038	12604
906.155	12506
906.272	12388
906.389	12426
906.506	12247
906.623	12232
906.74	12350
906.857	12098
906.974	12178
907.091	12254
907.208	12391
907.324	12247
907.441	12079
907.557	12076
907.674	12045
907.79	11931
907.907	11950
908.023	11961
908.139	11927
908.256	11958
908.372	11912
908.488	11916
908.604	11809
908.72	11722
908.836	11790
908.952	11726
909.068	11771
909.184	11882
909.3	11764
909.415	11817
909.531	11775
909.647	11520
909.762	11490
909.878	11436
909.993	11608
910.108	11452
910.224	11554
910.339	11501
910.454	11337
910.57	11318
910.685	11296
910.8	11528
910.915	11547
911.03	11436
911.145	11280
911.259	11174
911.374	11223
911.489	11105
911.604	11086
911.718	10942
911.833	10965
911.947	10892
912.062	10767
912.176	10999
912.291	11045
912.405	10949
912.519	11048
912.633	11174
912.748	11094
912.862	10968
912.976	10843
913.09	10767
913.204	10805
913.318	10908
913.431	11006
913.545	11006
913.659	11003
913.772	10866
913.886	10782
914	10694
914.113	10790
914.226	10862
914.34	10885
914.453	10645
914.566	10809
914.68	10710
914.793	10691
914.906	10516
915.019	10489
915.132	10333
915.245	10447
915.358	10523
915.47	10554
915.583	10592
915.696	10630
915.809	10618
915.921	10637
916.034	10489
916.146	10481
916.259	10417
916.371	10527
916.483	10519
916.595	10333
916.708	10394
916.82	10417
916.932	10421
917.044	10421
917.156	10421
917.268	10261
917.38	10249
917.491	10265
917.603	10333
917.715	10394
917.826	10485
917.938	10329
918.049	10265
918.161	10314
918.272	10405
918.384	10462
918.495	10394
918.606	10242
918.717	10074
918.828	10276
918.939	10215
919.05	10139
919.161	10166
919.272	9979
919.383	10059
919.494	10272
919.604	10363
919.715	10287
919.826	10109
919.936	10265
920.047	10253
920.157	10215
920.267	10455
920.378	10268
920.488	10188
920.598	10405
920.708	10573
920.818	10478
920.928	10424
921.038	10607
921.148	10500
921.258	10219
921.368	10173
921.477	10040
921.587	10109
921.697	9983
921.806	10067
921.916	9994
922.025	9861
922.134	9800
922.244	9766
922.353	9816
922.462	9667
922.571	9603
922.68	9504
922.789	9496
922.898	9435
923.007	9382
923.116	9428
923.224	9515
923.333	9458
923.442	9317
923.55	9386
923.659	9317
923.767	9424
923.876	9351
923.984	9363
924.092	9249
924.201	9310
924.309	9386
924.417	9294
924.525	9245
924.633	9264
924.741	10150
924.849	9142
924.956	9264
925.064	9146
925.172	9058
925.279	9020
925.387	9226
925.494	9131
925.602	9260
925.709	9249
925.816	9043
925.924	9157
926.031	9192
926.138	9142
926.245	9173
926.352	9009
926.459	9138
926.566	9241
926.673	9039
926.779	9036
926.886	8914
926.993	8857
927.099	8899
927.206	8807
927.312	8800
927.419	8891
927.525	8864
927.631	8819
927.737	8746
927.843	8788
927.95	8598
928.056	8651
928.162	8769
928.267	8804
928.373	9359
928.479	8819
928.585	8655
928.69	8750
928.796	8807
928.901	8655
929.007	8495
929.112	8659
929.218	8659
929.323	8583
929.428	8564
929.533	8697
929.638	8492
929.743	8507
929.848	8667
929.953	8594
930.058	8457
930.163	8313
930.267	8279
930.372	8465
930.477	8286
930.581	8587
930.685	8377
930.79	8259
930.894	8355
930.998	8229
931.103	8473
931.207	8084
931.311	8050
931.415	7963
931.519	7753
931.623	7795
