Data from test_V78500241_2006.txt Node
Date: Fri Mar 25 14:47:40 CST 2022
User: usil
Spectrometer: V785-0024
Trigger mode: 0
Integration Time (sec): 4.000000E-1
Scans to average: 1
Nonlinearity correction enabled: false
Boxcar width: 0
Storing dark spectrum: false
XAxis mode: Wavelengths
Number of Pixels in Spectrum: 1024
>>>>>Begin Spectral Data<<<<<
801.071	22147
801.214	21964
801.356	21732
801.499	21694
801.641	21553
801.783	21580
801.926	21504
802.068	21370
802.211	21408
802.353	21332
802.496	21070
802.638	21024
802.78	20929
802.923	20864
803.065	20769
803.208	20785
803.35	20842
803.492	21009
803.635	20963
803.777	20815
803.919	20868
804.061	21195
804.204	20811
804.346	20815
804.488	20804
804.63	20693
804.773	20701
804.915	20785
805.057	20872
805.199	20636
805.341	20785
805.483	20864
805.626	20811
805.768	20693
805.91	20724
806.052	20800
806.194	20522
806.336	20712
806.478	20644
806.62	20621
806.762	20724
806.904	20918
807.046	21123
807.188	21036
807.33	21047
807.472	21024
807.614	20986
807.756	20944
807.898	20819
808.04	20785
808.182	20785
808.324	20788
808.465	20883
808.607	20948
808.749	21051
808.891	21298
809.033	21329
809.174	21192
809.316	21032
809.458	21112
809.6	21112
809.741	21180
809.883	21199
810.025	21310
810.166	21310
810.308	21336
810.45	21275
810.591	21100
810.733	21081
810.875	20952
811.016	20754
811.158	20739
811.299	20982
811.441	20876
811.582	20883
811.724	20902
811.865	20708
812.007	20853
812.148	20769
812.29	20880
812.431	21039
812.573	21116
812.714	21268
812.855	21329
812.997	21488
813.138	21572
813.279	21500
813.421	21359
813.562	21218
813.703	21154
813.845	21058
813.986	20811
814.127	20522
814.268	20556
814.41	20423
814.551	20343
814.692	20419
814.833	20393
814.974	20415
815.115	20381
815.256	20252
815.397	20309
815.539	20210
815.68	20229
815.821	20111
815.962	20229
816.103	20043
816.244	20001
816.385	19864
816.526	19837
816.666	19727
816.807	19597
816.948	19628
817.089	19586
817.23	19559
817.371	19552
817.512	19563
817.653	19563
817.793	19464
817.934	19518
818.075	19502
818.216	19453
818.356	19514
818.497	19297
818.638	19141
818.778	19217
818.919	19259
819.06	19187
819.2	19346
819.341	19438
819.481	19350
819.622	19540
819.762	19723
819.903	19723
820.043	19651
820.184	19472
820.324	19419
820.465	19635
820.605	19552
820.746	19571
820.886	19476
821.026	19453
821.167	19510
821.307	19552
821.447	19445
821.588	19282
821.728	19236
821.868	19088
822.008	19072
822.149	18962
822.289	18905
822.429	18715
822.569	18604
822.709	18650
822.849	18536
822.99	18391
823.13	18429
823.27	18407
823.41	18289
823.55	18167
823.69	18216
823.83	18251
823.97	18095
824.11	18038
824.25	18053
824.389	18003
824.529	18095
824.669	18098
824.809	18224
824.949	18110
825.089	18136
825.228	18019
825.368	17901
825.508	17809
825.648	17847
825.787	17927
825.927	17847
826.067	17836
826.206	17703
826.346	17828
826.485	17851
826.625	17779
826.765	17790
826.904	17973
827.044	17619
827.183	17493
827.323	17417
827.462	17493
827.601	17414
827.741	17452
827.88	17509
828.02	17414
828.159	17364
828.298	17505
828.437	17562
828.577	17547
828.716	17665
828.855	17452
828.994	17269
829.134	17265
829.273	17208
829.412	17273
829.551	17223
829.69	17299
829.829	17254
829.968	17425
830.107	17337
830.246	17277
830.385	17159
830.524	17166
830.663	17151
830.802	17018
830.941	16946
831.08	16892
831.219	16919
831.357	17006
831.496	17083
831.635	16900
831.774	16812
831.913	16713
832.051	16691
832.19	16611
832.329	16740
832.467	16554
832.606	16592
832.744	16611
832.883	16535
833.022	16481
833.16	16622
833.299	16622
833.437	16516
833.576	16611
833.714	16660
833.852	16683
833.991	16782
834.129	16672
834.267	16660
834.406	16618
834.544	16721
834.682	16672
834.821	16653
834.959	16752
835.097	16641
835.235	16748
835.373	16603
835.511	16611
835.65	16565
835.788	16474
835.926	16440
836.064	16344
836.202	16432
836.34	16500
836.478	16622
836.615	16634
836.753	16535
836.891	16569
837.029	16554
837.167	16531
837.305	16470
837.443	16379
837.58	16382
837.718	16447
837.856	16508
837.993	16348
838.131	16379
838.269	16390
838.406	16287
838.544	16325
838.681	16074
838.819	16188
838.956	15983
839.094	15975
839.231	15949
839.369	16154
839.506	16337
839.643	16246
839.781	15937
839.918	15911
840.055	15979
840.193	15926
840.33	15968
840.467	15979
840.604	16071
840.742	16261
840.879	15907
841.016	15903
841.153	15861
841.29	16101
841.427	16040
841.564	15937
841.701	15975
841.838	15911
841.975	15880
842.112	15812
842.249	15823
842.385	15766
842.522	15922
842.659	15800
842.796	15701
842.933	15816
843.069	15743
843.206	15660
843.343	15857
843.479	15679
843.616	15823
843.752	15599
843.889	15492
844.025	15724
844.162	15435
844.298	15644
844.435	15523
844.571	15519
844.708	15606
844.844	15660
844.98	15595
845.117	15652
845.253	15545
845.389	15420
845.525	15515
845.661	15431
845.798	15336
845.934	15458
846.07	15332
846.206	15332
846.342	15462
846.478	15306
846.614	15230
846.75	15020
846.886	15119
847.022	15230
847.158	15131
847.294	15104
847.429	15226
847.565	15043
847.701	15287
847.837	14834
847.972	14811
848.108	14956
848.244	15036
848.379	14762
848.515	14727
848.65	14773
848.786	14678
848.921	14659
849.057	14807
849.192	14842
849.328	14724
849.463	14773
849.598	14590
849.734	14621
849.869	14564
850.004	14503
850.14	14499
850.275	14499
850.41	14339
850.545	14423
850.68	14374
850.815	14492
850.95	14484
851.085	14598
851.22	14545
851.355	14507
851.49	14476
851.625	14419
851.76	14404
851.895	14377
852.03	14347
852.165	14419
852.299	14499
852.434	14549
852.569	14442
852.703	14469
852.838	14564
852.973	14693
853.107	14636
853.242	14389
853.376	14389
853.511	14191
853.645	14294
853.78	14461
853.914	14362
854.048	14248
854.183	14396
854.317	14313
854.451	14545
854.585	14317
854.72	14267
854.854	14473
854.988	14275
855.122	14286
855.256	14206
855.39	14282
855.524	14328
855.658	14221
855.792	14320
855.926	14473
856.06	14457
856.194	14469
856.327	14313
856.461	14259
856.595	14298
856.729	14412
856.862	14446
856.996	14393
857.13	14511
857.263	14431
857.397	14454
857.53	14427
857.664	14393
857.797	14419
857.931	14473
858.064	14366
858.197	14473
858.331	14343
858.464	14290
858.597	14183
858.731	14389
858.864	14336
858.997	14343
859.13	14381
859.263	14396
859.396	14404
859.529	14286
859.662	14282
859.795	14248
859.928	14396
860.061	14507
860.194	14492
860.327	14442
860.46	14332
860.592	14412
860.725	14442
860.858	14427
860.99	14259
861.123	14305
861.256	14248
861.388	14492
861.521	14986
861.653	14183
861.786	14058
861.918	14191
862.05	14267
862.183	14256
862.315	14393
862.447	14366
862.58	14336
862.712	14115
862.844	14100
862.976	14115
863.108	14206
863.24	14533
863.372	14050
863.504	14229
863.636	14123
863.768	14229
863.9	14073
864.032	14073
864.164	14164
864.296	14123
864.428	14187
864.559	14229
864.691	14202
864.823	14191
864.954	14161
865.086	14100
865.217	14218
865.349	14084
865.48	14115
865.612	14111
865.743	14267
865.875	14111
866.006	14134
866.137	14084
866.269	14138
866.4	14088
866.531	13997
866.662	14035
866.793	14069
866.924	14096
867.055	14161
867.186	14084
867.317	14046
867.448	13944
867.579	14088
867.71	14043
867.841	13913
867.972	14027
868.103	14123
868.233	14145
868.364	14115
868.495	14115
868.625	14305
868.756	14480
868.886	14275
869.017	14362
869.147	14404
869.278	14495
869.408	14248
869.539	14389
869.669	14355
869.799	14358
869.929	14461
870.06	14427
870.19	14682
870.32	14606
870.45	14716
870.58	14815
870.71	14868
870.84	14899
870.97	14701
871.1	14674
871.23	14929
871.36	15020
871.489	14864
871.619	14933
871.749	14910
871.879	15062
872.008	15074
872.138	14967
872.267	14929
872.397	14800
872.526	14796
872.656	14701
872.785	14880
872.915	14986
873.044	15119
873.173	14963
873.303	15104
873.432	15062
873.561	15058
873.69	15093
873.819	14986
873.948	15089
874.077	15093
874.206	15047
874.335	15066
874.464	15199
874.593	15173
874.722	15249
874.851	15291
874.979	15329
875.108	15287
875.237	15241
875.365	15165
875.494	15192
875.623	15283
875.751	15302
875.88	15397
876.008	15488
876.136	15568
876.265	15667
876.393	15884
876.521	15934
876.65	15842
876.778	15755
876.906	15629
877.034	15698
877.162	15793
877.29	15576
877.418	15804
877.546	15800
877.674	15701
877.802	15747
877.93	15637
878.058	15679
878.185	15648
878.313	15720
878.441	15660
878.568	15675
878.696	15660
878.824	15743
878.951	15888
879.079	15835
879.206	16150
879.333	15911
879.461	15778
879.588	15873
879.715	15865
879.842	16013
879.97	15736
880.097	15507
880.224	15435
880.351	15591
880.478	15568
880.605	15492
880.732	15553
880.859	15770
880.986	15545
881.112	15625
881.239	15431
881.366	15454
881.493	15218
881.619	15104
881.746	15245
881.872	15256
881.999	15127
882.125	15138
882.252	15260
882.378	15203
882.505	15332
882.631	15192
882.757	15036
882.883	15066
883.01	15062
883.136	15070
883.262	14880
883.388	14941
883.514	15097
883.64	15043
883.766	14918
883.892	14899
884.018	14944
884.143	15097
884.269	15131
884.395	14857
884.52	14735
884.646	14746
884.772	14678
884.897	14632
885.023	14842
885.148	14857
885.274	14990
885.399	14788
885.524	14716
885.65	14765
885.775	14830
885.9	14769
886.025	14796
886.15	14762
886.275	14693
886.4	14716
886.525	14689
886.65	14712
886.775	14640
886.9	14933
887.025	14967
887.149	14739
887.274	14674
887.399	14552
887.523	14602
887.648	14488
887.773	14476
887.897	14655
888.021	14773
888.146	14537
888.27	14655
888.395	14746
888.519	14583
888.643	14541
888.767	14621
888.891	14442
889.015	14355
889.139	14469
889.263	14412
889.387	14518
889.511	14507
889.635	14617
889.759	14503
889.883	14431
890.006	14469
890.13	14571
890.254	14370
890.377	14442
890.501	14301
890.624	14195
890.748	14282
890.871	14176
890.995	14012
891.118	14069
891.241	14199
891.364	14183
891.488	14199
891.611	14145
891.734	14134
891.857	14233
891.98	14119
892.103	14149
892.226	14210
892.349	14111
892.471	14058
892.594	14107
892.717	14153
892.839	14164
892.962	14142
893.085	14263
893.207	14050
893.33	14100
893.452	14016
893.575	14172
893.697	14123
893.819	14381
893.941	14412
894.064	14237
894.186	14119
894.308	14176
894.43	14282
894.552	14324
894.674	14256
894.796	14062
894.918	14138
895.04	14168
895.161	14256
895.283	14351
895.405	14115
895.526	14305
895.648	14256
895.769	14233
895.891	14275
896.012	14328
896.134	14301
896.255	14370
896.376	14317
896.498	14427
896.619	14263
896.74	14290
896.861	14450
896.982	14682
897.103	14735
897.224	14587
897.345	14571
897.466	14415
897.587	14530
897.708	14617
897.828	14648
897.949	14571
898.07	14431
898.19	14415
898.311	14651
898.431	14495
898.552	14667
898.672	14670
898.792	14739
898.913	14682
899.033	14571
899.153	14476
899.273	14298
899.393	14518
899.513	14415
899.633	14495
899.753	14488
899.873	14450
899.993	14549
900.113	14579
900.232	14518
900.352	14583
900.472	14400
900.591	14377
900.711	14408
900.83	14290
900.95	14434
901.069	14465
901.189	14309
901.308	14153
901.427	14092
901.546	13947
901.665	14012
901.784	14058
901.904	13944
902.023	13833
902.141	13597
902.26	13529
902.379	13772
902.498	13544
902.617	13567
902.735	13662
902.854	13597
902.973	13540
903.091	13320
903.21	13354
903.328	13430
903.446	13206
903.565	13137
903.683	13187
903.801	13099
903.919	13240
904.038	13076
904.156	13099
904.274	13050
904.392	12924
904.51	12928
904.627	12985
904.745	13069
904.863	13012
904.981	12798
905.098	12719
905.216	12627
905.334	12684
905.451	12711
905.569	12620
905.686	12639
905.803	12665
905.921	12547
906.038	12677
906.155	12563
906.272	12433
906.389	12365
906.506	12285
906.623	12308
906.74	12308
906.857	12152
906.974	12182
907.091	12292
907.208	12479
907.324	12342
907.441	12216
907.557	12041
907.674	11969
907.79	12022
907.907	12019
908.023	12136
908.139	12121
908.256	11969
908.372	11904
908.488	11786
908.604	11920
908.72	11790
908.836	11764
908.952	11752
909.068	11786
909.184	11927
909.3	11847
909.415	11828
909.531	11722
909.647	11566
909.762	11630
909.878	11543
909.993	11566
910.108	11592
910.224	11577
910.339	11547
910.454	11512
910.57	11478
910.685	11318
910.8	11600
910.915	11520
911.03	11406
911.145	11273
911.259	11212
911.374	11303
911.489	11128
911.604	11128
911.718	10976
911.833	10984
911.947	10858
912.062	10850
912.176	11025
912.291	10987
912.405	10980
912.519	11292
912.633	11162
912.748	11045
912.862	11018
912.976	10999
913.09	10774
913.204	10835
913.318	10881
913.431	10946
913.545	10938
913.659	10999
913.772	10881
913.886	10774
914	10767
914.113	10866
914.226	10923
914.34	10881
914.453	10733
914.566	10869
914.68	10687
914.793	10797
914.906	10538
915.019	10462
915.132	10382
915.245	10462
915.358	10489
915.47	10485
915.583	10489
915.696	10573
915.809	10698
915.921	10611
916.034	10504
916.146	10455
916.259	10382
916.371	10558
916.483	10558
916.595	10459
916.708	10440
916.82	10481
916.932	10379
917.044	10367
917.156	10428
917.268	10249
917.38	10341
917.491	10303
917.603	10348
917.715	10478
917.826	10459
917.938	10333
918.049	10181
918.161	10322
918.272	10455
918.384	10470
918.495	10371
918.606	10249
918.717	10120
918.828	10219
918.939	10242
919.05	10211
919.161	10211
919.272	10120
919.383	10188
919.494	10287
919.604	10455
919.715	10215
919.826	10200
919.936	10192
920.047	10295
920.157	10219
920.267	10459
920.378	10238
920.488	10227
920.598	10360
920.708	10649
920.818	10356
920.928	10436
921.038	10611
921.148	10508
921.258	10192
921.368	10215
921.477	10143
921.587	10101
921.697	9994
921.806	10055
921.916	9991
922.025	9842
922.134	9778
922.244	9736
922.353	9941
922.462	9667
922.571	9629
922.68	9553
922.789	9469
922.898	9523
923.007	9401
923.116	9584
923.224	9454
923.333	9428
923.442	9348
923.55	9321
923.659	9481
923.767	9488
923.876	9351
923.984	9389
924.092	9233
924.201	9424
924.309	9405
924.417	9344
924.525	9336
924.633	9393
924.741	10223
924.849	9157
924.956	9340
925.064	9066
925.172	9100
925.279	9108
925.387	9188
925.494	9116
925.602	9351
925.709	9207
925.816	9047
925.924	9165
926.031	9237
926.138	9097
926.245	9154
926.352	9062
926.459	9306
926.566	9218
926.673	9093
926.779	8948
926.886	8960
926.993	8910
927.099	8792
927.206	8880
927.312	8864
927.419	8868
927.525	8815
927.631	8929
927.737	8758
927.843	8716
927.95	8640
928.056	8678
928.162	8800
928.267	8811
928.373	9420
928.479	8819
928.585	8629
928.69	8739
928.796	8769
928.901	8693
929.007	8541
929.112	8583
929.218	8670
929.323	8610
929.428	8610
929.533	8769
929.638	8488
929.743	8560
929.848	8579
929.953	8549
930.058	8511
930.163	8355
930.267	8408
930.372	8503
930.477	8351
930.581	8602
930.685	8438
930.79	8259
930.894	8362
930.998	8244
931.103	8469
931.207	8092
931.311	7955
931.415	7974
931.519	7799
931.623	7833
