Data from test_V78500241_3008.txt Node
Date: Fri Mar 25 14:54:39 CST 2022
User: usil
Spectrometer: V785-0024
Trigger mode: 0
Integration Time (sec): 4.000000E-1
Scans to average: 1
Nonlinearity correction enabled: false
Boxcar width: 0
Storing dark spectrum: false
XAxis mode: Wavelengths
Number of Pixels in Spectrum: 1024
>>>>>Begin Spectral Data<<<<<
801.071	22093
801.214	21960
801.356	21667
801.499	21701
801.641	21534
801.783	21553
801.926	21629
802.068	21370
802.211	21321
802.353	21211
802.496	21077
802.638	20914
802.78	20956
802.923	20807
803.065	20762
803.208	20823
803.35	20804
803.492	20914
803.635	21013
803.777	20800
803.919	20823
804.061	21176
804.204	20811
804.346	20758
804.488	20701
804.63	20773
804.773	20648
804.915	20781
805.057	20834
805.199	20705
805.341	20819
805.483	20777
805.626	20712
805.768	20705
805.91	20746
806.052	20804
806.194	20785
806.336	20864
806.478	20739
806.62	20750
806.762	20826
806.904	20895
807.046	21112
807.188	21058
807.33	21093
807.472	20975
807.614	21039
807.756	21039
807.898	20849
808.04	20849
808.182	20705
808.324	20815
808.465	20906
808.607	21077
808.749	21074
808.891	21188
809.033	21310
809.174	21199
809.316	21146
809.458	21169
809.6	21096
809.741	21176
809.883	21195
810.025	21249
810.166	21344
810.308	21241
810.45	21173
810.591	21055
810.733	20982
810.875	20861
811.016	20830
811.158	20845
811.299	20967
811.441	20998
811.582	20948
811.724	20887
811.865	20758
812.007	20918
812.148	20842
812.29	20864
812.431	21051
812.573	20990
812.714	21233
812.855	21405
812.997	21545
813.138	21641
813.279	21469
813.421	21302
813.562	21241
813.703	21081
813.845	21074
813.986	20762
814.127	20549
814.268	20495
814.41	20480
814.551	20450
814.692	20404
814.833	20282
814.974	20423
815.115	20347
815.256	20183
815.397	20336
815.539	20328
815.68	20191
815.821	20100
815.962	20191
816.103	20084
816.244	19970
816.385	19894
816.526	19807
816.666	19632
816.807	19616
816.948	19620
817.089	19613
817.23	19708
817.371	19518
817.512	19434
817.653	19582
817.793	19464
817.934	19464
818.075	19578
818.216	19605
818.356	19472
818.497	19225
818.638	19297
818.778	19225
818.919	19228
819.06	19373
819.2	19221
819.341	19407
819.481	19422
819.622	19594
819.762	19742
819.903	19791
820.043	19582
820.184	19525
820.324	19453
820.465	19712
820.605	19605
820.746	19559
820.886	19324
821.026	19487
821.167	19407
821.307	19472
821.447	19400
821.588	19244
821.728	19187
821.868	18996
822.008	18935
822.149	19034
822.289	18954
822.429	18642
822.569	18528
822.709	18570
822.849	18445
822.99	18407
823.13	18285
823.27	18376
823.41	18243
823.55	18152
823.69	18178
823.83	18136
823.97	18095
824.11	17950
824.25	18019
824.389	17973
824.529	18110
824.669	18022
824.809	18045
824.949	18064
825.089	18083
825.228	17996
825.368	17756
825.508	17756
825.648	17805
825.787	17718
825.927	17805
826.067	17710
826.206	17604
826.346	17775
826.485	17775
826.625	17630
826.765	17767
826.904	17714
827.044	17638
827.183	17558
827.323	17433
827.462	17543
827.601	17368
827.741	17406
827.88	17440
828.02	17341
828.159	17326
828.298	17436
828.437	17505
828.577	17440
828.716	17474
828.855	17318
828.994	17200
829.134	17155
829.273	17121
829.412	17155
829.551	17159
829.69	17193
829.829	17170
829.968	17334
830.107	17235
830.246	17197
830.385	17143
830.524	16961
830.663	16923
830.802	16927
830.941	16786
831.08	16801
831.219	16911
831.357	16858
831.496	16949
831.635	16710
831.774	16713
831.913	16668
832.051	16649
832.19	16489
832.329	16611
832.467	16455
832.606	16440
832.744	16367
832.883	16462
833.022	16485
833.16	16436
833.299	16546
833.437	16512
833.576	16584
833.714	16599
833.852	16592
833.991	16500
834.129	16535
834.267	16675
834.406	16478
834.544	16599
834.682	16527
834.821	16527
834.959	16618
835.097	16424
835.235	16615
835.373	16474
835.511	16561
835.65	16519
835.788	16512
835.926	16314
836.064	16196
836.202	16246
836.34	16436
836.478	16459
836.615	16367
836.753	16440
836.891	16538
837.029	16428
837.167	16462
837.305	16325
837.443	16405
837.58	16325
837.718	16417
837.856	16318
837.993	16131
838.131	16291
838.269	16238
838.406	16223
838.544	16177
838.681	15991
838.819	15915
838.956	15812
839.094	15724
839.231	15884
839.369	15994
839.506	16242
839.643	16067
839.781	15869
839.918	15781
840.055	15800
840.193	15774
840.33	15842
840.467	15899
840.604	15888
840.742	16086
840.879	15656
841.016	15717
841.153	15610
841.29	15812
841.427	15884
841.564	15899
841.701	15835
841.838	15720
841.975	15724
842.112	15713
842.249	15667
842.385	15637
842.522	15861
842.659	15644
842.796	15511
842.933	15732
843.069	15603
843.206	15557
843.343	15732
843.479	15648
843.616	15667
843.752	15496
843.889	15462
844.025	15603
844.162	15393
844.298	15454
844.435	15450
844.571	15302
844.708	15454
844.844	15523
844.98	15534
845.117	15481
845.253	15329
845.389	15256
845.525	15233
845.661	15264
845.798	15222
845.934	15176
846.07	15146
846.206	15287
846.342	15336
846.478	15108
846.614	15005
846.75	14929
846.886	14887
847.022	15112
847.158	14929
847.294	14948
847.429	15032
847.565	14994
847.701	15214
847.837	14739
847.972	14587
848.108	14891
848.244	14674
848.379	14602
848.515	14549
848.65	14556
848.786	14571
848.921	14552
849.057	14644
849.192	14587
849.328	14587
849.463	14621
849.598	14431
849.734	14427
849.869	14522
850.004	14305
850.14	14381
850.275	14328
850.41	14233
850.545	14256
850.68	14343
850.815	14320
850.95	14267
851.085	14495
851.22	14469
851.355	14320
851.49	14320
851.625	14286
851.76	14221
851.895	14191
852.03	14199
852.165	14267
852.299	14339
852.434	14404
852.569	14419
852.703	14362
852.838	14336
852.973	14419
853.107	14541
853.242	14358
853.376	14237
853.511	14115
853.645	14142
853.78	14362
853.914	14172
854.048	14221
854.183	14073
854.317	14259
854.451	14313
854.585	14229
854.72	14195
854.854	14233
854.988	14145
855.122	14153
855.256	14054
855.39	14138
855.524	14278
855.658	14195
855.792	14252
855.926	14149
856.06	14271
856.194	14343
856.327	14134
856.461	14145
856.595	14103
856.729	14237
856.862	14244
856.996	14233
857.13	14259
857.263	14271
857.397	14233
857.53	14183
857.664	14320
857.797	14366
857.931	14267
858.064	14187
858.197	14282
858.331	14221
858.464	14202
858.597	14088
858.731	14164
858.864	14202
858.997	14103
859.13	14176
859.263	14218
859.396	14187
859.529	14134
859.662	14123
859.795	14176
859.928	14191
860.061	14328
860.194	14355
860.327	14183
860.46	14263
860.592	14256
860.725	14248
860.858	14221
860.99	14164
861.123	14176
861.256	14123
861.388	14164
861.521	14883
861.653	14176
861.786	14005
861.918	14069
862.05	14050
862.183	14157
862.315	14119
862.447	14252
862.58	14202
862.712	13970
862.844	13860
862.976	14073
863.108	14050
863.24	14313
863.372	13894
863.504	13978
863.636	14027
863.768	14035
863.9	13959
864.032	13879
864.164	13883
864.296	14031
864.428	14100
864.559	14069
864.691	14062
864.823	13986
864.954	14008
865.086	13959
865.217	13955
865.349	13909
865.48	13959
865.612	13902
865.743	14043
865.875	13959
866.006	13906
866.137	13917
866.269	13883
866.4	13928
866.531	13887
866.662	13868
866.793	13887
866.924	13947
867.055	13993
867.186	14035
867.317	13875
867.448	13871
867.579	13845
867.71	13894
867.841	13871
867.972	13993
868.103	13909
868.233	13982
868.364	13955
868.495	14088
868.625	14233
868.756	14275
868.886	14012
869.017	14244
869.147	14237
869.278	14328
869.408	14180
869.539	14244
869.669	14358
869.799	14187
869.929	14305
870.06	14240
870.19	14522
870.32	14450
870.45	14560
870.58	14629
870.71	14731
870.84	14708
870.97	14583
871.1	14644
871.23	14842
871.36	14804
871.489	14708
871.619	14762
871.749	14811
871.879	14845
872.008	14834
872.138	14849
872.267	14796
872.397	14640
872.526	14602
872.656	14602
872.785	14644
872.915	14800
873.044	14948
873.173	14830
873.303	14872
873.432	15001
873.561	14902
873.69	14902
873.819	14902
873.948	14849
874.077	14868
874.206	14842
874.335	14857
874.464	15043
874.593	15112
874.722	15123
874.851	15264
874.979	15165
875.108	15218
875.237	15157
875.365	15203
875.494	15154
875.623	15275
875.751	15036
875.88	15157
876.008	15329
876.136	15386
876.265	15599
876.393	15854
876.521	15637
876.65	15739
876.778	15599
876.906	15515
877.034	15557
877.162	15488
877.29	15469
877.418	15500
877.546	15561
877.674	15633
877.802	15523
877.93	15564
878.058	15534
878.185	15488
878.313	15488
878.441	15515
878.568	15363
878.696	15458
878.824	15557
878.951	15595
879.079	15781
879.206	15827
879.333	15751
879.461	15614
879.588	15648
879.715	15759
879.842	15846
879.97	15736
880.097	15397
880.224	15389
880.351	15511
880.478	15462
880.605	15488
880.732	15367
880.859	15671
880.986	15447
881.112	15412
881.239	15321
881.366	15131
881.493	15138
881.619	15184
881.746	15173
881.872	15112
881.999	15066
882.125	15104
882.252	15211
882.378	15157
882.505	15245
882.631	15001
882.757	14910
882.883	14864
883.01	14937
883.136	14819
883.262	14788
883.388	14785
883.514	14906
883.64	14944
883.766	14811
883.892	14667
884.018	14727
884.143	14891
884.269	15024
884.395	14689
884.52	14606
884.646	14636
884.772	14617
884.897	14594
885.023	14617
885.148	14727
885.274	14781
885.399	14746
885.524	14610
885.65	14610
885.775	14640
885.9	14552
886.025	14735
886.15	14632
886.275	14621
886.4	14495
886.525	14560
886.65	14556
886.775	14598
886.9	14701
887.025	14849
887.149	14590
887.274	14457
887.399	14377
887.523	14446
887.648	14313
887.773	14339
887.897	14549
888.021	14488
888.146	14370
888.27	14549
888.395	14518
888.519	14476
888.643	14412
888.767	14442
888.891	14366
889.015	14355
889.139	14290
889.263	14294
889.387	14412
889.511	14503
889.635	14484
889.759	14309
889.883	14320
890.006	14362
890.13	14461
890.254	14328
890.377	14225
890.501	14199
890.624	14020
890.748	14145
890.871	14111
890.995	14012
891.118	13951
891.241	14065
891.364	14103
891.488	14100
891.611	14103
891.734	13936
891.857	14046
891.98	14138
892.103	14027
892.226	14073
892.349	14039
892.471	13856
892.594	13898
892.717	13883
892.839	14043
892.962	14039
893.085	14050
893.207	14008
893.33	13928
893.452	13909
893.575	14035
893.697	13974
893.819	14161
893.941	14271
894.064	14206
894.186	14005
894.308	13974
894.43	14111
894.552	14244
894.674	14191
894.796	14024
894.918	14084
895.04	14065
895.161	14153
895.283	14138
895.405	14043
895.526	14111
895.648	14206
895.769	14221
895.891	14187
896.012	14199
896.134	14240
896.255	14195
896.376	14142
896.498	14221
896.619	14206
896.74	14183
896.861	14214
896.982	14537
897.103	14632
897.224	14461
897.345	14495
897.466	14495
897.587	14328
897.708	14549
897.828	14492
897.949	14423
898.07	14389
898.19	14374
898.311	14568
898.431	14461
898.552	14454
898.672	14556
898.792	14621
898.913	14640
899.033	14495
899.153	14446
899.273	14263
899.393	14362
899.513	14362
899.633	14362
899.753	14476
899.873	14377
899.993	14503
900.113	14305
900.232	14362
900.352	14381
900.472	14267
900.591	14278
900.711	14237
900.83	14313
900.95	14389
901.069	14389
901.189	14237
901.308	14031
901.427	13955
901.546	13947
901.665	14065
901.784	14008
901.904	13898
902.023	13757
902.141	13624
902.26	13620
902.379	13620
902.498	13480
902.617	13445
902.735	13578
902.854	13552
902.973	13384
903.091	13251
903.21	13285
903.328	13183
903.446	13141
903.565	13103
903.683	13069
903.801	13004
903.919	13088
904.038	13061
904.156	12825
904.274	13012
904.392	12947
904.51	12863
904.627	12897
904.745	13023
904.863	12878
904.981	12719
905.098	12620
905.216	12578
905.334	12703
905.451	12559
905.569	12540
905.686	12585
905.803	12593
905.921	12380
906.038	12494
906.155	12426
906.272	12311
906.389	12334
906.506	12239
906.623	12190
906.74	12136
906.857	12129
906.974	12136
907.091	12216
907.208	12361
907.324	12178
907.441	12102
907.557	11961
907.674	11939
907.79	11882
907.907	11908
908.023	12022
908.139	12007
908.256	11824
908.372	11840
908.488	11771
908.604	11752
908.72	11668
908.836	11707
908.952	11543
909.068	11699
909.184	11882
909.3	11649
909.415	11710
909.531	11665
909.647	11585
909.762	11486
909.878	11429
909.993	11459
910.108	11516
910.224	11467
910.339	11535
910.454	11356
910.57	11284
910.685	11315
910.8	11573
910.915	11444
911.03	11330
911.145	11174
911.259	11090
911.374	11140
911.489	11048
911.604	11155
911.718	10889
911.833	10869
911.947	10820
912.062	10725
912.176	10889
912.291	10930
912.405	10839
912.519	11121
912.633	11083
912.748	11010
912.862	10934
912.976	10801
913.09	10702
913.204	10782
913.318	10793
913.431	10854
913.545	10835
913.659	10885
913.772	10744
913.886	10694
914	10706
914.113	10816
914.226	10866
914.34	10793
914.453	10538
914.566	10736
914.68	10672
914.793	10618
914.906	10409
915.019	10363
915.132	10352
915.245	10421
915.358	10455
915.47	10508
915.583	10447
915.696	10421
915.809	10611
915.921	10630
916.034	10371
916.146	10451
916.259	10402
916.371	10497
916.483	10481
916.595	10265
916.708	10379
916.82	10371
916.932	10284
917.044	10367
917.156	10337
917.268	10249
917.38	10272
917.491	10249
917.603	10276
917.715	10356
917.826	10337
917.938	10169
918.049	10139
918.161	10322
918.272	10379
918.384	10352
918.495	10291
918.606	10147
918.717	10078
918.828	10116
918.939	10131
919.05	10063
919.161	10082
919.272	9953
919.383	9903
919.494	10150
919.604	10322
919.715	10181
919.826	9998
919.936	10150
920.047	10173
920.157	10204
920.267	10310
920.378	10253
920.488	10200
920.598	10367
920.708	10462
920.818	10363
920.928	10360
921.038	10546
921.148	10497
921.258	10227
921.368	10063
921.477	10029
921.587	10025
921.697	9903
921.806	10074
921.916	9884
922.025	9762
922.134	9713
922.244	9698
922.353	9816
922.462	9648
922.571	9568
922.68	9507
922.789	9386
922.898	9428
923.007	9294
923.116	9477
923.224	9462
923.333	9401
923.442	9325
923.55	9279
923.659	9359
923.767	9370
923.876	9226
923.984	9313
924.092	9218
924.201	9294
924.309	9207
924.417	9279
924.525	9237
924.633	9230
924.741	10173
924.849	9058
924.956	9222
925.064	9135
925.172	9001
925.279	9043
925.387	9085
925.494	9074
925.602	9214
925.709	9119
925.816	9028
925.924	9043
926.031	9150
926.138	9081
926.245	9138
926.352	8994
926.459	9108
926.566	9188
926.673	9020
926.779	8902
926.886	8914
926.993	8796
927.099	8807
927.206	8743
927.312	8769
927.419	8815
927.525	8792
927.631	8792
927.737	8686
927.843	8667
927.95	8522
928.056	8674
928.162	8716
928.267	8674
928.373	9226
928.479	8735
928.585	8610
928.69	8670
928.796	8773
928.901	8610
929.007	8461
929.112	8571
929.218	8625
929.323	8545
929.428	8484
929.533	8655
929.638	8446
929.743	8492
929.848	8522
929.953	8541
930.058	8381
930.163	8229
930.267	8256
930.372	8457
930.477	8294
930.581	8564
930.685	8362
930.79	8187
930.894	8294
930.998	8218
931.103	8351
931.207	8043
931.311	7993
931.415	7932
931.519	7826
931.623	7761
