Data from test_V78500241_385.txt Node
Date: Fri Mar 25 14:36:24 CST 2022
User: usil
Spectrometer: V785-0024
Trigger mode: 0
Integration Time (sec): 4.000000E-1
Scans to average: 1
Nonlinearity correction enabled: false
Boxcar width: 0
Storing dark spectrum: false
XAxis mode: Wavelengths
Number of Pixels in Spectrum: 1024
>>>>>Begin Spectral Data<<<<<
801.071	26781
801.214	26632
801.356	26370
801.499	26332
801.641	26054
801.783	26286
801.926	26256
802.068	26043
802.211	26069
802.353	25940
802.496	25803
802.638	25837
802.78	25826
802.923	25750
803.065	25681
803.208	25655
803.35	25750
803.492	25826
803.635	25852
803.777	25655
803.919	25890
804.061	26115
804.204	25670
804.346	25571
804.488	25658
804.63	25795
804.773	25552
804.915	25784
805.057	25666
805.199	25658
805.341	25712
805.483	25715
805.626	25887
805.768	25658
805.91	25822
806.052	25753
806.194	25685
806.336	25925
806.478	25746
806.62	25791
806.762	25932
806.904	25883
807.046	26145
807.188	26100
807.33	26069
807.472	26027
807.614	26115
807.756	26161
807.898	25932
808.04	25693
808.182	25868
808.324	25845
808.465	25845
808.607	26058
808.749	26317
808.891	26355
809.033	26393
809.174	26332
809.316	26187
809.458	26294
809.6	26145
809.741	26324
809.883	26332
810.025	26503
810.166	26343
810.308	26347
810.45	26301
810.591	26385
810.733	26210
810.875	26153
811.016	25997
811.158	25906
811.299	26073
811.441	26275
811.582	26191
811.724	26199
811.865	26088
812.007	26092
812.148	26005
812.29	26027
812.431	26328
812.573	26362
812.714	26362
812.855	26674
812.997	26583
813.138	26785
813.279	26587
813.421	26507
813.562	26549
813.703	26415
813.845	26328
813.986	25932
814.127	25849
814.268	25643
814.41	25677
814.551	25620
814.692	25750
814.833	25575
814.974	25540
815.115	25537
815.256	25289
815.397	25407
815.539	25392
815.68	25468
815.821	25384
815.962	25400
816.103	25304
816.244	25236
816.385	25164
816.526	25164
816.666	25076
816.807	24669
816.948	24783
817.089	24848
817.23	24787
817.371	24741
817.512	24639
817.653	24642
817.793	24741
817.934	24703
818.075	24692
818.216	24730
818.356	24696
818.497	24566
818.638	24536
818.778	24467
818.919	24464
819.06	24585
819.2	24532
819.341	24536
819.481	24589
819.622	24711
819.762	25072
819.903	24920
820.043	24726
820.184	24738
820.324	24745
820.465	24810
820.605	24802
820.746	24719
820.886	24612
821.026	24650
821.167	24654
821.307	24741
821.447	24612
821.588	24460
821.728	24342
821.868	24194
822.008	24018
822.149	24155
822.289	23965
822.429	23832
822.569	23710
822.709	23851
822.849	23642
822.99	23566
823.13	23535
823.27	23391
823.41	23334
823.55	23288
823.69	23395
823.83	23277
823.97	23231
824.11	23113
824.25	23010
824.389	23071
824.529	23223
824.669	23075
824.809	23178
824.949	23166
825.089	23181
825.228	23079
825.368	22892
825.508	22831
825.648	22984
825.787	22930
825.927	22934
826.067	22847
826.206	22835
826.346	23006
826.485	22812
826.625	22862
826.765	22995
826.904	22984
827.044	22645
827.183	22763
827.323	22542
827.462	22599
827.601	22519
827.741	22466
827.88	22527
828.02	22394
828.159	22550
828.298	22489
828.437	22565
828.577	22459
828.716	22569
828.855	22523
828.994	22386
829.134	22276
829.273	22379
829.412	22322
829.551	22101
829.69	22185
829.829	22322
829.968	22352
830.107	22352
830.246	22261
830.385	22185
830.524	22181
830.663	21998
830.802	21956
830.941	21739
831.08	21774
831.219	21880
831.357	21930
831.496	21926
831.635	21827
831.774	21698
831.913	21637
832.051	21633
832.19	21610
832.329	21523
832.467	21534
832.606	21458
832.744	21488
832.883	21473
833.022	21439
833.16	21523
833.299	21549
833.437	21420
833.576	21587
833.714	21504
833.852	21504
833.991	21477
834.129	21523
834.267	21606
834.406	21462
834.544	21515
834.682	21481
834.821	21412
834.959	21686
835.097	21378
835.235	21561
835.373	21538
835.511	21374
835.65	21279
835.788	21310
835.926	21089
836.064	21188
836.202	21211
836.34	21389
836.478	21386
836.615	21260
836.753	21393
836.891	21378
837.029	21405
837.167	21298
837.305	21264
837.443	21313
837.58	21230
837.718	21272
837.856	21104
837.993	21081
838.131	21222
838.269	21074
838.406	21055
838.544	21032
838.681	20788
838.819	20762
838.956	20701
839.094	20781
839.231	20739
839.369	20785
839.506	20937
839.643	20902
839.781	20549
839.918	20518
840.055	20617
840.193	20708
840.33	20556
840.467	20571
840.604	20609
840.742	20773
840.879	20480
841.016	20488
841.153	20351
841.29	20583
841.427	20556
841.564	20598
841.701	20476
841.838	20351
841.975	20427
842.112	20522
842.249	20343
842.385	20237
842.522	20419
842.659	20309
842.796	20256
842.933	20248
843.069	20176
843.206	20282
843.343	20210
843.479	20294
843.616	20259
843.752	20005
843.889	20008
844.025	20096
844.162	20111
844.298	20130
844.435	19955
844.571	19986
844.708	20096
844.844	20202
844.98	20157
845.117	20221
845.253	19947
845.389	19902
845.525	19894
845.661	19944
845.798	19788
845.934	19879
846.07	19822
846.206	19932
846.342	19868
846.478	19708
846.614	19521
846.75	19499
846.886	19362
847.022	19590
847.158	19563
847.294	19392
847.429	19514
847.565	19518
847.701	19689
847.837	19301
847.972	19129
848.108	19304
848.244	19304
848.379	19103
848.515	19091
848.65	19080
848.786	19069
848.921	19095
849.057	19194
849.192	19145
849.328	19175
849.463	19023
849.598	19012
849.734	18958
849.869	18897
850.004	18821
850.14	18806
850.275	18776
850.41	18726
850.545	18585
850.68	18852
850.815	18844
850.95	18833
851.085	18901
851.22	18837
851.355	18665
851.49	18734
851.625	18688
851.76	18734
851.895	18593
852.03	18608
852.165	18760
852.299	18681
852.434	18886
852.569	18787
852.703	18726
852.838	18829
852.973	18833
853.107	18760
853.242	18604
853.376	18563
853.511	18547
853.645	18513
853.78	18749
853.914	18696
854.048	18532
854.183	18460
854.317	18669
854.451	18696
854.585	18601
854.72	18490
854.854	18608
854.988	18509
855.122	18566
855.256	18498
855.39	18582
855.524	18726
855.658	18677
855.792	18570
855.926	18627
856.06	18677
856.194	18650
856.327	18661
856.461	18475
856.595	18475
856.729	18460
856.862	18749
856.996	18498
857.13	18654
857.263	18692
857.397	18650
857.53	18574
857.664	18608
857.797	18635
857.931	18715
858.064	18601
858.197	18593
858.331	18525
858.464	18589
858.597	18445
858.731	18509
858.864	18384
858.997	18448
859.13	18502
859.263	18513
859.396	18612
859.529	18452
859.662	18559
859.795	18536
859.928	18616
860.061	18593
860.194	18593
860.327	18559
860.46	18513
860.592	18654
860.725	18650
860.858	18616
860.99	18517
861.123	18369
861.256	18475
861.388	18429
861.521	19278
861.653	18441
861.786	18399
861.918	18464
862.05	18589
862.183	18540
862.315	18589
862.447	18631
862.58	18456
862.712	18315
862.844	18125
862.976	18365
863.108	18361
863.24	18601
863.372	18251
863.504	18235
863.636	18186
863.768	18365
863.9	18194
864.032	18201
864.164	18114
864.296	18315
864.428	18270
864.559	18243
864.691	18334
864.823	18243
864.954	18281
865.086	18311
865.217	18178
865.349	18038
865.48	18178
865.612	18167
865.743	18239
865.875	18190
866.006	18125
866.137	18133
866.269	18228
866.4	18209
866.531	18117
866.662	18102
866.793	18159
866.924	18167
867.055	18034
867.186	18194
867.317	18144
867.448	17969
867.579	18053
867.71	17969
867.841	18114
867.972	18163
868.103	18007
868.233	18121
868.364	18163
868.495	18239
868.625	18327
868.756	18395
868.886	18178
869.017	18369
869.147	18418
869.278	18536
869.408	18308
869.539	18346
869.669	18334
869.799	18357
869.929	18464
870.06	18414
870.19	18627
870.32	18654
870.45	18525
870.58	18738
870.71	18852
870.84	18783
870.97	18642
871.1	18791
871.23	18760
871.36	18958
871.489	18878
871.619	18966
871.749	18894
871.879	18901
872.008	19031
872.138	18901
872.267	18973
872.397	18829
872.526	18730
872.656	18798
872.785	18726
872.915	18901
873.044	19076
873.173	18954
873.303	18973
873.432	18951
873.561	19042
873.69	18920
873.819	18996
873.948	19046
874.077	18886
874.206	18909
874.335	19000
874.464	19114
874.593	19057
874.722	19240
874.851	19221
874.979	19289
875.108	19327
875.237	19171
875.365	19190
875.494	19213
875.623	19270
875.751	19171
875.88	19358
876.008	19339
876.136	19327
876.265	19750
876.393	19788
876.521	19685
876.65	19765
876.778	19734
876.906	19514
877.034	19548
877.162	19704
877.29	19556
877.418	19559
877.546	19658
877.674	19635
877.802	19575
877.93	19670
878.058	19628
878.185	19495
878.313	19605
878.441	19639
878.568	19472
878.696	19575
878.824	19689
878.951	19670
879.079	19776
879.206	20024
879.333	19898
879.461	19757
879.588	19795
879.715	19849
879.842	19955
879.97	19700
880.097	19388
880.224	19438
880.351	19426
880.478	19518
880.605	19472
880.732	19514
880.859	19700
880.986	19419
881.112	19407
881.239	19403
881.366	19175
881.493	19110
881.619	19099
881.746	19088
881.872	19099
881.999	19050
882.125	18977
882.252	19137
882.378	19171
882.505	19148
882.631	19004
882.757	18928
882.883	18829
883.01	18821
883.136	18844
883.262	18772
883.388	18616
883.514	18886
883.64	18928
883.766	18840
883.892	18688
884.018	18749
884.143	18814
884.269	18909
884.395	18578
884.52	18506
884.646	18532
884.772	18490
884.897	18475
885.023	18502
885.148	18601
885.274	18688
885.399	18658
885.524	18509
885.65	18597
885.775	18551
885.9	18429
886.025	18570
886.15	18532
886.275	18483
886.4	18422
886.525	18372
886.65	18418
886.775	18422
886.9	18506
887.025	18661
887.149	18437
887.274	18315
887.399	18292
887.523	18308
887.648	18281
887.773	18190
887.897	18407
888.021	18388
888.146	18254
888.27	18441
888.395	18426
888.519	18304
888.643	18289
888.767	18270
888.891	18292
889.015	18079
889.139	18171
889.263	18114
889.387	18117
889.511	18289
889.635	18190
889.759	17996
889.883	18133
890.006	18072
890.13	18133
890.254	17980
890.377	18057
890.501	17870
890.624	17882
890.748	17988
890.871	17855
890.995	17585
891.118	17604
891.241	17832
891.364	17680
891.488	17882
891.611	17729
891.734	17707
891.857	17726
891.98	17718
892.103	17760
892.226	17680
892.349	17623
892.471	17493
892.594	17657
892.717	17722
892.839	17611
892.962	17623
893.085	17710
893.207	17577
893.33	17581
893.452	17573
893.575	17668
893.697	17653
893.819	17821
893.941	17863
894.064	17676
894.186	17634
894.308	17554
894.43	17775
894.552	17729
894.674	17695
894.796	17627
894.918	17592
895.04	17604
895.161	17786
895.283	17737
895.405	17562
895.526	17577
895.648	17676
895.769	17737
895.891	17794
896.012	17733
896.134	17779
896.255	17756
896.376	17589
896.498	17707
896.619	17847
896.74	17691
896.861	17840
896.982	18007
897.103	18167
897.224	18022
897.345	17988
897.466	17958
897.587	17889
897.708	18102
897.828	18053
897.949	17973
898.07	17790
898.19	17901
898.311	18030
898.431	17984
898.552	17965
898.672	18030
898.792	17977
898.913	17965
899.033	17805
899.153	17726
899.273	17729
899.393	17779
899.513	17691
899.633	17771
899.753	17707
899.873	17672
899.993	17779
900.113	17680
900.232	17653
900.352	17562
900.472	17516
900.591	17657
900.711	17573
900.83	17493
900.95	17585
901.069	17638
901.189	17486
901.308	17326
901.427	17227
901.546	17261
901.665	17254
901.784	17208
901.904	17071
902.023	17010
902.141	16774
902.26	16782
902.379	16809
902.498	16763
902.617	16558
902.735	16763
902.854	16679
902.973	16668
903.091	16481
903.21	16440
903.328	16504
903.446	16363
903.565	16200
903.683	16215
903.801	16150
903.919	16162
904.038	16090
904.156	15895
904.274	16067
904.392	15911
904.51	15975
904.627	16090
904.745	16032
904.863	15949
904.981	15819
905.098	15766
905.216	15679
905.334	15625
905.451	15667
905.569	15610
905.686	15785
905.803	15694
905.921	15538
906.038	15462
906.155	15511
906.272	15367
906.389	15359
906.506	15268
906.623	15226
906.74	15207
906.857	15138
906.974	15085
907.091	15226
907.208	15298
907.324	15195
907.441	15100
907.557	14994
907.674	14887
907.79	14815
907.907	14842
908.023	14948
908.139	14811
908.256	14826
908.372	14834
908.488	14853
908.604	14682
908.72	14644
908.836	14689
908.952	14659
909.068	14632
909.184	14781
909.3	14617
909.415	14670
909.531	14629
909.647	14275
909.762	14370
909.878	14267
909.993	14400
910.108	14309
910.224	14263
910.339	14374
910.454	14218
910.57	14229
910.685	14096
910.8	14366
910.915	14298
911.03	14084
911.145	14008
911.259	13959
911.374	13928
911.489	13944
911.604	13761
911.718	13689
911.833	13826
911.947	13605
912.062	13624
912.176	13662
912.291	13727
912.405	13685
912.519	13906
912.633	13883
912.748	13753
912.862	13731
912.976	13662
913.09	13464
913.204	13502
913.318	13472
913.431	13624
913.545	13651
913.659	13620
913.772	13567
913.886	13400
914	13449
914.113	13464
914.226	13445
914.34	13525
914.453	13350
914.566	13400
914.68	13285
914.793	13202
914.906	13110
915.019	13023
915.132	13027
915.245	13057
915.358	13076
915.47	13114
915.583	13042
915.696	13034
915.809	13160
915.921	13209
916.034	12973
916.146	12970
916.259	12973
916.371	13084
916.483	12993
916.595	12913
916.708	12924
916.82	12916
916.932	12939
917.044	12993
917.156	12814
917.268	12772
917.38	12894
917.491	12760
917.603	12810
917.715	12916
917.826	12897
917.938	12837
918.049	12669
918.161	12779
918.272	12890
918.384	12897
918.495	12722
918.606	12642
918.717	12479
918.828	12631
918.939	12654
919.05	12452
919.161	12585
919.272	12407
919.383	12414
919.494	12570
919.604	12791
919.715	12589
919.826	12460
919.936	12547
920.047	12616
920.157	12589
920.267	12715
920.378	12585
920.488	12582
920.598	12700
920.708	12848
920.818	12658
920.928	12662
921.038	12833
921.148	12764
921.258	12467
921.368	12304
921.477	12433
921.587	12235
921.697	12194
921.806	12350
921.916	12163
922.025	12110
922.134	11977
922.244	11927
922.353	11992
922.462	11935
922.571	11836
922.68	11726
922.789	11585
922.898	11577
923.007	11547
923.116	11611
923.224	11596
923.333	11554
923.442	11535
923.55	11459
923.659	11509
923.767	11543
923.876	11501
923.984	11551
924.092	11452
924.201	11497
924.309	11436
924.417	11501
924.525	11318
924.633	11406
924.741	12273
924.849	11185
924.956	11307
925.064	11181
925.172	11162
925.279	11178
925.387	11235
925.494	11212
925.602	11368
925.709	11315
925.816	11052
925.924	11140
926.031	11273
926.138	11197
926.245	11307
926.352	11094
926.459	11117
926.566	11303
926.673	11124
926.779	11048
926.886	10949
926.993	10877
927.099	10862
927.206	10759
927.312	10824
927.419	10877
927.525	10824
927.631	10938
927.737	10706
927.843	10740
927.95	10542
928.056	10653
928.162	10706
928.267	10710
928.373	11353
928.479	10782
928.585	10508
928.69	10679
928.796	10714
928.901	10577
929.007	10447
929.112	10592
929.218	10504
929.323	10447
929.428	10500
929.533	10599
929.638	10462
929.743	10371
929.848	10455
929.953	10421
930.058	10322
930.163	10112
930.267	10147
930.372	10356
930.477	10196
930.581	10356
930.685	10223
930.79	10131
930.894	10188
930.998	10017
931.103	10223
931.207	9911
931.311	9789
931.415	9675
931.519	9549
931.623	9469
