Data from test_V78500241_844.txt Node
Date: Fri Mar 25 14:39:35 CST 2022
User: usil
Spectrometer: V785-0024
Trigger mode: 0
Integration Time (sec): 4.000000E-1
Scans to average: 1
Nonlinearity correction enabled: false
Boxcar width: 0
Storing dark spectrum: false
XAxis mode: Wavelengths
Number of Pixels in Spectrum: 1024
>>>>>Begin Spectral Data<<<<<
801.071	26065
801.214	25909
801.356	25635
801.499	25597
801.641	25400
801.783	25278
801.926	25282
802.068	25343
802.211	25187
802.353	25015
802.496	24867
802.638	24943
802.78	24776
802.923	24814
803.065	24631
803.208	24692
803.35	24719
803.492	24829
803.635	24806
803.777	24749
803.919	24947
804.061	25095
804.204	25012
804.346	24875
804.488	24757
804.63	24856
804.773	24802
804.915	25042
805.057	24977
805.199	24916
805.341	25187
805.483	25069
805.626	25168
805.768	25133
805.91	25228
806.052	25324
806.194	25324
806.336	25689
806.478	25647
806.62	25750
806.762	25841
806.904	26229
807.046	26621
807.188	26648
807.33	26937
807.472	27275
807.614	27732
807.756	28188
807.898	28717
808.04	29505
808.182	30757
808.324	32290
808.465	33888
808.607	35927
808.749	37533
808.891	38746
809.033	38533
809.174	37601
809.316	35874
809.458	34029
809.6	32069
809.741	30547
809.883	29379
810.025	28542
810.166	28002
810.308	27545
810.45	27081
810.591	26823
810.733	26476
810.875	26275
811.016	25982
811.158	25841
811.299	25864
811.441	25818
811.582	25784
811.724	25594
811.865	25525
812.007	25441
812.148	25320
812.29	25407
812.431	25479
812.573	25597
812.714	25807
812.855	25712
812.997	25791
813.138	25917
813.279	25719
813.421	25635
813.562	25609
813.703	25632
813.845	25232
813.986	24966
814.127	24711
814.268	24544
814.41	24612
814.551	24563
814.692	24566
814.833	24426
814.974	24525
815.115	24292
815.256	24220
815.397	24388
815.539	24319
815.68	24178
815.821	24076
815.962	24213
816.103	24174
816.244	24003
816.385	23786
816.526	23783
816.666	23710
816.807	23433
816.948	23649
817.089	23703
817.23	23608
817.371	23566
817.512	23410
817.653	23482
817.793	23410
817.934	23459
818.075	23429
818.216	23417
818.356	23345
818.497	23227
818.638	23109
818.778	23048
818.919	23113
819.06	23216
819.2	23204
819.341	23353
819.481	23292
819.622	23539
819.762	23726
819.903	23512
820.043	23440
820.184	23315
820.324	23452
820.465	23467
820.605	23265
820.746	23322
820.886	23189
821.026	23303
821.167	23185
821.307	23364
821.447	23330
821.588	23052
821.728	22908
821.868	22763
822.008	22748
822.149	22691
822.289	22577
822.429	22223
822.569	22314
822.709	22287
822.849	22143
822.99	22017
823.13	22128
823.27	22044
823.41	21918
823.55	21755
823.69	21816
823.83	21884
823.97	21854
824.11	21603
824.25	21641
824.389	21660
824.529	21705
824.669	21633
824.809	21732
824.949	21747
825.089	21675
825.228	21553
825.368	21416
825.508	21523
825.648	21576
825.787	21450
825.927	21492
826.067	21416
826.206	21397
826.346	21485
826.485	21504
826.625	21367
826.765	21641
826.904	21389
827.044	21173
827.183	21093
827.323	21089
827.462	21165
827.601	21074
827.741	21020
827.88	21154
828.02	20941
828.159	21017
828.298	21150
828.437	21157
828.577	21104
828.716	21173
828.855	21009
828.994	20765
829.134	20739
829.273	20815
829.412	20667
829.551	20644
829.69	20617
829.829	20788
829.968	20819
830.107	20811
830.246	20819
830.385	20731
830.524	20686
830.663	20507
830.802	20545
830.941	20434
831.08	20457
831.219	20412
831.357	20480
831.496	20625
831.635	20347
831.774	20396
831.913	20313
832.051	20161
832.19	20176
832.329	20339
832.467	20183
832.606	20183
832.744	20126
832.883	20164
833.022	20244
833.16	20370
833.299	20351
833.437	20427
833.576	20522
833.714	20598
833.852	20697
833.991	20629
834.129	20754
834.267	20838
834.406	20735
834.544	20678
834.682	20670
834.821	20598
834.959	20659
835.097	20347
835.235	20434
835.373	20225
835.511	20164
835.65	20062
835.788	20016
835.926	19982
836.064	19799
836.202	19746
836.34	20001
836.478	19959
836.615	19898
836.753	19887
836.891	19997
837.029	19898
837.167	19879
837.305	19719
837.443	19677
837.58	19635
837.718	19769
837.856	19746
837.993	19605
838.131	19772
838.269	19537
838.406	19639
838.544	19605
838.681	19449
838.819	19483
838.956	19247
839.094	19194
839.231	19247
839.369	19331
839.506	19624
839.643	19403
839.781	19270
839.918	19084
840.055	19221
840.193	19152
840.33	19171
840.467	19164
840.604	19251
840.742	19400
840.879	18993
841.016	19084
841.153	19084
841.29	19148
841.427	19118
841.564	19183
841.701	19103
841.838	19065
841.975	19072
842.112	19023
842.249	18894
842.385	18890
842.522	19031
842.659	19046
842.796	18932
842.933	18909
843.069	18932
843.206	18840
843.343	18958
843.479	19008
843.616	18947
843.752	18901
843.889	18840
844.025	18993
844.162	18916
844.298	19107
844.435	19023
844.571	19065
844.708	19335
844.844	19552
844.98	19868
845.117	20145
845.253	20541
845.389	21507
845.525	23482
845.661	26613
845.798	30414
845.934	33321
846.07	34538
846.206	34101
846.342	31761
846.478	27713
846.614	24384
846.75	22120
846.886	20556
847.022	19917
847.158	19426
847.294	19008
847.429	18852
847.565	18703
847.701	18791
847.837	18251
847.972	18224
848.108	18292
848.244	18083
848.379	17897
848.515	17901
848.65	17958
848.786	17824
848.921	17927
849.057	18007
849.192	17923
849.328	17866
849.463	17817
849.598	17809
849.734	17691
849.869	17676
850.004	17581
850.14	17630
850.275	17581
850.41	17471
850.545	17562
850.68	17532
850.815	17592
850.95	17539
851.085	17665
851.22	17646
851.355	17611
851.49	17433
851.625	17448
851.76	17528
851.895	17539
852.03	17452
852.165	17505
852.299	17444
852.434	17623
852.569	17566
852.703	17634
852.838	17665
852.973	17707
853.107	17699
853.242	17630
853.376	17577
853.511	17398
853.645	17520
853.78	17718
853.914	17459
854.048	17509
854.183	17600
854.317	17642
854.451	17946
854.585	17665
854.72	17585
854.854	17604
854.988	17425
855.122	17532
855.256	17440
855.39	17474
855.524	17554
855.658	17539
855.792	17589
855.926	17474
856.06	17512
856.194	17455
856.327	17478
856.461	17463
856.595	17410
856.729	17414
856.862	17497
856.996	17459
857.13	17524
857.263	17543
857.397	17471
857.53	17425
857.664	17478
857.797	17486
857.931	17478
858.064	17387
858.197	17490
858.331	17356
858.464	17303
858.597	17273
858.731	17303
858.864	17307
858.997	17292
859.13	17143
859.263	17383
859.396	17311
859.529	17410
859.662	17288
859.795	17269
859.928	17318
860.061	17398
860.194	17429
860.327	17368
860.46	17364
860.592	17368
860.725	17410
860.858	17414
860.99	17318
861.123	17151
861.256	17303
861.388	17254
861.521	17939
861.653	17155
861.786	17185
861.918	17140
862.05	17216
862.183	17235
862.315	17261
862.447	17433
862.58	17185
862.712	17094
862.844	17029
862.976	17060
863.108	17037
863.24	17368
863.372	16889
863.504	16980
863.636	16953
863.768	16999
863.9	17045
864.032	16885
864.164	16873
864.296	17033
864.428	17083
864.559	17025
864.691	17102
864.823	17056
864.954	17113
865.086	17010
865.217	16980
865.349	16934
865.48	16843
865.612	16915
865.743	17037
865.875	16968
866.006	16900
866.137	16972
866.269	16911
866.4	16885
866.531	16828
866.662	16930
866.793	16809
866.924	16866
867.055	16873
867.186	16984
867.317	16850
867.448	16862
867.579	16938
867.71	16820
867.841	16744
867.972	16942
868.103	16904
868.233	16934
868.364	16900
868.495	17033
868.625	17037
868.756	17166
868.886	17075
869.017	17162
869.147	17265
869.278	17311
869.408	17216
869.539	17155
869.669	17269
869.799	17166
869.929	17246
870.06	17242
870.19	17490
870.32	17455
870.45	17524
870.58	17543
870.71	17710
870.84	17729
870.97	17642
871.1	17520
871.23	17699
871.36	17805
871.489	17786
871.619	17817
871.749	17798
871.879	17916
872.008	17950
872.138	17832
872.267	17828
872.397	17840
872.526	17665
872.656	17581
872.785	17630
872.915	17885
873.044	17958
873.173	17870
873.303	17988
873.432	17965
873.561	18064
873.69	18019
873.819	17999
873.948	18007
874.077	18121
874.206	17893
874.335	17920
874.464	18281
874.593	18369
874.722	18228
874.851	18479
874.979	18544
875.108	18555
875.237	18338
875.365	18395
875.494	18631
875.623	18502
875.751	18521
875.88	18597
876.008	18722
876.136	18768
876.265	18977
876.393	19179
876.521	19031
876.65	19194
876.778	19171
876.906	19072
877.034	19148
877.162	19213
877.29	19293
877.418	19289
877.546	19381
877.674	19609
877.802	19434
877.93	19483
878.058	19552
878.185	19666
878.313	19898
878.441	20157
878.568	20111
878.696	20613
878.824	21081
878.951	21717
879.079	22721
879.206	23939
879.333	25107
879.461	25925
879.588	26743
879.715	26648
879.842	26237
879.97	25042
880.097	23680
880.224	22672
880.351	22116
880.478	21591
880.605	21104
880.732	21116
880.859	21123
880.986	20975
881.112	20735
881.239	20598
881.366	20495
881.493	20400
881.619	20271
881.746	20408
881.872	20362
881.999	20434
882.125	20400
882.252	20552
882.378	20450
882.505	20549
882.631	20431
882.757	20385
882.883	20476
883.01	20259
883.136	20271
883.262	20214
883.388	20122
883.514	20161
883.64	20286
883.766	20168
883.892	20084
884.018	20008
884.143	20278
884.269	20343
884.395	19978
884.52	19917
884.646	20050
884.772	19898
884.897	19921
885.023	20065
885.148	19970
885.274	20115
885.399	19917
885.524	19818
885.65	19818
885.775	19689
885.9	19658
886.025	19529
886.15	19518
886.275	19293
886.4	19148
886.525	19190
886.65	19038
886.775	19046
886.9	19072
887.025	19228
887.149	18977
887.274	18738
887.399	18684
887.523	18551
887.648	18410
887.773	18342
887.897	18589
888.021	18426
888.146	18357
888.27	18528
888.395	18559
888.519	18285
888.643	18201
888.767	18327
888.891	18148
889.015	18091
889.139	18019
889.263	18003
889.387	18167
889.511	18235
889.635	17984
889.759	17939
889.883	17939
890.006	17958
890.13	17958
890.254	17805
890.377	17783
890.501	17680
890.624	17509
890.748	17726
890.871	17512
890.995	17315
891.118	17410
891.241	17349
891.364	17322
891.488	17455
891.611	17261
891.734	17315
891.857	17452
891.98	17341
892.103	17318
892.226	17159
892.349	17159
892.471	16965
892.594	17170
892.717	17117
892.839	17033
892.962	17200
893.085	17185
893.207	17041
893.33	16961
893.452	16850
893.575	17174
893.697	16984
893.819	17102
893.941	17143
894.064	17143
894.186	16946
894.308	16866
894.43	17045
894.552	17166
894.674	17117
894.796	16904
894.918	16908
895.04	16949
895.161	17018
895.283	16968
895.405	16881
895.526	16946
895.648	16889
895.769	16965
895.891	16927
896.012	16949
896.134	17018
896.255	16934
896.376	16930
896.498	16980
896.619	16877
896.74	16946
896.861	17037
896.982	17246
897.103	17345
897.224	17227
897.345	17098
897.466	17143
897.587	17075
897.708	17330
897.828	17250
897.949	17052
898.07	16934
898.19	17060
898.311	17200
898.431	17151
898.552	17185
898.672	17334
898.792	17261
898.913	17235
899.033	16999
899.153	17006
899.273	16942
899.393	16984
899.513	17048
899.633	16927
899.753	16995
899.873	16965
899.993	16889
900.113	16972
900.232	17136
900.352	16862
900.472	16892
900.591	16694
900.711	16900
900.83	16847
900.95	16953
901.069	16900
901.189	16763
901.308	16550
901.427	16409
901.546	16470
901.665	16512
901.784	16291
901.904	16337
902.023	16147
902.141	16112
902.26	15945
902.379	16055
902.498	15888
902.617	15876
902.735	15934
902.854	15930
902.973	15774
903.091	15675
903.21	15652
903.328	15507
903.446	15538
903.565	15355
903.683	15458
903.801	15260
903.919	15367
904.038	15291
904.156	15252
904.274	15249
904.392	15138
904.51	15009
904.627	15157
904.745	15169
904.863	15104
904.981	14956
905.098	14792
905.216	14811
905.334	14861
905.451	14815
905.569	14659
905.686	14838
905.803	14800
905.921	14602
906.038	14731
906.155	14678
906.272	14465
906.389	14533
906.506	14278
906.623	14400
906.74	14320
906.857	14199
906.974	14263
907.091	14339
907.208	14476
907.324	14336
907.441	14263
907.557	14126
907.674	14077
907.79	14016
907.907	13947
908.023	14081
908.139	13963
908.256	14046
908.372	13982
908.488	13928
908.604	13795
908.72	13719
908.836	13750
908.952	13742
909.068	13765
909.184	13814
909.3	13780
909.415	13833
909.531	13784
909.647	13457
909.762	13445
909.878	13514
909.993	13548
910.108	13556
910.224	13518
910.339	13483
910.454	13400
910.57	13350
910.685	13343
910.8	13556
910.915	13495
911.03	13373
911.145	13103
911.259	13179
911.374	13133
911.489	13091
911.604	13027
911.718	12806
911.833	12981
911.947	12833
912.062	12798
912.176	12901
912.291	12878
912.405	12894
912.519	13076
912.633	13118
912.748	12966
912.862	12894
912.976	12795
913.09	12589
913.204	12772
913.318	12787
913.431	12791
913.545	12833
913.659	12817
913.772	12795
913.886	12563
914	12559
914.113	12764
914.226	12707
914.34	12616
914.453	12513
914.566	12646
914.68	12445
914.793	12521
914.906	12304
915.019	12235
915.132	12186
915.245	12262
915.358	12315
915.47	12426
915.583	12327
915.696	12361
915.809	12380
915.921	12460
916.034	12235
916.146	12220
916.259	12194
916.371	12270
916.483	12266
916.595	12133
916.708	12277
916.82	12239
916.932	12171
917.044	12243
917.156	12175
917.268	12068
917.38	12102
917.491	12095
917.603	12095
917.715	12175
917.826	12178
917.938	12102
918.049	11908
918.161	12057
918.272	12247
918.384	12102
918.495	12003
918.606	11954
918.717	11897
918.828	11870
918.939	11847
919.05	11821
919.161	11893
919.272	11737
919.383	11741
919.494	11916
919.604	12148
919.715	11904
919.826	11805
919.936	11821
920.047	11939
920.157	11908
920.267	12087
920.378	11935
920.488	11828
920.598	12060
920.708	12251
920.818	11984
920.928	12030
921.038	12178
921.148	12171
921.258	11897
921.368	11695
921.477	11646
921.587	11596
921.697	11444
921.806	11646
921.916	11455
922.025	11356
922.134	11330
922.244	11303
922.353	11383
922.462	11235
922.571	11227
922.68	11018
922.789	10991
922.898	10957
923.007	10919
923.116	11018
923.224	10976
923.333	11029
923.442	10877
923.55	10812
923.659	10854
923.767	10900
923.876	10869
923.984	10968
924.092	10706
924.201	10748
924.309	10809
924.417	10812
924.525	10679
924.633	10828
924.741	11699
924.849	10573
924.956	10710
925.064	10580
925.172	10440
925.279	10538
925.387	10603
925.494	10660
925.602	10653
925.709	10603
925.816	10451
925.924	10565
926.031	10637
926.138	10508
926.245	10599
926.352	10432
926.459	10603
926.566	10569
926.673	10459
926.779	10360
926.886	10348
926.993	10223
927.099	10185
927.206	10154
927.312	10181
927.419	10230
927.525	10272
927.631	10299
927.737	10116
927.843	10154
927.95	9975
928.056	10124
928.162	10124
928.267	10196
928.373	10706
928.479	10150
928.585	9968
928.69	10090
928.796	10105
928.901	10021
929.007	9861
929.112	9892
929.218	10032
929.323	9945
929.428	9880
929.533	10002
929.638	9827
929.743	9880
929.848	9812
929.953	9835
930.058	9766
930.163	9584
930.267	9622
930.372	9759
930.477	9641
930.581	9766
930.685	9736
930.79	9534
930.894	9641
930.998	9553
931.103	9679
931.207	9291
931.311	9184
931.415	9195
931.519	9032
931.623	8960
