Data from test_V78500241_2614.txt Node
Date: Fri Mar 25 14:51:54 CST 2022
User: usil
Spectrometer: V785-0024
Trigger mode: 0
Integration Time (sec): 4.000000E-1
Scans to average: 1
Nonlinearity correction enabled: false
Boxcar width: 0
Storing dark spectrum: false
XAxis mode: Wavelengths
Number of Pixels in Spectrum: 1024
>>>>>Begin Spectral Data<<<<<
801.071	22025
801.214	21911
801.356	21603
801.499	21488
801.641	21431
801.783	21523
801.926	21370
802.068	21393
802.211	21233
802.353	21241
802.496	20979
802.638	20887
802.78	20758
802.923	20765
803.065	20739
803.208	20651
803.35	20697
803.492	20815
803.635	20811
803.777	20568
803.919	20701
804.061	20941
804.204	20697
804.346	20644
804.488	20648
804.63	20762
804.773	20533
804.915	20621
805.057	20674
805.199	20598
805.341	20552
805.483	20705
805.626	20640
805.768	20552
805.91	20655
806.052	20560
806.194	20457
806.336	20686
806.478	20568
806.62	20423
806.762	20720
806.904	20758
807.046	20933
807.188	20914
807.33	20952
807.472	21005
807.614	20792
807.756	20758
807.898	20598
808.04	20552
808.182	20609
808.324	20708
808.465	20735
808.607	20800
808.749	20853
808.891	21051
809.033	21116
809.174	21096
809.316	20864
809.458	20937
809.6	20921
809.741	20956
809.883	21017
810.025	21131
810.166	21127
810.308	21184
810.45	21043
810.591	20967
810.733	20921
810.875	20670
811.016	20621
811.158	20507
811.299	20834
811.441	20735
811.582	20785
811.724	20663
811.865	20705
812.007	20731
812.148	20678
812.29	20693
812.431	20872
812.573	21085
812.714	21214
812.855	21230
812.997	21310
813.138	21336
813.279	21332
813.421	21252
813.562	21150
813.703	21028
813.845	20891
813.986	20575
814.127	20438
814.268	20385
814.41	20286
814.551	20176
814.692	20111
814.833	20244
814.974	20275
815.115	20218
815.256	20138
815.397	20187
815.539	20001
815.68	20103
815.821	19921
815.962	20069
816.103	20046
816.244	19807
816.385	19769
816.526	19788
816.666	19491
816.807	19403
816.948	19483
817.089	19468
817.23	19506
817.371	19453
817.512	19453
817.653	19369
817.793	19362
817.934	19350
818.075	19548
818.216	19282
818.356	19308
818.497	19217
818.638	19095
818.778	19145
818.919	19148
819.06	19202
819.2	19247
819.341	19293
819.481	19369
819.622	19506
819.762	19605
819.903	19514
820.043	19544
820.184	19400
820.324	19388
820.465	19422
820.605	19331
820.746	19327
820.886	19198
821.026	19354
821.167	19388
821.307	19362
821.447	19327
821.588	19099
821.728	19050
821.868	18916
822.008	18863
822.149	18867
822.289	18787
822.429	18612
822.569	18407
822.709	18426
822.849	18285
822.99	18258
823.13	18273
823.27	18270
823.41	18197
823.55	18022
823.69	18129
823.83	18083
823.97	18022
824.11	17893
824.25	17901
824.389	17836
824.529	17942
824.669	17897
824.809	17866
824.949	17916
825.089	18007
825.228	17984
825.368	17657
825.508	17699
825.648	17752
825.787	17649
825.927	17760
826.067	17539
826.206	17695
826.346	17737
826.485	17596
826.625	17600
826.765	17817
826.904	17722
827.044	17478
827.183	17337
827.323	17246
827.462	17383
827.601	17330
827.741	17246
827.88	17379
828.02	17334
828.159	17269
828.298	17398
828.437	17360
828.577	17330
828.716	17444
828.855	17200
828.994	17102
829.134	17079
829.273	17185
829.412	17090
829.551	16965
829.69	17060
829.829	17124
829.968	17315
830.107	17189
830.246	17178
830.385	17025
830.524	16980
830.663	16995
830.802	16839
830.941	16744
831.08	16687
831.219	16938
831.357	16771
831.496	16911
831.635	16675
831.774	16599
831.913	16668
832.051	16558
832.19	16603
832.329	16481
832.467	16405
832.606	16398
832.744	16371
832.883	16409
833.022	16413
833.16	16413
833.299	16535
833.437	16371
833.576	16459
833.714	16493
833.852	16424
833.991	16580
834.129	16561
834.267	16546
834.406	16527
834.544	16462
834.682	16474
834.821	16478
834.959	16721
835.097	16516
835.235	16626
835.373	16497
835.511	16447
835.65	16333
835.788	16493
835.926	16268
836.064	16276
836.202	16257
836.34	16333
836.478	16348
836.615	16318
836.753	16375
836.891	16489
837.029	16318
837.167	16394
837.305	16379
837.443	16257
837.58	16242
837.718	16413
837.856	16306
837.993	16207
838.131	16276
838.269	16188
838.406	16230
838.544	16223
838.681	15949
838.819	15953
838.956	15755
839.094	15774
839.231	15873
839.369	16025
839.506	16211
839.643	16093
839.781	15861
839.918	15930
840.055	15857
840.193	15842
840.33	15854
840.467	15903
840.604	15838
840.742	16055
840.879	15698
841.016	15720
841.153	15644
841.29	15953
841.427	15816
841.564	15770
841.701	15789
841.838	15789
841.975	15736
842.112	15724
842.249	15633
842.385	15641
842.522	15751
842.659	15648
842.796	15530
842.933	15625
843.069	15618
843.206	15507
843.343	15637
843.479	15610
843.616	15705
843.752	15458
843.889	15393
844.025	15549
844.162	15439
844.298	15507
844.435	15370
844.571	15355
844.708	15580
844.844	15610
844.98	15507
845.117	15545
845.253	15306
845.389	15283
845.525	15329
845.661	15252
845.798	15222
845.934	15176
846.07	15157
846.206	15298
846.342	15317
846.478	15085
846.614	14971
846.75	14925
846.886	14941
847.022	15142
847.158	14994
847.294	14994
847.429	15055
847.565	15013
847.701	15211
847.837	14750
847.972	14651
848.108	14758
848.244	14853
848.379	14663
848.515	14602
848.65	14644
848.786	14568
848.921	14552
849.057	14606
849.192	14590
849.328	14552
849.463	14606
849.598	14499
849.734	14507
849.869	14385
850.004	14294
850.14	14415
850.275	14355
850.41	14259
850.545	14294
850.68	14301
850.815	14351
850.95	14218
851.085	14507
851.22	14434
851.355	14317
851.49	14301
851.625	14191
851.76	14309
851.895	14271
852.03	14290
852.165	14358
852.299	14446
852.434	14404
852.569	14374
852.703	14358
852.838	14396
852.973	14530
853.107	14431
853.242	14317
853.376	14206
853.511	14077
853.645	14161
853.78	14343
853.914	14206
854.048	14202
854.183	14210
854.317	14202
854.451	14400
854.585	14103
854.72	14126
854.854	14229
854.988	14145
855.122	14214
855.256	14081
855.39	14275
855.524	14271
855.658	14256
855.792	14282
855.926	14252
856.06	14343
856.194	14305
856.327	14195
856.461	14138
856.595	14248
856.729	14218
856.862	14275
856.996	14210
857.13	14199
857.263	14366
857.397	14237
857.53	14339
857.664	14199
857.797	14267
857.931	14332
858.064	14389
858.197	14324
858.331	14214
858.464	14180
858.597	14138
858.731	14202
858.864	14164
858.997	14214
859.13	14130
859.263	14282
859.396	14313
859.529	14130
859.662	14103
859.795	14126
859.928	14301
860.061	14377
860.194	14355
860.327	14305
860.46	14286
860.592	14248
860.725	14412
860.858	14317
860.99	14282
861.123	14180
861.256	14096
861.388	14252
861.521	14876
861.653	14065
861.786	14065
861.918	14138
862.05	14172
862.183	14145
862.315	14145
862.447	14256
862.58	14088
862.712	13993
862.844	13932
862.976	14008
863.108	14062
863.24	14446
863.372	13982
863.504	13921
863.636	14035
863.768	14035
863.9	13993
864.032	13913
864.164	13978
864.296	14039
864.428	14157
864.559	14035
864.691	14054
864.823	14092
864.954	13986
865.086	14111
865.217	14027
865.349	13890
865.48	13921
865.612	13940
865.743	14096
865.875	13906
866.006	13837
866.137	13974
866.269	14081
866.4	13982
866.531	13928
866.662	13913
866.793	13940
866.924	14046
867.055	14039
867.186	13936
867.317	13902
867.448	13845
867.579	13883
867.71	13917
867.841	13921
867.972	13986
868.103	14005
868.233	14054
868.364	13944
868.495	14103
868.625	14244
868.756	14278
868.886	14134
869.017	14187
869.147	14317
869.278	14309
869.408	14218
869.539	14237
869.669	14355
869.799	14206
869.929	14317
870.06	14339
870.19	14552
870.32	14434
870.45	14587
870.58	14560
870.71	14701
870.84	14807
870.97	14640
871.1	14556
871.23	14792
871.36	14804
871.489	14758
871.619	14716
871.749	14792
871.879	14853
872.008	14868
872.138	14834
872.267	14777
872.397	14636
872.526	14682
872.656	14686
872.785	14697
872.915	14845
873.044	14956
873.173	14864
873.303	14887
873.432	14914
873.561	14979
873.69	14933
873.819	14872
873.948	15070
874.077	15001
874.206	14815
874.335	14902
874.464	14960
874.593	15131
874.722	15173
874.851	15272
874.979	15294
875.108	15306
875.237	15252
875.365	15104
875.494	15180
875.623	15279
875.751	15192
875.88	15351
876.008	15344
876.136	15374
876.265	15622
876.393	15778
876.521	15739
876.65	15690
876.778	15656
876.906	15545
877.034	15625
877.162	15682
877.29	15568
877.418	15606
877.546	15713
877.674	15675
877.802	15694
877.93	15705
878.058	15523
878.185	15447
878.313	15564
878.441	15652
878.568	15454
878.696	15545
878.824	15732
878.951	15682
879.079	15717
879.206	15975
879.333	15774
879.461	15747
879.588	15804
879.715	15701
879.842	15926
879.97	15637
880.097	15500
880.224	15614
880.351	15564
880.478	15496
880.605	15473
880.732	15458
880.859	15743
880.986	15523
881.112	15523
881.239	15310
881.366	15252
881.493	15272
881.619	15081
881.746	15222
881.872	15157
881.999	15249
882.125	15047
882.252	15184
882.378	15214
882.505	15275
882.631	15112
882.757	14979
882.883	14990
883.01	14967
883.136	14937
883.262	14830
883.388	14933
883.514	14929
883.64	15039
883.766	14910
883.892	14773
884.018	14826
884.143	14891
884.269	15047
884.395	14788
884.52	14762
884.646	14667
884.772	14568
884.897	14659
885.023	14644
885.148	14743
885.274	14918
885.399	14811
885.524	14613
885.65	14678
885.775	14697
885.9	14636
886.025	14834
886.15	14735
886.275	14530
886.4	14640
886.525	14773
886.65	14579
886.775	14549
886.9	14716
887.025	14998
887.149	14705
887.274	14514
887.399	14473
887.523	14537
887.648	14476
887.773	14461
887.897	14602
888.021	14568
888.146	14446
888.27	14640
888.395	14640
888.519	14587
888.643	14564
888.767	14568
888.891	14419
889.015	14259
889.139	14408
889.263	14454
889.387	14530
889.511	14587
889.635	14522
889.759	14370
889.883	14465
890.006	14530
890.13	14495
890.254	14286
890.377	14225
890.501	14149
890.624	14084
890.748	14221
890.871	14164
890.995	13967
891.118	14084
891.241	13967
891.364	14016
891.488	14183
891.611	14084
891.734	14100
891.857	14256
891.98	14039
892.103	14202
892.226	14012
892.349	14088
892.471	13989
892.594	14008
892.717	14024
892.839	14081
892.962	14134
893.085	14210
893.207	14134
893.33	13921
893.452	13986
893.575	14081
893.697	14119
893.819	14286
893.941	14259
894.064	14218
894.186	13944
894.308	14054
894.43	14176
894.552	14199
894.674	14244
894.796	14100
894.918	14199
895.04	14069
895.161	14206
895.283	14149
895.405	14027
895.526	14157
895.648	14202
895.769	14256
895.891	14259
896.012	14233
896.134	14233
896.255	14271
896.376	14263
896.498	14256
896.619	14256
896.74	14240
896.861	14298
896.982	14594
897.103	14689
897.224	14530
897.345	14476
897.466	14400
897.587	14541
897.708	14606
897.828	14598
897.949	14533
898.07	14438
898.19	14495
898.311	14590
898.431	14541
898.552	14526
898.672	14621
898.792	14617
898.913	14727
899.033	14526
899.153	14423
899.273	14324
899.393	14404
899.513	14374
899.633	14454
899.753	14465
899.873	14415
899.993	14571
900.113	14415
900.232	14400
900.352	14404
900.472	14324
900.591	14259
900.711	14332
900.83	14320
900.95	14446
901.069	14351
901.189	14282
901.308	13967
901.427	13871
901.546	14035
901.665	14069
901.784	13974
901.904	13780
902.023	13765
902.141	13620
902.26	13594
902.379	13609
902.498	13594
902.617	13445
902.735	13647
902.854	13556
902.973	13506
903.091	13251
903.21	13266
903.328	13308
903.446	13221
903.565	13099
903.683	13179
903.801	12970
903.919	13076
904.038	13084
904.156	13034
904.274	13019
904.392	12939
904.51	12932
904.627	12882
904.745	13027
904.863	12958
904.981	12840
905.098	12593
905.216	12604
905.334	12654
905.451	12623
905.569	12509
905.686	12681
905.803	12620
905.921	12456
906.038	12528
906.155	12467
906.272	12346
906.389	12369
906.506	12285
906.623	12247
906.74	12159
906.857	11999
906.974	12049
907.091	12285
907.208	12327
907.324	12292
907.441	12133
907.557	12026
907.674	11996
907.79	11969
907.907	11973
908.023	12068
908.139	11969
908.256	11912
908.372	11863
908.488	11908
908.604	11748
908.72	11672
908.836	11802
908.952	11684
909.068	11710
909.184	11939
909.3	11767
909.415	11817
909.531	11710
909.647	11493
909.762	11528
909.878	11463
909.993	11512
910.108	11509
910.224	11410
910.339	11532
910.454	11463
910.57	11345
910.685	11337
910.8	11611
910.915	11528
911.03	11391
911.145	11204
911.259	11296
911.374	11231
911.489	11147
911.604	11121
911.718	10927
911.833	11025
911.947	10854
912.062	10835
912.176	10942
912.291	10896
912.405	11014
912.519	11212
912.633	11178
912.748	11052
912.862	10949
912.976	10869
913.09	10778
913.204	10816
913.318	10881
913.431	10930
913.545	10938
913.659	10953
913.772	10866
913.886	10717
914	10717
914.113	10858
914.226	10793
914.34	10831
914.453	10618
914.566	10771
914.68	10641
914.793	10714
914.906	10436
915.019	10382
915.132	10417
915.245	10402
915.358	10451
915.47	10592
915.583	10481
915.696	10569
915.809	10611
915.921	10683
916.034	10432
916.146	10428
916.259	10322
916.371	10531
916.483	10489
916.595	10466
916.708	10360
916.82	10447
916.932	10371
917.044	10436
917.156	10394
917.268	10299
917.38	10268
917.491	10280
917.603	10303
917.715	10394
917.826	10390
917.938	10227
918.049	10192
918.161	10409
918.272	10398
918.384	10451
918.495	10280
918.606	10204
918.717	10154
918.828	10223
918.939	10196
919.05	10109
919.161	10207
919.272	9964
919.383	10078
919.494	10257
919.604	10348
919.715	10249
919.826	10082
919.936	10139
920.047	10227
920.157	10242
920.267	10466
920.378	10192
920.488	10200
920.598	10405
920.708	10455
920.818	10402
920.928	10451
921.038	10527
921.148	10546
921.258	10246
921.368	10128
921.477	10109
921.587	10051
921.697	9964
921.806	10086
921.916	9960
922.025	9778
922.134	9835
922.244	9667
922.353	9789
922.462	9705
922.571	9564
922.68	9507
922.789	9511
922.898	9488
923.007	9401
923.116	9519
923.224	9504
923.333	9370
923.442	9412
923.55	9294
923.659	9386
923.767	9412
923.876	9294
923.984	9344
924.092	9222
924.201	9355
924.309	9348
924.417	9359
924.525	9241
924.633	9306
924.741	10002
924.849	9119
924.956	9230
925.064	9058
925.172	9043
925.279	9070
925.387	9093
925.494	9112
925.602	9291
925.709	9245
925.816	9055
925.924	9089
926.031	9119
926.138	9081
926.245	9108
926.352	9081
926.459	9176
926.566	9154
926.673	9055
926.779	9032
926.886	8948
926.993	8861
927.099	8891
927.206	8864
927.312	8796
927.419	8872
927.525	8819
927.631	8899
927.737	8754
927.843	8724
927.95	8625
928.056	8712
928.162	8712
928.267	8758
928.373	9359
928.479	8845
928.585	8526
928.69	8682
928.796	8754
928.901	8689
929.007	8583
929.112	8697
929.218	8560
929.323	8590
929.428	8587
929.533	8682
929.638	8556
929.743	8457
929.848	8564
929.953	8522
930.058	8408
930.163	8282
930.267	8336
930.372	8457
930.477	8305
930.581	8552
930.685	8377
930.79	8271
930.894	8225
930.998	8267
931.103	8370
931.207	8020
931.311	8046
931.415	7963
931.519	7757
931.623	7746
