Data from test_V78500241_1138.txt Node
Date: Fri Mar 25 14:41:38 CST 2022
User: usil
Spectrometer: V785-0024
Trigger mode: 0
Integration Time (sec): 4.000000E-1
Scans to average: 1
Nonlinearity correction enabled: false
Boxcar width: 0
Storing dark spectrum: false
XAxis mode: Wavelengths
Number of Pixels in Spectrum: 1024
>>>>>Begin Spectral Data<<<<<
801.071	22527
801.214	22371
801.356	22234
801.499	22074
801.641	21975
801.783	21964
801.926	21941
802.068	21747
802.211	21774
802.353	21747
802.496	21435
802.638	21450
802.78	21374
802.923	21389
803.065	21268
803.208	21397
803.35	21336
803.492	21401
803.635	21401
803.777	21287
803.919	21363
804.061	21644
804.204	21416
804.346	21405
804.488	21207
804.63	21310
804.773	21127
804.915	21226
805.057	21344
805.199	21237
805.341	21279
805.483	21340
805.626	21306
805.768	21180
805.91	21321
806.052	21203
806.194	21135
806.336	21382
806.478	21199
806.62	21252
806.762	21291
806.904	21382
807.046	21599
807.188	21519
807.33	21637
807.472	21667
807.614	21675
807.756	21614
807.898	21469
808.04	21450
808.182	21462
808.324	21469
808.465	21553
808.607	21713
808.749	21987
808.891	22029
809.033	22036
809.174	21869
809.316	21892
809.458	21880
809.6	21652
809.741	21713
809.883	21751
810.025	21861
810.166	21812
810.308	21800
810.45	21953
810.591	21667
810.733	21610
810.875	21507
811.016	21329
811.158	21408
811.299	21462
811.441	21545
811.582	21606
811.724	21393
811.865	21374
812.007	21397
812.148	21256
812.29	21435
812.431	21625
812.573	21819
812.714	21850
812.855	21979
812.997	22002
813.138	22105
813.279	21930
813.421	21854
813.562	21827
813.703	21705
813.845	21629
813.986	21382
814.127	21058
814.268	21036
814.41	21009
814.551	21058
814.692	20990
814.833	20891
814.974	20918
815.115	20914
815.256	20895
815.397	20887
815.539	20826
815.68	20606
815.821	20590
815.962	20609
816.103	20636
816.244	20507
816.385	20495
816.526	20309
816.666	20298
816.807	20005
816.948	20271
817.089	20183
817.23	20237
817.371	20176
817.512	20119
817.653	20157
817.793	20020
817.934	20115
818.075	20290
818.216	20058
818.356	20050
818.497	19890
818.638	19807
818.778	19738
818.919	19826
819.06	19811
819.2	19868
819.341	20035
819.481	20005
819.622	20065
819.762	20267
819.903	20126
820.043	20172
820.184	20130
820.324	20130
820.465	20130
820.605	20016
820.746	20065
820.886	19925
821.026	20062
821.167	20039
821.307	20126
821.447	20043
821.588	19818
821.728	19818
821.868	19594
822.008	19514
822.149	19426
822.289	19518
822.429	19327
822.569	19266
822.709	19168
822.849	19088
822.99	18943
823.13	19000
823.27	19004
823.41	18779
823.55	18707
823.69	18810
823.83	18821
823.97	18616
824.11	18730
824.25	18559
824.389	18654
824.529	18639
824.669	18551
824.809	18703
824.949	18665
825.089	18555
825.228	18589
825.368	18403
825.508	18372
825.648	18330
825.787	18350
825.927	18403
826.067	18342
826.206	18292
826.346	18323
826.485	18376
826.625	18289
826.765	18460
826.904	18388
827.044	18171
827.183	18102
827.323	18003
827.462	18087
827.601	17950
827.741	18060
827.88	17969
828.02	17984
828.159	18117
828.298	18003
828.437	18045
828.577	18019
828.716	18232
828.855	17969
828.994	17847
829.134	17764
829.273	17779
829.412	17760
829.551	17687
829.69	17889
829.829	17775
829.968	17859
830.107	17901
830.246	17889
830.385	17714
830.524	17729
830.663	17589
830.802	17455
830.941	17455
831.08	17341
831.219	17433
831.357	17562
831.496	17646
831.635	17459
831.774	17337
831.913	17330
832.051	17216
832.19	17151
832.329	17239
832.467	17185
832.606	17056
832.744	17132
832.883	17159
833.022	17113
833.16	17109
833.299	17273
833.437	17155
833.576	17242
833.714	17132
833.852	17322
833.991	17235
834.129	17280
834.267	17261
834.406	17140
834.544	17174
834.682	17239
834.821	17064
834.959	17360
835.097	17140
835.235	17258
835.373	17250
835.511	17147
835.65	17098
835.788	16968
835.926	16869
836.064	16915
836.202	16911
836.34	17018
836.478	17098
836.615	17105
836.753	17193
836.891	17212
837.029	17223
837.167	17143
837.305	17033
837.443	16976
837.58	16976
837.718	17056
837.856	16984
837.993	16774
838.131	16885
838.269	16934
838.406	16828
838.544	16862
838.681	16702
838.819	16634
838.956	16417
839.094	16474
839.231	16474
839.369	16637
839.506	16831
839.643	16755
839.781	16565
839.918	16398
840.055	16459
840.193	16451
840.33	16398
840.467	16462
840.604	16538
840.742	16656
840.879	16257
841.016	16344
841.153	16371
841.29	16508
841.427	16554
841.564	16497
841.701	16508
841.838	16405
841.975	16421
842.112	16318
842.249	16196
842.385	16261
842.522	16348
842.659	16341
842.796	16265
842.933	16318
843.069	16204
843.206	16234
843.343	16295
843.479	16287
843.616	16272
843.752	16105
843.889	16074
844.025	16253
844.162	15934
844.298	16253
844.435	16090
844.571	16013
844.708	16101
844.844	16200
844.98	16219
845.117	16226
845.253	16040
845.389	15994
845.525	15964
845.661	16124
845.798	15991
845.934	16185
846.07	16032
846.206	16204
846.342	16215
846.478	15960
846.614	15804
846.75	15618
846.886	15641
847.022	15606
847.158	15644
847.294	15656
847.429	15629
847.565	15652
847.701	15827
847.837	15359
847.972	15325
848.108	15420
848.244	15291
848.379	15199
848.515	15230
848.65	15211
848.786	15123
848.921	15165
849.057	15287
849.192	15302
849.328	15268
849.463	15268
849.598	15123
849.734	15188
849.869	15184
850.004	15058
850.14	15013
850.275	15001
850.41	14925
850.545	14956
850.68	14971
850.815	15074
850.95	14944
851.085	15100
851.22	15077
851.355	15009
851.49	14895
851.625	14963
851.76	14918
851.895	14807
852.03	14895
852.165	14853
852.299	14986
852.434	15051
852.569	14982
852.703	14944
852.838	14975
852.973	15142
853.107	15093
853.242	14994
853.376	14830
853.511	14667
853.645	14857
853.78	14918
853.914	14781
854.048	14800
854.183	14883
854.317	14887
854.451	14971
854.585	14857
854.72	14769
854.854	14834
854.988	14655
855.122	14796
855.256	14708
855.39	14785
855.524	14807
855.658	14880
855.792	14880
855.926	14899
856.06	14982
856.194	14921
856.327	14819
856.461	14792
856.595	14788
856.729	14754
856.862	14956
856.996	14948
857.13	14918
857.263	14982
857.397	14956
857.53	14815
857.664	14902
857.797	14861
857.931	14982
858.064	14910
858.197	14971
858.331	14823
858.464	14750
858.597	14651
858.731	14823
858.864	14861
858.997	14845
859.13	14902
859.263	14845
859.396	14910
859.529	14686
859.662	14781
859.795	14762
859.928	14853
860.061	14967
860.194	14979
860.327	14853
860.46	14750
860.592	15058
860.725	14921
860.858	15032
860.99	14773
861.123	14762
861.256	14686
861.388	14902
861.521	15595
861.653	14655
861.786	14807
861.918	14621
862.05	14739
862.183	14887
862.315	14785
862.447	14872
862.58	14811
862.712	14655
862.844	14655
862.976	14648
863.108	14701
863.24	15047
863.372	14522
863.504	14613
863.636	14537
863.768	14655
863.9	14587
864.032	14560
864.164	14579
864.296	14655
864.428	14636
864.559	14697
864.691	14579
864.823	14659
864.954	14682
865.086	14697
865.217	14526
865.349	14610
865.48	14511
865.612	14549
865.743	14781
865.875	14590
866.006	14530
866.137	14549
866.269	14556
866.4	14556
866.531	14518
866.662	14457
866.793	14545
866.924	14575
867.055	14606
867.186	14484
867.317	14541
867.448	14522
867.579	14556
867.71	14461
867.841	14518
867.972	14499
868.103	14571
868.233	14556
868.364	14625
868.495	14602
868.625	14769
868.756	14906
868.886	14693
869.017	14807
869.147	14937
869.278	14971
869.408	14765
869.539	14823
869.669	14857
869.799	14895
869.929	15017
870.06	14845
870.19	15146
870.32	15051
870.45	15093
870.58	15146
870.71	15329
870.84	15291
870.97	15348
871.1	15188
871.23	15386
871.36	15466
871.489	15336
871.619	15340
871.749	15355
871.879	15439
872.008	15534
872.138	15424
872.267	15298
872.397	15249
872.526	15298
872.656	15176
872.785	15260
872.915	15447
873.044	15492
873.173	15450
873.303	15458
873.432	15538
873.561	15515
873.69	15564
873.819	15530
873.948	15526
874.077	15458
874.206	15359
874.335	15462
874.464	15561
874.593	15892
874.722	15774
874.851	15778
874.979	15656
875.108	15747
875.237	15804
875.365	15743
875.494	15679
875.623	15800
875.751	15728
875.88	15831
876.008	15937
876.136	15934
876.265	16097
876.393	16265
876.521	16242
876.65	16246
876.778	16230
876.906	16063
877.034	16059
877.162	16185
877.29	16067
877.418	16131
877.546	16188
877.674	16120
877.802	16150
877.93	16211
878.058	16177
878.185	16093
878.313	16158
878.441	16215
878.568	16032
878.696	16078
878.824	16265
878.951	16432
879.079	16405
879.206	16656
879.333	16390
879.461	16280
879.588	16428
879.715	16523
879.842	16687
879.97	16394
880.097	16116
880.224	16071
880.351	16143
880.478	16112
880.605	16059
880.732	16143
880.859	16390
880.986	16074
881.112	16158
881.239	15972
881.366	15762
881.493	15804
881.619	15736
881.746	15728
881.872	15774
881.999	15679
882.125	15622
882.252	15816
882.378	15770
882.505	15899
882.631	15656
882.757	15660
882.883	15587
883.01	15500
883.136	15557
883.262	15313
883.388	15370
883.514	15488
883.64	15523
883.766	15603
883.892	15420
884.018	15344
884.143	15424
884.269	15511
884.395	15367
884.52	15203
884.646	15233
884.772	15184
884.897	15138
885.023	15173
885.148	15325
885.274	15405
885.399	15374
885.524	15211
885.65	15222
885.775	15340
885.9	15237
886.025	15359
886.15	15256
886.275	15138
886.4	15127
886.525	15214
886.65	15093
886.775	15226
886.9	15382
887.025	15389
887.149	15176
887.274	15146
887.399	14956
887.523	15047
887.648	15055
887.773	15036
887.897	15077
888.021	15138
888.146	14925
888.27	15062
888.395	15142
888.519	15058
888.643	15051
888.767	15024
888.891	14990
889.015	14921
889.139	15055
889.263	14785
889.387	15024
889.511	15131
889.635	15024
889.759	14758
889.883	14830
890.006	14914
890.13	14975
890.254	14769
890.377	14872
890.501	14720
890.624	14617
890.748	14735
890.871	14610
890.995	14526
891.118	14461
891.241	14480
891.364	14556
891.488	14727
891.611	14564
891.734	14564
891.857	14644
891.98	14655
892.103	14689
892.226	14644
892.349	14522
892.471	14465
892.594	14503
892.717	14594
892.839	14541
892.962	14526
893.085	14610
893.207	14583
893.33	14514
893.452	14473
893.575	14648
893.697	14511
893.819	14724
893.941	14765
894.064	14773
894.186	14598
894.308	14541
894.43	14636
894.552	14758
894.674	14632
894.796	14522
894.918	14610
895.04	14575
895.161	14724
895.283	14670
895.405	14556
895.526	14648
895.648	14686
895.769	14765
895.891	14686
896.012	14804
896.134	14762
896.255	14781
896.376	14701
896.498	14689
896.619	14804
896.74	14811
896.861	14773
896.982	15001
897.103	15252
897.224	14975
897.345	14979
897.466	14967
897.587	14998
897.708	15138
897.828	15032
897.949	15013
898.07	14895
898.19	14967
898.311	15093
898.431	14967
898.552	15028
898.672	15070
898.792	15104
898.913	15024
899.033	14941
899.153	14849
899.273	14834
899.393	14838
899.513	14963
899.633	14849
899.753	15028
899.873	14883
899.993	14921
900.113	14880
900.232	14906
900.352	14838
900.472	14880
900.591	14781
900.711	14765
900.83	14716
900.95	14815
901.069	14937
901.189	14670
901.308	14446
901.427	14370
901.546	14454
901.665	14533
901.784	14461
901.904	14336
902.023	14278
902.141	13959
902.26	13974
902.379	14081
902.498	13986
902.617	14046
902.735	14058
902.854	13982
902.973	13974
903.091	13708
903.21	13742
903.328	13685
903.446	13552
903.565	13521
903.683	13540
903.801	13381
903.919	13521
904.038	13556
904.156	13324
904.274	13407
904.392	13354
904.51	13403
904.627	13339
904.745	13575
904.863	13392
904.981	13194
905.098	13050
905.216	12966
905.334	13042
905.451	13080
905.569	13000
905.686	13091
905.803	13103
905.921	12890
906.038	13034
906.155	12966
906.272	12726
906.389	12730
906.506	12597
906.623	12662
906.74	12616
906.857	12525
906.974	12547
907.091	12711
907.208	12791
907.324	12719
907.441	12483
907.557	12418
907.674	12357
907.79	12327
907.907	12384
908.023	12410
908.139	12441
908.256	12323
908.372	12330
908.488	12281
908.604	12106
908.72	12041
908.836	12182
908.952	12178
909.068	12091
909.184	12232
909.3	12072
909.415	12133
909.531	12239
909.647	11946
909.762	11885
909.878	11885
909.993	11950
910.108	11942
910.224	11802
910.339	11965
910.454	11760
910.57	11707
910.685	11695
910.8	11954
910.915	11897
911.03	11851
911.145	11638
911.259	11512
911.374	11562
911.489	11611
911.604	11474
911.718	11334
911.833	11379
911.947	11277
912.062	11090
912.176	11303
912.291	11326
912.405	11376
912.519	11516
912.633	11596
912.748	11429
912.862	11421
912.976	11178
913.09	11124
913.204	11201
913.318	11250
913.431	11250
913.545	11273
913.659	11353
913.772	11284
913.886	11086
914	11094
914.113	11147
914.226	11208
914.34	11189
914.453	10999
914.566	11189
914.68	11018
914.793	11006
914.906	10843
915.019	10812
915.132	10710
915.245	10854
915.358	10816
915.47	10797
915.583	10824
915.696	10763
915.809	10995
915.921	10965
916.034	10816
916.146	10774
916.259	10843
916.371	10786
916.483	10881
916.595	10672
916.708	10763
916.82	10752
916.932	10729
917.044	10767
917.156	10752
917.268	10645
917.38	10599
917.491	10668
917.603	10664
917.715	10683
917.826	10721
917.938	10569
918.049	10580
918.161	10672
918.272	10782
918.384	10763
918.495	10634
918.606	10531
918.717	10440
918.828	10523
918.939	10561
919.05	10394
919.161	10508
919.272	10287
919.383	10371
919.494	10588
919.604	10759
919.715	10531
919.826	10382
919.936	10466
920.047	10554
920.157	10558
920.267	10698
920.378	10607
920.488	10546
920.598	10710
920.708	10831
920.818	10698
920.928	10774
921.038	10839
921.148	10889
921.258	10580
921.368	10443
921.477	10485
921.587	10413
921.697	10265
921.806	10409
921.916	10291
922.025	10143
922.134	10143
922.244	10032
922.353	10150
922.462	9994
922.571	9861
922.68	9770
922.789	9770
922.898	9781
923.007	9759
923.116	9778
923.224	9816
923.333	9778
923.442	9633
923.55	9599
923.659	9637
923.767	9682
923.876	9599
923.984	9675
924.092	9534
924.201	9614
924.309	9633
924.417	9663
924.525	9606
924.633	9530
924.741	10322
924.849	9401
924.956	9511
925.064	9443
925.172	9321
925.279	9363
925.387	9382
925.494	9412
925.602	9538
925.709	9435
925.816	9332
925.924	9420
926.031	9466
926.138	9363
926.245	9469
926.352	9336
926.459	9458
926.566	9610
926.673	9317
926.779	9268
926.886	9287
926.993	9100
927.099	9055
927.206	9058
927.312	9055
927.419	9226
927.525	9108
927.631	9188
927.737	9055
927.843	9055
927.95	8864
928.056	9013
928.162	9043
928.267	9036
928.373	9682
928.479	9161
928.585	8941
928.69	8994
928.796	9112
928.901	8944
929.007	8739
929.112	8925
929.218	8948
929.323	8845
929.428	8864
929.533	8925
929.638	8697
929.743	8796
929.848	8929
929.953	8754
930.058	8674
930.163	8552
930.267	8556
930.372	8697
930.477	8579
930.581	8842
930.685	8632
930.79	8438
930.894	8549
930.998	8556
931.103	8682
931.207	8248
931.311	8221
931.415	8233
931.519	7947
931.623	8054
