Data from test_V78500241_3349.txt Node
Date: Fri Mar 25 14:57:02 CST 2022
User: usil
Spectrometer: V785-0024
Trigger mode: 0
Integration Time (sec): 4.000000E-1
Scans to average: 1
Nonlinearity correction enabled: false
Boxcar width: 0
Storing dark spectrum: false
XAxis mode: Wavelengths
Number of Pixels in Spectrum: 1024
>>>>>Begin Spectral Data<<<<<
801.071	21991
801.214	21785
801.356	21580
801.499	21485
801.641	21306
801.783	21207
801.926	21382
802.068	21310
802.211	21188
802.353	21119
802.496	20880
802.638	20735
802.78	20735
802.923	20594
803.065	20526
803.208	20693
803.35	20788
803.492	20785
803.635	20636
803.777	20613
803.919	20743
804.061	20849
804.204	20697
804.346	20613
804.488	20564
804.63	20556
804.773	20495
804.915	20609
805.057	20648
805.199	20549
805.341	20617
805.483	20606
805.626	20602
805.768	20514
805.91	20594
806.052	20568
806.194	20469
806.336	20663
806.478	20507
806.62	20454
806.762	20590
806.904	20682
807.046	20937
807.188	20971
807.33	20944
807.472	20929
807.614	20720
807.756	20758
807.898	20640
808.04	20499
808.182	20621
808.324	20632
808.465	20499
808.607	20868
808.749	20887
808.891	20971
809.033	20952
809.174	20910
809.316	20952
809.458	20880
809.6	20720
809.741	20868
809.883	20834
810.025	20986
810.166	21142
810.308	20971
810.45	21013
810.591	20929
810.733	20777
810.875	20590
811.016	20579
811.158	20556
811.299	20731
811.441	20785
811.582	20800
811.724	20693
811.865	20587
812.007	20625
812.148	20648
812.29	20708
812.431	20826
812.573	20895
812.714	21051
812.855	21188
812.997	21112
813.138	21329
813.279	21192
813.421	21100
813.562	21051
813.703	20933
813.845	20792
813.986	20495
814.127	20313
814.268	20248
814.41	20183
814.551	20202
814.692	20218
814.833	20122
814.974	20111
815.115	20195
815.256	20058
815.397	20069
815.539	20043
815.68	19883
815.821	19769
815.962	19989
816.103	19811
816.244	19799
816.385	19742
816.526	19620
816.666	19552
816.807	19270
816.948	19407
817.089	19320
817.23	19480
817.371	19369
817.512	19324
817.653	19232
817.793	19240
817.934	19426
818.075	19217
818.216	19206
818.356	19236
818.497	19129
818.638	18996
818.778	19061
818.919	19023
819.06	19027
819.2	19069
819.341	19160
819.481	19282
819.622	19403
819.762	19510
819.903	19506
820.043	19373
820.184	19278
820.324	19263
820.465	19476
820.605	19285
820.746	19335
820.886	19236
821.026	19301
821.167	19232
821.307	19228
821.447	19346
821.588	19187
821.728	19107
821.868	18897
822.008	18654
822.149	18837
822.289	18757
822.429	18338
822.569	18361
822.709	18418
822.849	18342
822.99	18155
823.13	18167
823.27	18155
823.41	18106
823.55	17996
823.69	17984
823.83	18110
823.97	17897
824.11	17794
824.25	17707
824.389	17805
824.529	17817
824.669	17775
824.809	17771
824.949	17878
825.089	17741
825.228	17874
825.368	17589
825.508	17611
825.648	17627
825.787	17585
825.927	17638
826.067	17547
826.206	17600
826.346	17452
826.485	17585
826.625	17585
826.765	17699
826.904	17611
827.044	17322
827.183	17379
827.323	17265
827.462	17277
827.601	17185
827.741	17280
827.88	17223
828.02	17174
828.159	17212
828.298	17284
828.437	17459
828.577	17345
828.716	17395
828.855	17220
828.994	17033
829.134	17083
829.273	17029
829.412	17033
829.551	16946
829.69	16930
829.829	17029
829.968	17136
830.107	17102
830.246	17045
830.385	16965
830.524	16900
830.663	16866
830.802	16816
830.941	16664
831.08	16694
831.219	16641
831.357	16713
831.496	16847
831.635	16634
831.774	16573
831.913	16569
832.051	16409
832.19	16398
832.329	16421
832.467	16322
832.606	16322
832.744	16215
832.883	16367
833.022	16306
833.16	16322
833.299	16360
833.437	16417
833.576	16440
833.714	16375
833.852	16386
833.991	16462
834.129	16455
834.267	16436
834.406	16367
834.544	16409
834.682	16455
834.821	16257
834.959	16630
835.097	16367
835.235	16573
835.373	16421
835.511	16363
835.65	16333
835.788	16306
835.926	16139
836.064	16082
836.202	16223
836.34	16291
836.478	16382
836.615	16310
836.753	16421
836.891	16360
837.029	16318
837.167	16360
837.305	16230
837.443	16299
837.58	16135
837.718	16287
837.856	16169
837.993	16006
838.131	16272
838.269	16196
838.406	16109
838.544	16071
838.681	15964
838.819	15865
838.956	15713
839.094	15724
839.231	15747
839.369	15861
839.506	16101
839.643	15956
839.781	15816
839.918	15762
840.055	15785
840.193	15663
840.33	15694
840.467	15766
840.604	15736
840.742	16017
840.879	15644
841.016	15675
841.153	15705
841.29	15873
841.427	15732
841.564	15770
841.701	15797
841.838	15663
841.975	15504
842.112	15694
842.249	15641
842.385	15553
842.522	15698
842.659	15584
842.796	15477
842.933	15519
843.069	15447
843.206	15587
843.343	15595
843.479	15542
843.616	15557
843.752	15344
843.889	15336
844.025	15447
844.162	15222
844.298	15466
844.435	15268
844.571	15363
844.708	15374
844.844	15386
844.98	15370
845.117	15458
845.253	15245
845.389	15222
845.525	15370
845.661	15249
845.798	15123
845.934	15142
846.07	15081
846.206	15184
846.342	15294
846.478	15131
846.614	14921
846.75	14872
846.886	14883
847.022	14963
847.158	14929
847.294	14925
847.429	14868
847.565	14849
847.701	15066
847.837	14670
847.972	14571
848.108	14686
848.244	14727
848.379	14545
848.515	14606
848.65	14484
848.786	14537
848.921	14514
849.057	14617
849.192	14514
849.328	14560
849.463	14499
849.598	14469
849.734	14427
849.869	14374
850.004	14267
850.14	14320
850.275	14278
850.41	14206
850.545	14313
850.68	14229
850.815	14233
850.95	14256
851.085	14476
851.22	14305
851.355	14168
851.49	14252
851.625	14252
851.76	14317
851.895	14187
852.03	14149
852.165	14256
852.299	14339
852.434	14317
852.569	14313
852.703	14259
852.838	14370
852.973	14396
853.107	14427
853.242	14256
853.376	14183
853.511	14001
853.645	14119
853.78	14221
853.914	14176
854.048	14145
854.183	14054
854.317	14199
854.451	14313
854.585	14145
854.72	14142
854.854	14161
854.988	14039
855.122	14123
855.256	13997
855.39	14058
855.524	14180
855.658	14195
855.792	14123
855.926	14191
856.06	14161
856.194	14183
856.327	14035
856.461	14077
856.595	14069
856.729	14107
856.862	14275
856.996	14252
857.13	14199
857.263	14301
857.397	14347
857.53	14214
857.664	14244
857.797	14199
857.931	14252
858.064	14202
858.197	14256
858.331	14233
858.464	14062
858.597	14024
858.731	14130
858.864	14100
858.997	14054
859.13	14180
859.263	14145
859.396	14252
859.529	14100
859.662	14202
859.795	14035
859.928	14259
860.061	14351
860.194	14313
860.327	14225
860.46	14077
860.592	14237
860.725	14267
860.858	14305
860.99	14134
861.123	14005
861.256	13967
861.388	14210
861.521	14944
861.653	14016
861.786	13993
861.918	13970
862.05	14142
862.183	14134
862.315	14073
862.447	14130
862.58	14100
862.712	13932
862.844	13856
862.976	13940
863.108	14001
863.24	14339
863.372	13780
863.504	13883
863.636	13917
863.768	14012
863.9	13909
864.032	13776
864.164	13860
864.296	14008
864.428	14062
864.559	14054
864.691	14054
864.823	14020
864.954	14005
865.086	14016
865.217	13890
865.349	13803
865.48	13925
865.612	13978
865.743	13982
865.875	13883
866.006	13898
866.137	13932
866.269	13849
866.4	13887
866.531	13909
866.662	13746
866.793	13890
866.924	13894
867.055	13898
867.186	13822
867.317	13898
867.448	13951
867.579	13807
867.71	13947
867.841	13883
867.972	13890
868.103	13890
868.233	13913
868.364	13955
868.495	13997
868.625	14111
868.756	14278
868.886	14153
869.017	14138
869.147	14259
869.278	14282
869.408	14214
869.539	14191
869.669	14206
869.799	14161
869.929	14328
870.06	14298
870.19	14507
870.32	14442
870.45	14473
870.58	14541
870.71	14682
870.84	14617
870.97	14427
871.1	14552
871.23	14788
871.36	14731
871.489	14651
871.619	14727
871.749	14735
871.879	14842
872.008	14941
872.138	14834
872.267	14701
872.397	14682
872.526	14552
872.656	14571
872.785	14674
872.915	14701
873.044	14880
873.173	14823
873.303	14944
873.432	14811
873.561	14982
873.69	14891
873.819	14853
873.948	14906
874.077	14864
874.206	14807
874.335	14838
874.464	15043
874.593	15188
874.722	14994
874.851	15062
874.979	15264
875.108	15085
875.237	15112
875.365	15070
875.494	15199
875.623	15291
875.751	15161
875.88	15188
876.008	15310
876.136	15226
876.265	15576
876.393	15675
876.521	15591
876.65	15686
876.778	15580
876.906	15500
877.034	15439
877.162	15549
877.29	15435
877.418	15526
877.546	15530
877.674	15572
877.802	15580
877.93	15507
878.058	15534
878.185	15386
878.313	15576
878.441	15515
878.568	15481
878.696	15447
878.824	15564
878.951	15629
879.079	15751
879.206	15785
879.333	15656
879.461	15591
879.588	15671
879.715	15724
879.842	15857
879.97	15675
880.097	15454
880.224	15317
880.351	15420
880.478	15447
880.605	15397
880.732	15340
880.859	15606
880.986	15447
881.112	15481
881.239	15283
881.366	15108
881.493	15062
881.619	15051
881.746	15104
881.872	15097
881.999	15070
882.125	15070
882.252	15074
882.378	15123
882.505	15222
882.631	14975
882.757	14914
882.883	15001
883.01	14906
883.136	14777
883.262	14773
883.388	14708
883.514	14895
883.64	14899
883.766	14845
883.892	14610
884.018	14746
884.143	14941
884.269	15001
884.395	14659
884.52	14541
884.646	14571
884.772	14461
884.897	14454
885.023	14663
885.148	14689
885.274	14716
885.399	14731
885.524	14518
885.65	14640
885.775	14602
885.9	14526
886.025	14682
886.15	14682
886.275	14476
886.4	14450
886.525	14522
886.65	14480
886.775	14579
886.9	14796
887.025	14765
887.149	14648
887.274	14351
887.399	14347
887.523	14381
887.648	14324
887.773	14233
887.897	14503
888.021	14495
888.146	14271
888.27	14545
888.395	14461
888.519	14503
888.643	14507
888.767	14480
888.891	14347
889.015	14259
889.139	14301
889.263	14183
889.387	14400
889.511	14495
889.635	14389
889.759	14221
889.883	14199
890.006	14339
890.13	14328
890.254	14199
890.377	14191
890.501	14103
890.624	14084
890.748	14134
890.871	14043
890.995	13974
891.118	13883
891.241	14043
891.364	13936
891.488	14088
891.611	13967
891.734	14001
891.857	14046
891.98	13997
892.103	14088
892.226	14024
892.349	13967
892.471	13742
892.594	13902
892.717	13982
892.839	13986
892.962	14062
893.085	14054
893.207	14043
893.33	13822
893.452	13921
893.575	14081
893.697	14054
893.819	14123
893.941	14199
894.064	14149
894.186	13967
894.308	13963
894.43	14069
894.552	14183
894.674	14062
894.796	13909
894.918	14062
895.04	14096
895.161	14088
895.283	14069
895.405	13986
895.526	14100
895.648	14119
895.769	14202
895.891	14191
896.012	14119
896.134	14221
896.255	14172
896.376	14172
896.498	14180
896.619	14164
896.74	14123
896.861	14233
896.982	14518
897.103	14625
897.224	14488
897.345	14370
897.466	14423
897.587	14370
897.708	14454
897.828	14442
897.949	14317
898.07	14278
898.19	14366
898.311	14636
898.431	14514
898.552	14461
898.672	14533
898.792	14602
898.913	14480
899.033	14419
899.153	14385
899.273	14317
899.393	14351
899.513	14461
899.633	14419
899.753	14370
899.873	14339
899.993	14488
900.113	14336
900.232	14427
900.352	14324
900.472	14305
900.591	14142
900.711	14229
900.83	14180
900.95	14244
901.069	14286
901.189	14069
901.308	13986
901.427	13830
901.546	13986
901.665	13936
901.784	13883
901.904	13879
902.023	13655
902.141	13468
902.26	13502
902.379	13590
902.498	13449
902.617	13384
902.735	13518
902.854	13480
902.973	13411
903.091	13255
903.21	13221
903.328	13225
903.446	13190
903.565	13076
903.683	13012
903.801	12886
903.919	13133
904.038	13072
904.156	12909
904.274	12954
904.392	12878
904.51	12760
904.627	12829
904.745	12901
904.863	13008
904.981	12585
905.098	12559
905.216	12684
905.334	12623
905.451	12532
905.569	12441
905.686	12597
905.803	12563
905.921	12350
906.038	12521
906.155	12441
906.272	12361
906.389	12296
906.506	12175
906.623	12163
906.74	12144
906.857	12053
906.974	12041
907.091	12262
907.208	12304
907.324	12220
907.441	12041
907.557	11897
907.674	11980
907.79	11821
907.907	11897
908.023	11950
908.139	11901
908.256	11859
908.372	11885
908.488	11901
908.604	11672
908.72	11642
908.836	11790
908.952	11577
909.068	11691
909.184	11756
909.3	11627
909.415	11733
909.531	11714
909.647	11486
909.762	11452
909.878	11433
909.993	11471
910.108	11356
910.224	11349
910.339	11463
910.454	11356
910.57	11212
910.685	11212
910.8	11532
910.915	11520
911.03	11353
911.145	11117
911.259	11075
911.374	11105
911.489	11037
911.604	10908
911.718	10961
911.833	10934
911.947	10797
912.062	10736
912.176	10949
912.291	10892
912.405	10915
912.519	11117
912.633	11155
912.748	11029
912.862	10873
912.976	10797
913.09	10759
913.204	10649
913.318	10771
913.431	10828
913.545	10862
913.659	10835
913.772	10774
913.886	10679
914	10622
914.113	10691
914.226	10683
914.34	10786
914.453	10535
914.566	10740
914.68	10637
914.793	10580
914.906	10436
915.019	10405
915.132	10276
915.245	10390
915.358	10333
915.47	10436
915.583	10398
915.696	10455
915.809	10516
915.921	10550
916.034	10508
916.146	10360
916.259	10272
916.371	10440
916.483	10432
916.595	10329
916.708	10272
916.82	10337
916.932	10295
917.044	10295
917.156	10318
917.268	10242
917.38	10287
917.491	10276
917.603	10253
917.715	10348
917.826	10402
917.938	10211
918.049	10166
918.161	10207
918.272	10352
918.384	10360
918.495	10284
918.606	10131
918.717	10048
918.828	10162
918.939	10173
919.05	10143
919.161	10078
919.272	9941
919.383	9953
919.494	10124
919.604	10314
919.715	10120
919.826	10063
919.936	10143
920.047	10188
920.157	10143
920.267	10386
920.378	10154
920.488	10154
920.598	10299
920.708	10440
920.818	10337
920.928	10257
921.038	10455
921.148	10538
921.258	10067
921.368	10112
921.477	10029
921.587	10029
921.697	9819
921.806	9998
921.916	9972
922.025	9641
922.134	9720
922.244	9599
922.353	9774
922.462	9641
922.571	9523
922.68	9405
922.789	9412
922.898	9389
923.007	9310
923.116	9412
923.224	9389
923.333	9412
923.442	9298
923.55	9283
923.659	9348
923.767	9348
923.876	9249
923.984	9389
924.092	9195
924.201	9283
924.309	9245
924.417	9218
924.525	9214
924.633	9180
924.741	10158
924.849	9028
924.956	9123
925.064	9032
925.172	8941
925.279	9001
925.387	9097
925.494	9089
925.602	9142
925.709	9097
925.816	9005
925.924	9119
926.031	9085
926.138	9074
926.245	9146
926.352	9001
926.459	9108
926.566	9135
926.673	9001
926.779	8918
926.886	8925
926.993	8823
927.099	8731
927.206	8758
927.312	8708
927.419	8830
927.525	8758
927.631	8834
927.737	8686
927.843	8648
927.95	8533
928.056	8571
928.162	8674
928.267	8686
928.373	9317
928.479	8800
928.585	8564
928.69	8655
928.796	8602
928.901	8545
929.007	8442
929.112	8644
929.218	8564
929.323	8511
929.428	8484
929.533	8598
929.638	8514
929.743	8461
929.848	8488
929.953	8473
930.058	8377
930.163	8290
930.267	8271
930.372	8396
930.477	8233
930.581	8454
930.685	8298
930.79	8256
930.894	8202
930.998	8142
931.103	8336
931.207	8027
931.311	7951
931.415	7887
931.519	7723
931.623	7655
