Data from test_V78500241_2158.txt Node
Date: Fri Mar 25 14:48:44 CST 2022
User: usil
Spectrometer: V785-0024
Trigger mode: 0
Integration Time (sec): 4.000000E-1
Scans to average: 1
Nonlinearity correction enabled: false
Boxcar width: 0
Storing dark spectrum: false
XAxis mode: Wavelengths
Number of Pixels in Spectrum: 1024
>>>>>Begin Spectral Data<<<<<
801.071	22200
801.214	22070
801.356	21895
801.499	21656
801.641	21591
801.783	21473
801.926	21545
802.068	21511
802.211	21332
802.353	21393
802.496	21222
802.638	21043
802.78	20880
802.923	20895
803.065	20880
803.208	20765
803.35	20826
803.492	20967
803.635	21051
803.777	20857
803.919	20990
804.061	21283
804.204	20838
804.346	20727
804.488	20720
804.63	20902
804.773	20758
804.915	20724
805.057	20906
805.199	20762
805.341	20861
805.483	20925
805.626	20845
805.768	20800
805.91	20853
806.052	20819
806.194	20701
806.336	20941
806.478	20758
806.62	20823
806.762	20906
806.904	20979
807.046	21055
807.188	21249
807.33	20948
807.472	21138
807.614	21036
807.756	20960
807.898	21032
808.04	20807
808.182	20834
808.324	20925
808.465	20921
808.607	21039
808.749	21161
808.891	21169
809.033	21241
809.174	21161
809.316	21074
809.458	21157
809.6	21127
809.741	21195
809.883	21260
810.025	21268
810.166	21340
810.308	21332
810.45	21184
810.591	21203
810.733	20944
810.875	20975
811.016	20929
811.158	20674
811.299	21055
811.441	21116
811.582	21093
811.724	20986
811.865	20952
812.007	20857
812.148	20914
812.29	20921
812.431	21005
812.573	21230
812.714	21393
812.855	21378
812.997	21424
813.138	21694
813.279	21610
813.421	21412
813.562	21382
813.703	21070
813.845	21013
813.986	20811
814.127	20629
814.268	20632
814.41	20552
814.551	20480
814.692	20552
814.833	20381
814.974	20434
815.115	20412
815.256	20336
815.397	20343
815.539	20362
815.68	20161
815.821	20206
815.962	20282
816.103	20058
816.244	19864
816.385	20001
816.526	19894
816.666	19719
816.807	19624
816.948	19837
817.089	19700
817.23	19639
817.371	19586
817.512	19578
817.653	19445
817.793	19605
817.934	19620
818.075	19662
818.216	19499
818.356	19601
818.497	19445
818.638	19266
818.778	19194
818.919	19365
819.06	19251
819.2	19445
819.341	19430
819.481	19381
819.622	19635
819.762	19746
819.903	19765
820.043	19655
820.184	19586
820.324	19567
820.465	19655
820.605	19647
820.746	19495
820.886	19506
821.026	19533
821.167	19521
821.307	19632
821.447	19521
821.588	19426
821.728	19343
821.868	19160
822.008	19008
822.149	19141
822.289	19000
822.429	18745
822.569	18722
822.709	18726
822.849	18563
822.99	18555
823.13	18395
823.27	18456
823.41	18353
823.55	18266
823.69	18407
823.83	18201
823.97	18171
824.11	18064
824.25	18034
824.389	17977
824.529	18045
824.669	18049
824.809	18167
824.949	18098
825.089	18171
825.228	18114
825.368	17908
825.508	17882
825.648	17802
825.787	17859
825.927	17923
826.067	17802
826.206	17969
826.346	17908
826.485	17870
826.625	17752
826.765	18003
826.904	17885
827.044	17676
827.183	17596
827.323	17463
827.462	17627
827.601	17478
827.741	17596
827.88	17459
828.02	17474
828.159	17615
828.298	17581
828.437	17668
828.577	17482
828.716	17722
828.855	17448
828.994	17395
829.134	17261
829.273	17444
829.412	17353
829.551	17162
829.69	17227
829.829	17372
829.968	17395
830.107	17356
830.246	17311
830.385	17235
830.524	17193
830.663	17022
830.802	16968
830.941	16866
831.08	16885
831.219	16923
831.357	16881
831.496	17155
831.635	16885
831.774	16702
831.913	16824
832.051	16679
832.19	16660
832.329	16687
832.467	16607
832.606	16592
832.744	16573
832.883	16538
833.022	16519
833.16	16660
833.299	16611
833.437	16611
833.576	16759
833.714	16637
833.852	16611
833.991	16615
834.129	16733
834.267	16691
834.406	16653
834.544	16710
834.682	16729
834.821	16630
834.959	16774
835.097	16588
835.235	16694
835.373	16675
835.511	16679
835.65	16474
835.788	16436
835.926	16421
836.064	16375
836.202	16360
836.34	16546
836.478	16641
836.615	16603
836.753	16622
836.891	16759
837.029	16538
837.167	16489
837.305	16466
837.443	16417
837.58	16310
837.718	16546
837.856	16371
837.993	16314
838.131	16299
838.269	16303
838.406	16310
838.544	16325
838.681	16105
838.819	16044
838.956	15918
839.094	15895
839.231	15956
839.369	16135
839.506	16325
839.643	16200
839.781	15975
839.918	15998
840.055	16029
840.193	15960
840.33	15869
840.467	16010
840.604	15979
840.742	16226
840.879	15846
841.016	15907
841.153	15854
841.29	16044
841.427	15934
841.564	15915
841.701	15983
841.838	15949
841.975	15960
842.112	15842
842.249	15781
842.385	15766
842.522	15994
842.659	15842
842.796	15747
842.933	15713
843.069	15739
843.206	15698
843.343	15842
843.479	15781
843.616	15785
843.752	15477
843.889	15557
844.025	15614
844.162	15549
844.298	15701
844.435	15488
844.571	15424
844.708	15587
844.844	15705
844.98	15671
845.117	15675
845.253	15408
845.389	15488
845.525	15363
845.661	15473
845.798	15329
845.934	15325
846.07	15348
846.206	15450
846.342	15401
846.478	15325
846.614	15157
846.75	15005
846.886	15051
847.022	15237
847.158	15116
847.294	15081
847.429	15135
847.565	15062
847.701	15306
847.837	14819
847.972	14853
848.108	14823
848.244	14960
848.379	14701
848.515	14708
848.65	14765
848.786	14632
848.921	14758
849.057	14853
849.192	14693
849.328	14708
849.463	14731
849.598	14659
849.734	14598
849.869	14564
850.004	14427
850.14	14526
850.275	14526
850.41	14377
850.545	14355
850.68	14507
850.815	14404
850.95	14442
851.085	14579
851.22	14564
851.355	14431
851.49	14457
851.625	14419
851.76	14461
851.895	14358
852.03	14396
852.165	14419
852.299	14507
852.434	14530
852.569	14518
852.703	14446
852.838	14602
852.973	14606
853.107	14575
853.242	14343
853.376	14229
853.511	14195
853.645	14324
853.78	14400
853.914	14358
854.048	14313
854.183	14313
854.317	14305
854.451	14404
854.585	14355
854.72	14237
854.854	14355
854.988	14202
855.122	14309
855.256	14142
855.39	14309
855.524	14412
855.658	14385
855.792	14362
855.926	14389
856.06	14381
856.194	14446
856.327	14473
856.461	14263
856.595	14336
856.729	14370
856.862	14374
856.996	14343
857.13	14362
857.263	14431
857.397	14488
857.53	14408
857.664	14393
857.797	14434
857.931	14495
858.064	14393
858.197	14465
858.331	14431
858.464	14408
858.597	14282
858.731	14423
858.864	14396
858.997	14347
859.13	14358
859.263	14320
859.396	14427
859.529	14377
859.662	14313
859.795	14339
859.928	14396
860.061	14518
860.194	14594
860.327	14442
860.46	14374
860.592	14488
860.725	14617
860.858	14484
860.99	14408
861.123	14214
861.256	14370
861.388	14438
861.521	15108
861.653	14290
861.786	14259
861.918	14290
862.05	14362
862.183	14385
862.315	14450
862.447	14461
862.58	14358
862.712	14199
862.844	14123
862.976	14206
863.108	14195
863.24	14522
863.372	14062
863.504	14157
863.636	14092
863.768	14294
863.9	14195
864.032	14088
864.164	14081
864.296	14103
864.428	14259
864.559	14240
864.691	14195
864.823	14191
864.954	14218
865.086	14180
865.217	14221
865.349	14164
865.48	14168
865.612	14073
865.743	14233
865.875	14123
866.006	14187
866.137	14145
866.269	14161
866.4	14073
866.531	14126
866.662	14043
866.793	14084
866.924	13989
867.055	14062
867.186	14096
867.317	14176
867.448	14020
867.579	14138
867.71	13989
867.841	14027
867.972	14172
868.103	14077
868.233	14107
868.364	14126
868.495	14107
868.625	14336
868.756	14537
868.886	14339
869.017	14434
869.147	14461
869.278	14621
869.408	14332
869.539	14351
869.669	14476
869.799	14355
869.929	14541
870.06	14415
870.19	14590
870.32	14708
870.45	14701
870.58	14826
870.71	14838
870.84	14887
870.97	14819
871.1	14804
871.23	14960
871.36	14921
871.489	14952
871.619	14933
871.749	14975
871.879	15028
872.008	15150
872.138	15013
872.267	15013
872.397	14796
872.526	14849
872.656	14697
872.785	14842
872.915	14975
873.044	15119
873.173	14925
873.303	15119
873.432	15097
873.561	15112
873.69	15066
873.819	15028
873.948	15108
874.077	15009
874.206	15001
874.335	15047
874.464	15237
874.593	15294
874.722	15195
874.851	15405
874.979	15348
875.108	15340
875.237	15199
875.365	15249
875.494	15207
875.623	15405
875.751	15298
875.88	15363
876.008	15488
876.136	15580
876.265	15713
876.393	15854
876.521	15865
876.65	15865
876.778	15686
876.906	15846
877.034	15694
877.162	15759
877.29	15759
877.418	15724
877.546	15789
877.674	15774
877.802	15808
877.93	15774
878.058	15698
878.185	15587
878.313	15732
878.441	15808
878.568	15610
878.696	15724
878.824	15793
878.951	15823
879.079	15991
879.206	16048
879.333	15888
879.461	15873
879.588	15808
879.715	15975
879.842	16044
879.97	15876
880.097	15637
880.224	15652
880.351	15743
880.478	15610
880.605	15625
880.732	15663
880.859	15857
880.986	15648
881.112	15667
881.239	15644
881.366	15386
881.493	15401
881.619	15249
881.746	15294
881.872	15252
881.999	15214
882.125	15135
882.252	15294
882.378	15294
882.505	15294
882.631	15287
882.757	15047
882.883	15089
883.01	15058
883.136	15131
883.262	14929
883.388	14895
883.514	15104
883.64	15119
883.766	15150
883.892	14891
884.018	14872
884.143	15074
884.269	15184
884.395	14838
884.52	14792
884.646	14861
884.772	14811
884.897	14689
885.023	14819
885.148	14864
885.274	14933
885.399	14880
885.524	14773
885.65	14777
885.775	14918
885.9	14796
886.025	14876
886.15	14887
886.275	14678
886.4	14735
886.525	14743
886.65	14602
886.775	14674
886.9	14857
887.025	14990
887.149	14925
887.274	14708
887.399	14632
887.523	14560
887.648	14503
887.773	14571
887.897	14750
888.021	14689
888.146	14575
888.27	14686
888.395	14693
888.519	14762
888.643	14693
888.767	14758
888.891	14579
889.015	14404
889.139	14526
889.263	14355
889.387	14552
889.511	14674
889.635	14629
889.759	14438
889.883	14533
890.006	14396
890.13	14606
890.254	14419
890.377	14454
890.501	14332
890.624	14221
890.748	14328
890.871	14092
890.995	14138
891.118	14161
891.241	14195
891.364	14183
891.488	14301
891.611	14138
891.734	14218
891.857	14233
891.98	14126
892.103	14210
892.226	14237
892.349	14157
892.471	14073
892.594	14244
892.717	14187
892.839	14168
892.962	14149
893.085	14298
893.207	14119
893.33	14027
893.452	14149
893.575	14202
893.697	14084
893.819	14336
893.941	14286
894.064	14362
894.186	14149
894.308	14161
894.43	14313
894.552	14385
894.674	14298
894.796	14218
894.918	14225
895.04	14240
895.161	14275
895.283	14221
895.405	14218
895.526	14290
895.648	14206
895.769	14328
895.891	14324
896.012	14404
896.134	14396
896.255	14427
896.376	14271
896.498	14362
896.619	14469
896.74	14415
896.861	14362
896.982	14678
897.103	14861
897.224	14727
897.345	14651
897.466	14526
897.587	14583
897.708	14796
897.828	14678
897.949	14568
898.07	14537
898.19	14518
898.311	14853
898.431	14594
898.552	14693
898.672	14674
898.792	14811
898.913	14781
899.033	14617
899.153	14507
899.273	14434
899.393	14526
899.513	14549
899.633	14610
899.753	14537
899.873	14556
899.993	14556
900.113	14564
900.232	14598
900.352	14488
900.472	14408
900.591	14351
900.711	14347
900.83	14396
900.95	14503
901.069	14465
901.189	14336
901.308	14161
901.427	13997
901.546	14100
901.665	14134
901.784	14024
901.904	14031
902.023	13894
902.141	13715
902.26	13616
902.379	13681
902.498	13655
902.617	13537
902.735	13742
902.854	13681
902.973	13552
903.091	13369
903.21	13335
903.328	13457
903.446	13339
903.565	13213
903.683	13202
903.801	13110
903.919	13156
904.038	13156
904.156	12996
904.274	13141
904.392	13076
904.51	12958
904.627	13091
904.745	13088
904.863	13164
904.981	12882
905.098	12715
905.216	12783
905.334	12715
905.451	12662
905.569	12768
905.686	12730
905.803	12730
905.921	12536
906.038	12635
906.155	12513
906.272	12334
906.389	12479
906.506	12353
906.623	12289
906.74	12418
906.857	12213
906.974	12209
907.091	12418
907.208	12464
907.324	12365
907.441	12258
907.557	12121
907.674	12041
907.79	12011
907.907	11958
908.023	12057
908.139	12045
908.256	12079
908.372	11961
908.488	11954
908.604	11794
908.72	11859
908.836	11851
908.952	11779
909.068	11843
909.184	11908
909.3	11805
909.415	11904
909.531	11855
909.647	11600
909.762	11600
909.878	11573
909.993	11699
910.108	11554
910.224	11600
910.339	11589
910.454	11505
910.57	11474
910.685	11387
910.8	11649
910.915	11547
911.03	11478
911.145	11242
911.259	11246
911.374	11349
911.489	11109
911.604	11178
911.718	11105
911.833	11086
911.947	10968
912.062	10927
912.176	10991
912.291	11022
912.405	11045
912.519	11235
912.633	11216
912.748	11117
912.862	11022
912.976	10965
913.09	10759
913.204	10862
913.318	10999
913.431	11060
913.545	11048
913.659	11022
913.772	10911
913.886	10797
914	10782
914.113	10854
914.226	10984
914.34	10885
914.453	10717
914.566	10858
914.68	10767
914.793	10668
914.906	10573
915.019	10531
915.132	10447
915.245	10599
915.358	10577
915.47	10599
915.583	10493
915.696	10615
915.809	10702
915.921	10710
916.034	10542
916.146	10516
916.259	10466
916.371	10607
916.483	10592
916.595	10470
916.708	10489
916.82	10500
916.932	10474
917.044	10447
917.156	10436
917.268	10303
917.38	10409
917.491	10379
917.603	10371
917.715	10508
917.826	10462
917.938	10329
918.049	10211
918.161	10447
918.272	10523
918.384	10451
918.495	10424
918.606	10272
918.717	10158
918.828	10325
918.939	10280
919.05	10154
919.161	10234
919.272	10036
919.383	10090
919.494	10306
919.604	10474
919.715	10310
919.826	10177
919.936	10306
920.047	10280
920.157	10310
920.267	10459
920.378	10299
920.488	10287
920.598	10432
920.708	10565
920.818	10440
920.928	10443
921.038	10580
921.148	10653
921.258	10284
921.368	10181
921.477	10120
921.587	10128
921.697	10002
921.806	10139
921.916	9960
922.025	9918
922.134	9930
922.244	9789
922.353	9884
922.462	9740
922.571	9686
922.68	9500
922.789	9507
922.898	9507
923.007	9454
923.116	9534
923.224	9515
923.333	9515
923.442	9344
923.55	9389
923.659	9435
923.767	9572
923.876	9420
923.984	9466
924.092	9351
924.201	9439
924.309	9412
924.417	9443
924.525	9302
924.633	9431
924.741	10032
924.849	9188
924.956	9359
925.064	9154
925.172	9112
925.279	9199
925.387	9222
925.494	9287
925.602	9363
925.709	9287
925.816	9131
925.924	9233
926.031	9367
926.138	9214
926.245	9195
926.352	9169
926.459	9272
926.566	9329
926.673	9123
926.779	9062
926.886	9036
926.993	8914
927.099	8899
927.206	8857
927.312	8853
927.419	9013
927.525	8918
927.631	8971
927.737	8830
927.843	8815
927.95	8674
928.056	8773
928.162	8766
928.267	8895
928.373	9447
928.479	8906
928.585	8651
928.69	8849
928.796	8819
928.901	8727
929.007	8579
929.112	8712
929.218	8708
929.323	8617
929.428	8716
929.533	8811
929.638	8560
929.743	8587
929.848	8667
929.953	8663
930.058	8522
930.163	8336
930.267	8366
930.372	8522
930.477	8389
930.581	8587
930.685	8499
930.79	8351
930.894	8374
930.998	8286
931.103	8454
931.207	8100
931.311	8138
931.415	8031
931.519	7807
931.623	7818
