Data from test_V78500241_3265.txt Node
Date: Fri Mar 25 14:56:26 CST 2022
User: usil
Spectrometer: V785-0024
Trigger mode: 0
Integration Time (sec): 4.000000E-1
Scans to average: 1
Nonlinearity correction enabled: false
Boxcar width: 0
Storing dark spectrum: false
XAxis mode: Wavelengths
Number of Pixels in Spectrum: 1024
>>>>>Begin Spectral Data<<<<<
801.071	22032
801.214	21876
801.356	21660
801.499	21542
801.641	21431
801.783	21504
801.926	21504
802.068	21405
802.211	21218
802.353	21218
802.496	20929
802.638	20876
802.78	20876
802.923	20811
803.065	20549
803.208	20522
803.35	20746
803.492	20826
803.635	20826
803.777	20708
803.919	20853
804.061	21043
804.204	20727
804.346	20587
804.488	20617
804.63	20670
804.773	20446
804.915	20613
805.057	20720
805.199	20434
805.341	20708
805.483	20720
805.626	20686
805.768	20594
805.91	20598
806.052	20621
806.194	20476
806.336	20674
806.478	20609
806.62	20492
806.762	20579
806.904	20823
807.046	21066
807.188	20834
807.33	20883
807.472	21009
807.614	20811
807.756	20880
807.898	20796
808.04	20568
808.182	20670
808.324	20693
808.465	20659
808.607	20861
808.749	21017
808.891	21047
809.033	21131
809.174	21017
809.316	20849
809.458	20891
809.6	20979
809.741	20872
809.883	21089
810.025	21055
810.166	21066
810.308	21089
810.45	21077
810.591	20944
810.733	20921
810.875	20830
811.016	20667
811.158	20674
811.299	20655
811.441	20910
811.582	20861
811.724	20800
811.865	20712
812.007	20686
812.148	20731
812.29	20788
812.431	20868
812.573	21074
812.714	21211
812.855	21180
812.997	21378
813.138	21397
813.279	21424
813.421	21154
813.562	21173
813.703	20979
813.845	20948
813.986	20431
814.127	20351
814.268	20221
814.41	20301
814.551	20195
814.692	20347
814.833	20237
814.974	20248
815.115	20221
815.256	20100
815.397	20164
815.539	20119
815.68	19947
815.821	20016
815.962	19997
816.103	19921
816.244	19845
816.385	19708
816.526	19632
816.666	19476
816.807	19430
816.948	19495
817.089	19533
817.23	19464
817.371	19316
817.512	19373
817.653	19373
817.793	19392
817.934	19460
818.075	19468
818.216	19445
818.356	19266
818.497	19247
818.638	19050
818.778	19141
818.919	19057
819.06	19126
819.2	19213
819.341	19285
819.481	19365
819.622	19384
819.762	19529
819.903	19586
820.043	19438
820.184	19362
820.324	19278
820.465	19362
820.605	19434
820.746	19346
820.886	19206
821.026	19369
821.167	19343
821.307	19480
821.447	19339
821.588	19137
821.728	19148
821.868	18924
822.008	18745
822.149	18783
822.289	18783
822.429	18513
822.569	18448
822.709	18486
822.849	18308
822.99	18289
823.13	18144
823.27	18235
823.41	18117
823.55	18091
823.69	18083
823.83	18034
823.97	18064
824.11	17866
824.25	17813
824.389	17866
824.529	17969
824.669	17863
824.809	18095
824.949	17866
825.089	17954
825.228	17824
825.368	17668
825.508	17737
825.648	17627
825.787	17653
825.927	17665
826.067	17672
826.206	17630
826.346	17680
826.485	17608
826.625	17665
826.765	17657
826.904	17722
827.044	17372
827.183	17379
827.323	17471
827.462	17421
827.601	17170
827.741	17360
827.88	17356
828.02	17197
828.159	17296
828.298	17379
828.437	17341
828.577	17307
828.716	17474
828.855	17246
828.994	17235
829.134	17086
829.273	17143
829.412	17147
829.551	16930
829.69	17098
829.829	17105
829.968	17166
830.107	17140
830.246	17254
830.385	16984
830.524	17010
830.663	16862
830.802	16748
830.941	16615
831.08	16645
831.219	16828
831.357	16679
831.496	16900
831.635	16687
831.774	16672
831.913	16618
832.051	16462
832.19	16443
832.329	16531
832.467	16447
832.606	16375
832.744	16375
832.883	16451
833.022	16360
833.16	16299
833.299	16398
833.437	16455
833.576	16371
833.714	16424
833.852	16504
833.991	16500
834.129	16592
834.267	16455
834.406	16428
834.544	16523
834.682	16470
834.821	16489
834.959	16561
835.097	16322
835.235	16474
835.373	16470
835.511	16440
835.65	16329
835.788	16352
835.926	16173
836.064	16124
836.202	16219
836.34	16436
836.478	16318
836.615	16360
836.753	16318
836.891	16386
837.029	16451
837.167	16295
837.305	16185
837.443	16268
837.58	16162
837.718	16329
837.856	16219
837.993	16242
838.131	16177
838.269	16048
838.406	16291
838.544	16246
838.681	15915
838.819	15892
838.956	15720
839.094	15732
839.231	15797
839.369	15869
839.506	16150
839.643	15911
839.781	15781
839.918	15705
840.055	15812
840.193	15812
840.33	15690
840.467	15835
840.604	15770
840.742	16010
840.879	15671
841.016	15766
841.153	15660
841.29	15854
841.427	15793
841.564	15926
841.701	15915
841.838	15778
841.975	15736
842.112	15690
842.249	15511
842.385	15477
842.522	15728
842.659	15603
842.796	15629
842.933	15701
843.069	15462
843.206	15644
843.343	15656
843.479	15534
843.616	15519
843.752	15325
843.889	15450
844.025	15439
844.162	15344
844.298	15450
844.435	15408
844.571	15291
844.708	15416
844.844	15580
844.98	15416
845.117	15389
845.253	15332
845.389	15275
845.525	15283
845.661	15336
845.798	15176
845.934	15176
846.07	15150
846.206	15218
846.342	15294
846.478	15169
846.614	14994
846.75	14899
846.886	14864
847.022	15024
847.158	14883
847.294	14914
847.429	14971
847.565	14845
847.701	15161
847.837	14602
847.972	14659
848.108	14743
848.244	14811
848.379	14644
848.515	14461
848.65	14473
848.786	14648
848.921	14499
849.057	14629
849.192	14697
849.328	14514
849.463	14480
849.598	14484
849.734	14374
849.869	14328
850.004	14301
850.14	14298
850.275	14408
850.41	14237
850.545	14282
850.68	14309
850.815	14263
850.95	14290
851.085	14518
851.22	14442
851.355	14381
851.49	14328
851.625	14221
851.76	14271
851.895	14199
852.03	14153
852.165	14298
852.299	14237
852.434	14343
852.569	14324
852.703	14336
852.838	14366
852.973	14423
853.107	14313
853.242	14271
853.376	14187
853.511	14073
853.645	14103
853.78	14183
853.914	14256
854.048	14202
854.183	14191
854.317	14168
854.451	14381
854.585	14168
854.72	14172
854.854	14267
854.988	14142
855.122	14077
855.256	14035
855.39	14187
855.524	14180
855.658	14161
855.792	14183
855.926	14195
856.06	14233
856.194	14324
856.327	14149
856.461	14138
856.595	14142
856.729	14183
856.862	14263
856.996	14180
857.13	14309
857.263	14317
857.397	14252
857.53	14126
857.664	14168
857.797	14252
857.931	14237
858.064	14210
858.197	14256
858.331	14168
858.464	14054
858.597	14084
858.731	14134
858.864	14145
858.997	14145
859.13	14229
859.263	14176
859.396	14119
859.529	14142
859.662	14138
859.795	14081
859.928	14195
860.061	14286
860.194	14305
860.327	14244
860.46	14130
860.592	14229
860.725	14210
860.858	14355
860.99	14240
861.123	13993
861.256	14111
861.388	14149
861.521	14933
861.653	14126
861.786	14062
861.918	13974
862.05	13982
862.183	14111
862.315	14199
862.447	14240
862.58	14069
862.712	13883
862.844	13898
862.976	14050
863.108	14012
863.24	14290
863.372	13826
863.504	13917
863.636	13921
863.768	13982
863.9	13875
864.032	13932
864.164	13856
864.296	13982
864.428	14031
864.559	14077
864.691	14073
864.823	14020
864.954	13978
865.086	14077
865.217	13890
865.349	13928
865.48	13951
865.612	13913
865.743	14126
865.875	13986
866.006	13982
866.137	13982
866.269	13925
866.4	13970
866.531	13921
866.662	13936
866.793	13875
866.924	13928
867.055	13940
867.186	13978
867.317	13868
867.448	13769
867.579	13898
867.71	13894
867.841	13871
867.972	13913
868.103	13894
868.233	13883
868.364	13913
868.495	14088
868.625	14244
868.756	14259
868.886	14058
869.017	14115
869.147	14259
869.278	14313
869.408	14210
869.539	14191
869.669	14347
869.799	14183
869.929	14214
870.06	14313
870.19	14610
870.32	14503
870.45	14537
870.58	14522
870.71	14667
870.84	14705
870.97	14598
871.1	14564
871.23	14758
871.36	14743
871.489	14667
871.619	14746
871.749	14765
871.879	14785
872.008	14902
872.138	14777
872.267	14750
872.397	14712
872.526	14594
872.656	14689
872.785	14571
872.915	14815
873.044	14967
873.173	14868
873.303	14845
873.432	14861
873.561	14887
873.69	14788
873.819	14834
873.948	14899
874.077	14933
874.206	14819
874.335	14868
874.464	14956
874.593	15070
874.722	14960
874.851	15241
874.979	15291
875.108	15207
875.237	15093
875.365	15104
875.494	15104
875.623	15207
875.751	15093
875.88	15214
876.008	15355
876.136	15317
876.265	15576
876.393	15854
876.521	15675
876.65	15625
876.778	15641
876.906	15496
877.034	15469
877.162	15599
877.29	15412
877.418	15507
877.546	15652
877.674	15564
877.802	15504
877.93	15591
878.058	15523
878.185	15443
878.313	15686
878.441	15595
878.568	15336
878.696	15473
878.824	15507
878.951	15717
879.079	15732
879.206	15892
879.333	15701
879.461	15648
879.588	15641
879.715	15846
879.842	15880
879.97	15618
880.097	15397
880.224	15504
880.351	15401
880.478	15431
880.605	15401
880.732	15462
880.859	15633
880.986	15435
881.112	15492
881.239	15370
881.366	15188
881.493	15097
881.619	15070
881.746	15047
881.872	15070
881.999	15051
882.125	15077
882.252	15135
882.378	15043
882.505	15173
882.631	15066
882.757	14842
882.883	14956
883.01	14933
883.136	14750
883.262	14800
883.388	14727
883.514	14994
883.64	14910
883.766	14849
883.892	14708
884.018	14724
884.143	14792
884.269	14967
884.395	14674
884.52	14530
884.646	14556
884.772	14613
884.897	14480
885.023	14682
885.148	14689
885.274	14769
885.399	14708
885.524	14625
885.65	14598
885.775	14663
885.9	14537
886.025	14743
886.15	14571
886.275	14522
886.4	14495
886.525	14495
886.65	14533
886.775	14621
886.9	14762
887.025	14788
887.149	14617
887.274	14469
887.399	14396
887.523	14324
887.648	14305
887.773	14252
887.897	14556
888.021	14374
888.146	14499
888.27	14533
888.395	14503
888.519	14480
888.643	14503
888.767	14484
888.891	14370
889.015	14221
889.139	14328
889.263	14271
889.387	14404
889.511	14450
889.635	14484
889.759	14358
889.883	14320
890.006	14275
890.13	14400
890.254	14195
890.377	14305
890.501	14107
890.624	14103
890.748	14164
890.871	14008
890.995	13967
891.118	13864
891.241	14020
891.364	14016
891.488	14123
891.611	13963
891.734	13978
891.857	14134
891.98	14050
892.103	14065
892.226	14103
892.349	13963
892.471	13921
892.594	13982
892.717	14008
892.839	13944
892.962	14027
893.085	14012
893.207	14008
893.33	13879
893.452	14058
893.575	14020
893.697	13936
893.819	14180
893.941	14286
894.064	14111
894.186	13970
894.308	13928
894.43	14180
894.552	14214
894.674	14180
894.796	13894
894.918	14016
895.04	13959
895.161	14168
895.283	14126
895.405	14058
895.526	14191
895.648	14161
895.769	14096
895.891	14145
896.012	14202
896.134	14157
896.255	14103
896.376	14176
896.498	14229
896.619	14221
896.74	14286
896.861	14229
896.982	14503
897.103	14674
897.224	14412
897.345	14465
897.466	14370
897.587	14476
897.708	14522
897.828	14556
897.949	14442
898.07	14351
898.19	14434
898.311	14560
898.431	14408
898.552	14522
898.672	14541
898.792	14712
898.913	14499
899.033	14530
899.153	14423
899.273	14237
899.393	14404
899.513	14385
899.633	14446
899.753	14362
899.873	14351
899.993	14404
900.113	14389
900.232	14400
900.352	14431
900.472	14328
900.591	14252
900.711	14324
900.83	14256
900.95	14233
901.069	14343
901.189	14168
901.308	13959
901.427	13879
901.546	13932
901.665	14058
901.784	13970
901.904	13822
902.023	13738
902.141	13559
902.26	13464
902.379	13563
902.498	13514
902.617	13441
902.735	13651
902.854	13540
902.973	13445
903.091	13228
903.21	13217
903.328	13103
903.446	13141
903.565	13171
903.683	13034
903.801	13008
903.919	13038
904.038	13019
904.156	12894
904.274	12901
904.392	12909
904.51	12844
904.627	12798
904.745	12894
904.863	12924
904.981	12787
905.098	12612
905.216	12608
905.334	12555
905.451	12665
905.569	12566
905.686	12582
905.803	12642
905.921	12407
906.038	12525
906.155	12460
906.272	12304
906.389	12346
906.506	12197
906.623	12197
906.74	12186
906.857	12064
906.974	12060
907.091	12254
907.208	12289
907.324	12254
907.441	12182
907.557	11901
907.674	11916
907.79	11889
907.907	11843
908.023	11904
908.139	11912
908.256	11859
908.372	11878
908.488	11832
908.604	11668
908.72	11680
908.836	11630
908.952	11554
909.068	11703
909.184	11851
909.3	11729
909.415	11756
909.531	11707
909.647	11463
909.762	11471
909.878	11353
909.993	11429
910.108	11448
910.224	11440
910.339	11444
910.454	11383
910.57	11364
910.685	11212
910.8	11471
910.915	11478
911.03	11334
911.145	11060
911.259	11197
911.374	11090
911.489	11109
911.604	11079
911.718	10946
911.833	11006
911.947	10793
912.062	10736
912.176	10889
912.291	10923
912.405	10949
912.519	11204
912.633	11105
912.748	10942
912.862	10911
912.976	10820
913.09	10630
913.204	10767
913.318	10816
913.431	10911
913.545	10748
913.659	10942
913.772	10805
913.886	10630
914	10569
914.113	10721
914.226	10729
914.34	10763
914.453	10565
914.566	10721
914.68	10618
914.793	10607
914.906	10478
915.019	10394
915.132	10306
915.245	10360
915.358	10329
915.47	10424
915.583	10485
915.696	10500
915.809	10580
915.921	10542
916.034	10386
916.146	10405
916.259	10409
916.371	10500
916.483	10459
916.595	10322
916.708	10405
916.82	10295
916.932	10257
917.044	10299
917.156	10276
917.268	10200
917.38	10272
917.491	10200
917.603	10284
917.715	10405
917.826	10341
917.938	10234
918.049	10021
918.161	10192
918.272	10371
918.384	10337
918.495	10318
918.606	10147
918.717	10120
918.828	10124
918.939	10204
919.05	10093
919.161	10097
919.272	9945
919.383	10051
919.494	10188
919.604	10455
919.715	10128
919.826	10082
919.936	10105
920.047	10112
920.157	10093
920.267	10382
920.378	10200
920.488	10147
920.598	10318
920.708	10497
920.818	10295
920.928	10367
921.038	10455
921.148	10485
921.258	10211
921.368	10082
921.477	9994
921.587	9983
921.697	9888
921.806	10048
921.916	9880
922.025	9781
922.134	9690
922.244	9610
922.353	9789
922.462	9606
922.571	9584
922.68	9401
922.789	9374
922.898	9458
923.007	9336
923.116	9378
923.224	9450
923.333	9428
923.442	9287
923.55	9192
923.659	9336
923.767	9363
923.876	9264
923.984	9363
924.092	9214
924.201	9302
924.309	9233
924.417	9306
924.525	9230
924.633	9253
924.741	10135
924.849	9066
924.956	9245
925.064	9028
925.172	8979
925.279	9009
925.387	9142
925.494	9055
925.602	9184
925.709	9169
925.816	8979
925.924	9066
926.031	9161
926.138	9070
926.245	9127
926.352	8967
926.459	9157
926.566	9108
926.673	9013
926.779	8975
926.886	8823
926.993	8842
927.099	8830
927.206	8743
927.312	8777
927.419	8792
927.525	8785
927.631	8845
927.737	8670
927.843	8655
927.95	8587
928.056	8621
928.162	8693
928.267	8735
928.373	9329
928.479	8720
928.585	8545
928.69	8674
928.796	8648
928.901	8579
929.007	8408
929.112	8594
929.218	8545
929.323	8526
929.428	8556
929.533	8583
929.638	8442
929.743	8461
929.848	8533
929.953	8507
930.058	8396
930.163	8195
930.267	8259
930.372	8389
930.477	8240
930.581	8583
930.685	8313
930.79	8210
930.894	8191
930.998	8187
931.103	8358
931.207	8065
931.311	7982
931.415	7925
931.519	7693
931.623	7734
