Data from test_V78500241_2322.txt Node
Date: Fri Mar 25 14:49:52 CST 2022
User: usil
Spectrometer: V785-0024
Trigger mode: 0
Integration Time (sec): 4.000000E-1
Scans to average: 1
Nonlinearity correction enabled: false
Boxcar width: 0
Storing dark spectrum: false
XAxis mode: Wavelengths
Number of Pixels in Spectrum: 1024
>>>>>Begin Spectral Data<<<<<
801.071	22173
801.214	21979
801.356	21808
801.499	21709
801.641	21538
801.783	21603
801.926	21595
802.068	21469
802.211	21435
802.353	21241
802.496	21165
802.638	20963
802.78	20956
802.923	21009
803.065	21001
803.208	20876
803.35	20823
803.492	21024
803.635	20914
803.777	20883
803.919	20921
804.061	21252
804.204	20868
804.346	20826
804.488	20701
804.63	20842
804.773	20826
804.915	20701
805.057	20777
805.199	20777
805.341	20895
805.483	21055
805.626	20883
805.768	20674
805.91	20826
806.052	20880
806.194	20785
806.336	20994
806.478	20796
806.62	20800
806.762	20872
806.904	20975
807.046	21291
807.188	21036
807.33	20918
807.472	21123
807.614	20956
807.756	21055
807.898	20914
808.04	20872
808.182	20838
808.324	20921
808.465	20990
808.607	21017
808.749	20994
808.891	21283
809.033	21332
809.174	21146
809.316	21192
809.458	21108
809.6	21058
809.741	21218
809.883	21256
810.025	21424
810.166	21351
810.308	21348
810.45	21233
810.591	21176
810.733	20975
810.875	20956
811.016	20849
811.158	20815
811.299	21009
811.441	21116
811.582	21001
811.724	20910
811.865	20986
812.007	20925
812.148	20971
812.29	21013
812.431	21081
812.573	21203
812.714	21313
812.855	21481
812.997	21606
813.138	21614
813.279	21477
813.421	21435
813.562	21378
813.703	21211
813.845	21032
813.986	20773
814.127	20636
814.268	20552
814.41	20556
814.551	20457
814.692	20594
814.833	20412
814.974	20415
815.115	20332
815.256	20351
815.397	20313
815.539	20415
815.68	20248
815.821	20024
815.962	20282
816.103	20221
816.244	20046
816.385	19978
816.526	19932
816.666	19811
816.807	19757
816.948	19681
817.089	19765
817.23	19635
817.371	19597
817.512	19632
817.653	19643
817.793	19506
817.934	19571
818.075	19624
818.216	19651
818.356	19460
818.497	19483
818.638	19289
818.778	19400
818.919	19358
819.06	19354
819.2	19419
819.341	19438
819.481	19403
819.622	19635
819.762	19811
819.903	19689
820.043	19666
820.184	19487
820.324	19548
820.465	19651
820.605	19757
820.746	19575
820.886	19426
821.026	19544
821.167	19613
821.307	19575
821.447	19582
821.588	19430
821.728	19244
821.868	19198
822.008	18935
822.149	19012
822.289	19046
822.429	18791
822.569	18661
822.709	18661
822.849	18506
822.99	18544
823.13	18388
823.27	18407
823.41	18205
823.55	18197
823.69	18247
823.83	18365
823.97	18262
824.11	18129
824.25	18087
824.389	18041
824.529	18087
824.669	17931
824.809	18174
824.949	18174
825.089	18110
825.228	18098
825.368	17847
825.508	17893
825.648	17855
825.787	17920
825.927	17874
826.067	17756
826.206	17783
826.346	17851
826.485	17809
826.625	17707
826.765	17775
826.904	17802
827.044	17611
827.183	17611
827.323	17532
827.462	17558
827.601	17501
827.741	17444
827.88	17547
828.02	17379
828.159	17395
828.298	17520
828.437	17611
828.577	17444
828.716	17672
828.855	17444
828.994	17303
829.134	17299
829.273	17254
829.412	17132
829.551	17151
829.69	17178
829.829	17269
829.968	17337
830.107	17296
830.246	17277
830.385	17113
830.524	17105
830.663	17041
830.802	16968
830.941	16866
831.08	16904
831.219	16991
831.357	16911
831.496	17083
831.635	16885
831.774	16733
831.913	16767
832.051	16653
832.19	16603
832.329	16755
832.467	16664
832.606	16478
832.744	16531
832.883	16500
833.022	16615
833.16	16577
833.299	16660
833.437	16584
833.576	16542
833.714	16584
833.852	16618
833.991	16664
834.129	16558
834.267	16675
834.406	16592
834.544	16577
834.682	16668
834.821	16679
834.959	16843
835.097	16637
835.235	16637
835.373	16599
835.511	16626
835.65	16542
835.788	16455
835.926	16409
836.064	16341
836.202	16379
836.34	16569
836.478	16512
836.615	16443
836.753	16519
836.891	16546
837.029	16485
837.167	16550
837.305	16409
837.443	16379
837.58	16284
837.718	16462
837.856	16424
837.993	16306
838.131	16295
838.269	16188
838.406	16386
838.544	16333
838.681	16105
838.819	16032
838.956	15861
839.094	15869
839.231	16006
839.369	16097
839.506	16390
839.643	16166
839.781	15903
839.918	15903
840.055	15975
840.193	15873
840.33	15857
840.467	15880
840.604	15884
840.742	16169
840.879	15694
841.016	15846
841.153	15785
841.29	15937
841.427	15922
841.564	15983
841.701	16002
841.838	15793
841.975	15846
842.112	15823
842.249	15728
842.385	15637
842.522	15854
842.659	15743
842.796	15610
842.933	15823
843.069	15618
843.206	15622
843.343	15705
843.479	15797
843.616	15728
843.752	15405
843.889	15500
844.025	15606
844.162	15439
844.298	15572
844.435	15492
844.571	15386
844.708	15557
844.844	15644
844.98	15561
845.117	15481
845.253	15439
845.389	15298
845.525	15458
845.661	15450
845.798	15294
845.934	15306
846.07	15241
846.206	15344
846.342	15374
846.478	15264
846.614	15176
846.75	14994
846.886	15032
847.022	15127
847.158	15066
847.294	15028
847.429	15081
847.565	15077
847.701	15287
847.837	14781
847.972	14785
848.108	14861
848.244	14895
848.379	14674
848.515	14583
848.65	14579
848.786	14678
848.921	14560
849.057	14731
849.192	14701
849.328	14777
849.463	14617
849.598	14587
849.734	14533
849.869	14492
850.004	14412
850.14	14454
850.275	14434
850.41	14282
850.545	14400
850.68	14419
850.815	14400
850.95	14366
851.085	14655
851.22	14473
851.355	14442
851.49	14377
851.625	14332
851.76	14396
851.895	14309
852.03	14301
852.165	14404
852.299	14377
852.434	14476
852.569	14400
852.703	14393
852.838	14484
852.973	14488
853.107	14587
853.242	14332
853.376	14221
853.511	14252
853.645	14252
853.78	14309
853.914	14263
854.048	14248
854.183	14290
854.317	14286
854.451	14434
854.585	14339
854.72	14229
854.854	14381
854.988	14263
855.122	14240
855.256	14092
855.39	14328
855.524	14324
855.658	14328
855.792	14221
855.926	14351
856.06	14358
856.194	14347
856.327	14366
856.461	14233
856.595	14278
856.729	14355
856.862	14298
856.996	14362
857.13	14362
857.263	14431
857.397	14339
857.53	14320
857.664	14419
857.797	14336
857.931	14507
858.064	14286
858.197	14332
858.331	14298
858.464	14157
858.597	14157
858.731	14259
858.864	14214
858.997	14259
859.13	14248
859.263	14317
859.396	14393
859.529	14267
859.662	14145
859.795	14210
859.928	14290
860.061	14450
860.194	14549
860.327	14332
860.46	14305
860.592	14301
860.725	14476
860.858	14370
860.99	14290
861.123	14187
861.256	14248
861.388	14328
861.521	14800
861.653	14229
861.786	14202
861.918	14187
862.05	14256
862.183	14183
862.315	14400
862.447	14339
862.58	14103
862.712	14096
862.844	13917
862.976	14065
863.108	14069
863.24	14454
863.372	14115
863.504	14039
863.636	13989
863.768	14084
863.9	14035
864.032	13959
864.164	14020
864.296	14119
864.428	14225
864.559	14134
864.691	14149
864.823	14123
864.954	14103
865.086	14065
865.217	14001
865.349	13913
865.48	13959
865.612	14073
865.743	14180
865.875	14024
866.006	14043
866.137	14092
866.269	14001
866.4	14020
866.531	13955
866.662	13997
866.793	14001
866.924	14043
867.055	14084
867.186	14065
867.317	14012
867.448	13978
867.579	14039
867.71	14005
867.841	13997
867.972	13951
868.103	14012
868.233	14088
868.364	14081
868.495	14100
868.625	14275
868.756	14476
868.886	14168
869.017	14229
869.147	14328
869.278	14347
869.408	14336
869.539	14278
869.669	14408
869.799	14309
869.929	14362
870.06	14400
870.19	14541
870.32	14629
870.45	14655
870.58	14830
870.71	14781
870.84	14750
870.97	14693
871.1	14663
871.23	14815
871.36	14952
871.489	14765
871.619	14826
871.749	14845
871.879	14876
872.008	14994
872.138	14986
872.267	14842
872.397	14743
872.526	14750
872.656	14644
872.785	14648
872.915	14944
873.044	14975
873.173	15009
873.303	14952
873.432	15024
873.561	14986
873.69	14929
873.819	14925
873.948	14994
874.077	14982
874.206	14845
874.335	14948
874.464	15097
874.593	15192
874.722	15157
874.851	15275
874.979	15283
875.108	15302
875.237	15195
875.365	15077
875.494	15279
875.623	15226
875.751	15230
875.88	15351
876.008	15378
876.136	15523
876.265	15694
876.393	15842
876.521	15675
876.65	15781
876.778	15675
876.906	15652
877.034	15641
877.162	15599
877.29	15618
877.418	15629
877.546	15667
877.674	15667
877.802	15660
877.93	15564
878.058	15701
878.185	15545
878.313	15698
878.441	15545
878.568	15469
878.696	15694
878.824	15652
878.951	15641
879.079	15808
879.206	15941
879.333	15823
879.461	15724
879.588	15823
879.715	15770
879.842	15987
879.97	15781
880.097	15584
880.224	15424
880.351	15462
880.478	15561
880.605	15523
880.732	15496
880.859	15759
880.986	15568
881.112	15572
881.239	15545
881.366	15291
881.493	15150
881.619	15211
881.746	15173
881.872	15154
881.999	15089
882.125	15108
882.252	15199
882.378	15199
882.505	15336
882.631	15081
882.757	14982
882.883	14986
883.01	14994
883.136	14845
883.262	14876
883.388	14754
883.514	14990
883.64	15131
883.766	14876
883.892	14781
884.018	14785
884.143	14967
884.269	14960
884.395	14724
884.52	14724
884.646	14606
884.772	14594
884.897	14621
885.023	14724
885.148	14777
885.274	14918
885.399	14834
885.524	14686
885.65	14689
885.775	14739
885.9	14621
886.025	14743
886.15	14727
886.275	14602
886.4	14495
886.525	14625
886.65	14632
886.775	14590
886.9	14796
887.025	14933
887.149	14632
887.274	14659
887.399	14549
887.523	14499
887.648	14404
887.773	14362
887.897	14522
888.021	14602
888.146	14385
888.27	14552
888.395	14632
888.519	14568
888.643	14514
888.767	14556
888.891	14412
889.015	14351
889.139	14332
889.263	14339
889.387	14564
889.511	14659
889.635	14473
889.759	14305
889.883	14294
890.006	14454
890.13	14488
890.254	14324
890.377	14259
890.501	14233
890.624	14142
890.748	14149
890.871	14210
890.995	13959
891.118	14016
891.241	14062
891.364	14077
891.488	14256
891.611	14100
891.734	14054
891.857	14092
891.98	14142
892.103	14305
892.226	14092
892.349	14039
892.471	13963
892.594	14069
892.717	14062
892.839	14100
892.962	14062
893.085	14191
893.207	14046
893.33	13913
893.452	14046
893.575	14016
893.697	14046
893.819	14237
893.941	14343
894.064	14256
894.186	14062
894.308	14012
894.43	14210
894.552	14301
894.674	14252
894.796	14031
894.918	14157
895.04	14126
895.161	14240
895.283	14210
895.405	14130
895.526	14119
895.648	14233
895.769	14282
895.891	14267
896.012	14290
896.134	14271
896.255	14187
896.376	14229
896.498	14225
896.619	14278
896.74	14286
896.861	14358
896.982	14659
897.103	14735
897.224	14530
897.345	14545
897.466	14511
897.587	14476
897.708	14579
897.828	14564
897.949	14431
898.07	14419
898.19	14514
898.311	14754
898.431	14545
898.552	14488
898.672	14689
898.792	14693
898.913	14693
899.033	14686
899.153	14362
899.273	14404
899.393	14358
899.513	14469
899.633	14507
899.753	14499
899.873	14419
899.993	14518
900.113	14503
900.232	14473
900.352	14541
900.472	14465
900.591	14278
900.711	14412
900.83	14259
900.95	14374
901.069	14454
901.189	14347
901.308	14084
901.427	13967
901.546	14016
901.665	14088
901.784	14046
901.904	13967
902.023	13772
902.141	13586
902.26	13582
902.379	13681
902.498	13445
902.617	13483
902.735	13518
902.854	13582
902.973	13563
903.091	13282
903.21	13247
903.328	13339
903.446	13168
903.565	13209
903.683	13179
903.801	13076
903.919	13061
904.038	13107
904.156	13046
904.274	12985
904.392	12890
904.51	12958
904.627	12909
904.745	12970
904.863	12985
904.981	12886
905.098	12684
905.216	12639
905.334	12677
905.451	12677
905.569	12631
905.686	12635
905.803	12566
905.921	12464
906.038	12650
906.155	12490
906.272	12441
906.389	12403
906.506	12281
906.623	12266
906.74	12289
906.857	12045
906.974	12098
907.091	12262
907.208	12395
907.324	12209
907.441	12140
907.557	11939
907.674	11977
907.79	12019
907.907	11912
908.023	11866
908.139	11977
908.256	11878
908.372	11908
908.488	11984
908.604	11798
908.72	11695
908.836	11771
908.952	11718
909.068	11779
909.184	11893
909.3	11710
909.415	11851
909.531	11828
909.647	11570
909.762	11630
909.878	11497
909.993	11600
910.108	11448
910.224	11463
910.339	11562
910.454	11452
910.57	11364
910.685	11292
910.8	11604
910.915	11592
911.03	11364
911.145	11269
911.259	11170
911.374	11151
911.489	11178
911.604	11105
911.718	10877
911.833	10976
911.947	10839
912.062	10828
912.176	10930
912.291	10987
912.405	10938
912.519	11140
912.633	11288
912.748	11037
912.862	10911
912.976	10885
913.09	10706
913.204	10801
913.318	10816
913.431	10946
913.545	10972
913.659	11029
913.772	10900
913.886	10801
914	10767
914.113	10881
914.226	10816
914.34	10755
914.453	10668
914.566	10824
914.68	10550
914.793	10664
914.906	10523
915.019	10440
915.132	10424
915.245	10462
915.358	10535
915.47	10523
915.583	10481
915.696	10500
915.809	10565
915.921	10702
916.034	10462
916.146	10382
916.259	10409
916.371	10497
916.483	10538
916.595	10421
916.708	10413
916.82	10451
916.932	10413
917.044	10424
917.156	10405
917.268	10261
917.38	10306
917.491	10268
917.603	10348
917.715	10356
917.826	10417
917.938	10295
918.049	10181
918.161	10310
918.272	10455
918.384	10485
918.495	10314
918.606	10219
918.717	10131
918.828	10204
918.939	10204
919.05	10093
919.161	10166
919.272	10002
919.383	10059
919.494	10223
919.604	10375
919.715	10192
919.826	10082
919.936	10227
920.047	10238
920.157	10181
920.267	10443
920.378	10261
920.488	10162
920.598	10447
920.708	10421
920.818	10348
920.928	10402
921.038	10596
921.148	10462
921.258	10238
921.368	10154
921.477	10078
921.587	10025
921.697	9926
921.806	10109
921.916	9953
922.025	9812
922.134	9800
922.244	9762
922.353	9842
922.462	9652
922.571	9557
922.68	9435
922.789	9389
922.898	9488
923.007	9507
923.116	9507
923.224	9469
923.333	9488
923.442	9355
923.55	9313
923.659	9378
923.767	9401
923.876	9370
923.984	9367
924.092	9332
924.201	9340
924.309	9332
924.417	9370
924.525	9203
924.633	9321
924.741	10044
924.849	9062
924.956	9245
925.064	9104
925.172	9074
925.279	9085
925.387	9123
925.494	9173
925.602	9241
925.709	9218
925.816	9005
925.924	9116
926.031	9199
926.138	9116
926.245	9127
926.352	9070
926.459	9127
926.566	9283
926.673	9085
926.779	8960
926.886	8952
926.993	8902
927.099	8815
927.206	8727
927.312	8674
927.419	8857
927.525	8876
927.631	8853
927.737	8762
927.843	8731
927.95	8659
928.056	8697
928.162	8766
928.267	8758
928.373	9420
928.479	8830
928.585	8541
928.69	8670
928.796	8735
928.901	8712
929.007	8480
929.112	8629
929.218	8522
929.323	8568
929.428	8526
929.533	8686
929.638	8488
929.743	8469
929.848	8568
929.953	8484
930.058	8564
930.163	8290
930.267	8290
930.372	8503
930.477	8328
930.581	8507
930.685	8450
930.79	8279
930.894	8362
930.998	8195
931.103	8431
931.207	8062
931.311	7982
931.415	7936
931.519	7795
931.623	7807
