Data from test_V78500241_142.txt Node
Date: Fri Mar 25 14:34:42 CST 2022
User: usil
Spectrometer: V785-0024
Trigger mode: 0
Integration Time (sec): 4.000000E-1
Scans to average: 1
Nonlinearity correction enabled: false
Boxcar width: 0
Storing dark spectrum: false
XAxis mode: Wavelengths
Number of Pixels in Spectrum: 1024
>>>>>Begin Spectral Data<<<<<
801.071	29722
801.214	29528
801.356	29493
801.499	29200
801.641	29227
801.783	29159
801.926	29086
802.068	29159
802.211	28965
802.353	28965
802.496	28927
802.638	28904
802.78	28778
802.923	28710
803.065	28607
803.208	28778
803.35	28713
803.492	28797
803.635	28930
803.777	29056
803.919	28797
804.061	29155
804.204	29025
804.346	28877
804.488	28698
804.63	28995
804.773	28797
804.915	29147
805.057	29079
805.199	29029
805.341	29311
805.483	29337
805.626	29231
805.768	29326
805.91	29349
806.052	29349
806.194	29421
806.336	29817
806.478	29482
806.62	29672
806.762	29855
806.904	30190
807.046	30547
807.188	30635
807.33	30962
807.472	31168
807.614	31597
807.756	32008
807.898	32320
808.04	33176
808.182	34082
808.324	35334
808.465	36882
808.607	38453
808.749	39903
808.891	40398
809.033	40546
809.174	39694
809.316	38259
809.458	36684
809.6	34995
809.741	33823
809.883	32963
810.025	32271
810.166	31894
810.308	31540
810.45	30939
810.591	30734
810.733	30456
810.875	30300
811.016	30121
811.158	30030
811.299	30159
811.441	30011
811.582	29961
811.724	29695
811.865	29802
812.007	29767
812.148	29817
812.29	29596
812.431	29668
812.573	29878
812.714	29931
812.855	30007
812.997	30034
813.138	30239
813.279	30209
813.421	29984
813.562	29862
813.703	29570
813.845	29608
813.986	29090
814.127	29025
814.268	29003
814.41	28934
814.551	28885
814.692	28839
814.833	28812
814.974	28930
815.115	28782
815.256	28820
815.397	28607
815.539	28672
815.68	28493
815.821	28493
815.962	28440
816.103	28500
816.244	28299
816.385	28405
816.526	28116
816.666	28002
816.807	27922
816.948	27888
817.089	27953
817.23	27953
817.371	27895
817.512	27876
817.653	27766
817.793	27854
817.934	27865
818.075	27747
818.216	27831
818.356	27785
818.497	27614
818.638	27599
818.778	27713
818.919	27549
819.06	27614
819.2	27785
819.341	27869
819.481	27831
819.622	27895
819.762	27994
819.903	27987
820.043	27846
820.184	27850
820.324	27819
820.465	27895
820.605	27812
820.746	27732
820.886	27591
821.026	27591
821.167	27595
821.307	27865
821.447	27595
821.588	27481
821.728	27310
821.868	27062
822.008	26982
822.149	27043
822.289	27089
822.429	26705
822.569	26720
822.709	26644
822.849	26488
822.99	26602
823.13	26347
823.27	26290
823.41	26370
823.55	26290
823.69	26271
823.83	26317
823.97	26111
824.11	26111
824.25	26107
824.389	25906
824.529	26122
824.669	26084
824.809	26088
824.949	26119
825.089	26161
825.228	26001
825.368	25830
825.508	25864
825.648	25776
825.787	25917
825.927	25906
826.067	25811
826.206	25723
826.346	25818
826.485	25822
826.625	25997
826.765	25966
826.904	25894
827.044	25628
827.183	25590
827.323	25457
827.462	25502
827.601	25571
827.741	25396
827.88	25449
828.02	25400
828.159	25396
828.298	25438
828.437	25635
828.577	25346
828.716	25567
828.855	25449
828.994	25240
829.134	25202
829.273	25202
829.412	25187
829.551	25107
829.69	25042
829.829	25225
829.968	25225
830.107	25320
830.246	25293
830.385	25061
830.524	25012
830.663	24981
830.802	24844
830.941	24673
831.08	24627
831.219	24787
831.357	24730
831.496	25057
831.635	24635
831.774	24635
831.913	24551
832.051	24456
832.19	24513
832.329	24471
832.467	24464
832.606	24486
832.744	24422
832.883	24509
833.022	24426
833.16	24456
833.299	24627
833.437	24757
833.576	24719
833.714	24684
833.852	24817
833.991	24935
834.129	25046
834.267	24992
834.406	24924
834.544	24981
834.682	24844
834.821	24661
834.959	24916
835.097	24505
835.235	24623
835.373	24661
835.511	24407
835.65	24342
835.788	24372
835.926	24114
836.064	24011
836.202	24163
836.34	24178
836.478	24220
836.615	24095
836.753	24201
836.891	24266
837.029	24243
837.167	24049
837.305	24026
837.443	23973
837.58	23958
837.718	24087
837.856	24148
837.993	23889
838.131	23969
838.269	23828
838.406	23737
838.544	23733
838.681	23627
838.819	23501
838.956	23444
839.094	23421
839.231	23478
839.369	23573
839.506	23745
839.643	23585
839.781	23345
839.918	23280
840.055	23345
840.193	23258
840.33	23303
840.467	23269
840.604	23299
840.742	23509
840.879	23117
841.016	23136
841.153	23178
841.29	23376
841.427	23315
841.564	23330
841.701	23193
841.838	23231
841.975	23022
842.112	23037
842.249	23075
842.385	22976
842.522	23250
842.659	23037
842.796	22987
842.933	22957
843.069	22896
843.206	22896
843.343	23086
843.479	23037
843.616	23147
843.752	22797
843.889	22911
844.025	23113
844.162	22911
844.298	23140
844.435	23006
844.571	23083
844.708	23181
844.844	23535
844.98	23668
845.117	23992
845.253	24380
845.389	25118
845.525	26629
845.661	29315
845.798	32507
845.934	35166
846.07	36220
846.206	35668
846.342	33641
846.478	30209
846.614	27329
846.75	25464
846.886	24190
847.022	23604
847.158	23204
847.294	22927
847.429	22862
847.565	22622
847.701	22687
847.837	22223
847.972	22101
848.108	22219
848.244	22086
848.379	21880
848.515	21903
848.65	21960
848.786	21861
848.921	21812
849.057	21827
849.192	21789
849.328	21732
849.463	21800
849.598	21660
849.734	21564
849.869	21587
850.004	21568
850.14	21367
850.275	21583
850.41	21374
850.545	21447
850.68	21313
850.815	21572
850.95	21466
851.085	21679
851.22	21549
851.355	21549
851.49	21450
851.625	21462
851.76	21363
851.895	21374
852.03	21500
852.165	21420
852.299	21443
852.434	21507
852.569	21545
852.703	21469
852.838	21644
852.973	21515
853.107	21614
853.242	21424
853.376	21359
853.511	21180
853.645	21382
853.78	21439
853.914	21405
854.048	21447
854.183	21393
854.317	21515
854.451	21587
854.585	21378
854.72	21370
854.854	21439
854.988	21416
855.122	21310
855.256	21161
855.39	21332
855.524	21408
855.658	21424
855.792	21336
855.926	21336
856.06	21294
856.194	21279
856.327	21279
856.461	21096
856.595	21256
856.729	21245
856.862	21374
856.996	21237
857.13	21233
857.263	21386
857.397	21321
857.53	21154
857.664	21252
857.797	21275
857.931	21268
858.064	21214
858.197	21321
858.331	21180
858.464	20960
858.597	21123
858.731	21024
858.864	21138
858.997	21157
859.13	21157
859.263	21184
859.396	21264
859.529	21055
859.662	21100
859.795	21116
859.928	21017
860.061	21260
860.194	21268
860.327	21150
860.46	21062
860.592	21138
860.725	21245
860.858	21298
860.99	21199
861.123	20971
861.256	21070
861.388	21070
861.521	21831
861.653	20967
861.786	20891
861.918	21051
862.05	21066
862.183	21199
862.315	21096
862.447	21173
862.58	21089
862.712	20899
862.844	20861
862.976	20864
863.108	20857
863.24	21161
863.372	20861
863.504	20735
863.636	20773
863.768	20758
863.9	20701
864.032	20750
864.164	20773
864.296	20727
864.428	20925
864.559	20868
864.691	20861
864.823	20724
864.954	20777
865.086	20724
865.217	20716
865.349	20651
865.48	20617
865.612	20670
865.743	20762
865.875	20743
866.006	20743
866.137	20689
866.269	20663
866.4	20598
866.531	20541
866.662	20583
866.793	20575
866.924	20670
867.055	20648
867.186	20518
867.317	20492
867.448	20522
867.579	20575
867.71	20499
867.841	20613
867.972	20640
868.103	20621
868.233	20667
868.364	20522
868.495	20724
868.625	20937
868.756	20883
868.886	20686
869.017	20804
869.147	20880
869.278	20986
869.408	20910
869.539	20887
869.669	20948
869.799	20880
869.929	20906
870.06	20971
870.19	21062
870.32	21081
870.45	21180
870.58	21241
870.71	21439
870.84	21325
870.97	21355
871.1	21439
871.23	21412
871.36	21507
871.489	21370
871.619	21416
871.749	21477
871.879	21591
872.008	21618
872.138	21443
872.267	21610
872.397	21378
872.526	21405
872.656	21359
872.785	21401
872.915	21557
873.044	21736
873.173	21542
873.303	21595
873.432	21572
873.561	21789
873.69	21633
873.819	21686
873.948	21793
874.077	21698
874.206	21606
874.335	21736
874.464	21728
874.593	21812
874.722	21884
874.851	22059
874.979	22211
875.108	22101
875.237	22051
875.365	21941
875.494	22101
875.623	22188
875.751	22120
875.88	22128
876.008	22325
876.136	22402
876.265	22531
876.393	22793
876.521	22634
876.65	22672
876.778	22725
876.906	22675
877.034	22698
877.162	22778
877.29	22729
877.418	22824
877.546	22828
877.674	22843
877.802	22999
877.93	22972
878.058	23162
878.185	23037
878.313	23216
878.441	23471
878.568	23448
878.696	23863
878.824	24315
878.951	24745
879.079	25479
879.206	26686
879.333	27625
879.461	28329
879.588	28957
879.715	29140
879.842	28580
879.97	27648
880.097	26453
880.224	25597
880.351	25194
880.478	24722
880.605	24574
880.732	24205
880.859	24429
880.986	24076
881.112	23920
881.239	23790
881.366	23733
881.493	23562
881.619	23577
881.746	23543
881.872	23558
881.999	23646
882.125	23478
882.252	23699
882.378	23748
882.505	23710
882.631	23524
882.757	23440
882.883	23474
883.01	23433
883.136	23417
883.262	23280
883.388	23166
883.514	23474
883.64	23299
883.766	23391
883.892	23220
884.018	23162
884.143	23391
884.269	23463
884.395	23151
884.52	23033
884.646	23090
884.772	23140
884.897	22972
885.023	23098
885.148	23098
885.274	23322
885.399	23079
885.524	22934
885.65	22938
885.775	22824
885.9	22748
886.025	22774
886.15	22649
886.275	22470
886.4	22440
886.525	22333
886.65	22276
886.775	22268
886.9	22360
887.025	22402
887.149	22109
887.274	21960
887.399	21842
887.523	21728
887.648	21679
887.773	21637
887.897	21648
888.021	21831
888.146	21523
888.27	21728
888.395	21682
888.519	21515
888.643	21561
888.767	21443
888.891	21382
889.015	21241
889.139	21294
889.263	21283
889.387	21275
889.511	21351
889.635	21268
889.759	21074
889.883	21195
890.006	21055
890.13	21142
890.254	21043
890.377	20998
890.501	20834
890.624	20781
890.748	20842
890.871	20651
890.995	20545
891.118	20457
891.241	20575
891.364	20636
891.488	20708
891.611	20575
891.734	20450
891.857	20541
891.98	20454
892.103	20575
892.226	20530
892.349	20427
892.471	20248
892.594	20240
892.717	20400
892.839	20336
892.962	20309
893.085	20347
893.207	20218
893.33	20153
893.452	20187
893.575	20298
893.697	20191
893.819	20385
893.941	20381
894.064	20267
894.186	20081
894.308	20077
894.43	20343
894.552	20305
894.674	20206
894.796	20100
894.918	20142
895.04	20058
895.161	20248
895.283	20164
895.405	19967
895.526	19913
895.648	20050
895.769	20008
895.891	20088
896.012	20149
896.134	19974
896.255	20050
896.376	20024
896.498	20016
896.619	20054
896.74	20058
896.861	20103
896.982	20317
897.103	20568
897.224	20229
897.345	20168
897.466	20248
897.587	20206
897.708	20370
897.828	20263
897.949	20081
898.07	20020
898.19	20153
898.311	20271
898.431	20161
898.552	20218
898.672	20134
898.792	20180
898.913	20130
899.033	20092
899.153	20027
899.273	19940
899.393	19868
899.513	19898
899.633	19879
899.753	19890
899.873	19814
899.993	19837
900.113	19776
900.232	19807
900.352	19723
900.472	19731
900.591	19662
900.711	19639
900.83	19605
900.95	19753
901.069	19765
901.189	19575
901.308	19354
901.427	19362
901.546	19301
901.665	19198
901.784	19278
901.904	19160
902.023	19065
902.141	18878
902.26	18764
902.379	18875
902.498	18783
902.617	18639
902.735	18719
902.854	18715
902.973	18627
903.091	18369
903.21	18388
903.328	18479
903.446	18308
903.565	18152
903.683	18182
903.801	18125
903.919	18155
904.038	18102
904.156	17908
904.274	18045
904.392	17931
904.51	17859
904.627	17950
904.745	17927
904.863	17984
904.981	17649
905.098	17562
905.216	17558
905.334	17497
905.451	17577
905.569	17589
905.686	17558
905.803	17551
905.921	17296
906.038	17410
906.155	17345
906.272	17052
906.389	17159
906.506	17147
906.623	17140
906.74	16938
906.857	16908
906.974	16984
907.091	17018
907.208	17269
907.324	17113
907.441	16915
907.557	16831
907.674	16725
907.79	16706
907.907	16721
908.023	16767
908.139	16733
908.256	16615
908.372	16596
908.488	16630
908.604	16470
908.72	16367
908.836	16470
908.952	16363
909.068	16489
909.184	16455
909.3	16421
909.415	16447
909.531	16337
909.647	16211
909.762	16112
909.878	16207
909.993	16169
910.108	16158
910.224	15953
910.339	16181
910.454	15876
910.57	16017
910.685	15831
910.8	16063
910.915	16025
911.03	15869
911.145	15793
911.259	15720
911.374	15808
911.489	15694
911.604	15526
911.718	15378
911.833	15367
911.947	15351
912.062	15291
912.176	15348
912.291	15393
912.405	15488
912.519	15637
912.633	15622
912.748	15500
912.862	15431
912.976	15294
913.09	15176
913.204	15241
913.318	15264
913.431	15443
913.545	15332
913.659	15344
913.772	15104
913.886	15165
914	15112
914.113	15214
914.226	15199
914.34	15283
914.453	14948
914.566	15081
914.68	15116
914.793	14906
914.906	14800
915.019	14689
915.132	14625
915.245	14838
915.358	14701
915.47	14746
915.583	14743
915.696	14800
915.809	14826
915.921	14864
916.034	14648
916.146	14537
916.259	14560
916.371	14826
916.483	14648
916.595	14590
916.708	14613
916.82	14564
916.932	14575
917.044	14461
917.156	14583
917.268	14465
917.38	14465
917.491	14396
917.603	14324
917.715	14320
917.826	14530
917.938	14271
918.049	14214
918.161	14290
918.272	14423
918.384	14450
918.495	14305
918.606	14199
918.717	14035
918.828	14100
918.939	14126
919.05	14043
919.161	14027
919.272	13898
919.383	13883
919.494	14107
919.604	14301
919.715	14138
919.826	13974
919.936	14054
920.047	14119
920.157	14092
920.267	14221
920.378	14069
920.488	14008
920.598	14172
920.708	14301
920.818	14126
920.928	14225
921.038	14374
921.148	14256
921.258	14027
921.368	13970
921.477	13761
921.587	13776
921.697	13681
921.806	13788
921.916	13704
922.025	13411
922.134	13350
922.244	13388
922.353	13533
922.462	13339
922.571	13282
922.68	13088
922.789	13141
922.898	13053
923.007	12947
923.116	12970
923.224	12981
923.333	13012
923.442	12825
923.55	12916
923.659	12935
923.767	12935
923.876	12837
923.984	12928
924.092	12776
924.201	12817
924.309	12840
924.417	12791
924.525	12738
924.633	12783
924.741	13636
924.849	12593
924.956	12779
925.064	12490
925.172	12490
925.279	12521
925.387	12532
925.494	12528
925.602	12585
925.709	12407
925.816	12452
925.924	12460
926.031	12658
926.138	12467
926.245	12464
926.352	12399
926.459	12517
926.566	12448
926.673	12319
926.779	12270
926.886	12266
926.993	12155
927.099	12011
927.206	12041
927.312	12015
927.419	12045
927.525	11988
927.631	12072
927.737	12003
927.843	11961
927.95	11805
928.056	11893
928.162	11939
928.267	11863
928.373	12441
928.479	11950
928.585	11726
928.69	11916
928.796	11935
928.901	11756
929.007	11653
929.112	11767
929.218	11668
929.323	11627
929.428	11596
929.533	11646
929.638	11646
929.743	11653
929.848	11642
929.953	11543
930.058	11463
930.163	11326
930.267	11341
930.372	11383
930.477	11254
930.581	11440
930.685	11307
930.79	11155
930.894	11231
930.998	11128
931.103	11318
931.207	10873
931.311	10843
931.415	10759
931.519	10592
931.623	10527
