Data from test_V78500241_368.txt Node
Date: Fri Mar 25 14:36:17 CST 2022
User: usil
Spectrometer: V785-0024
Trigger mode: 0
Integration Time (sec): 4.000000E-1
Scans to average: 1
Nonlinearity correction enabled: false
Boxcar width: 0
Storing dark spectrum: false
XAxis mode: Wavelengths
Number of Pixels in Spectrum: 1024
>>>>>Begin Spectral Data<<<<<
801.071	26765
801.214	26906
801.356	26560
801.499	26393
801.641	26176
801.783	26130
801.926	26145
802.068	26092
802.211	26176
802.353	26081
802.496	25902
802.638	25852
802.78	25784
802.923	25852
803.065	25803
803.208	25757
803.35	25807
803.492	25746
803.635	25936
803.777	25788
803.919	25830
804.061	26145
804.204	25776
804.346	25765
804.488	25643
804.63	25746
804.773	25677
804.915	25685
805.057	26043
805.199	25715
805.341	25883
805.483	25966
805.626	25826
805.768	25704
805.91	25864
806.052	25849
806.194	25655
806.336	25879
806.478	25776
806.62	25784
806.762	25833
806.904	26065
807.046	26271
807.188	26016
807.33	26176
807.472	26339
807.614	26176
807.756	26221
807.898	26073
808.04	25966
808.182	25902
808.324	26073
808.465	26050
808.607	26134
808.749	26355
808.891	26503
809.033	26560
809.174	26465
809.316	26237
809.458	26256
809.6	26199
809.741	26347
809.883	26431
810.025	26598
810.166	26412
810.308	26419
810.45	26446
810.591	26488
810.733	26259
810.875	26271
811.016	26005
811.158	26103
811.299	26275
811.441	26202
811.582	26336
811.724	26081
811.865	26005
812.007	26065
812.148	26221
812.29	26153
812.431	26370
812.573	26385
812.714	26446
812.855	26560
812.997	26667
813.138	26868
813.279	26579
813.421	26659
813.562	26518
813.703	26533
813.845	26396
813.986	26103
814.127	25963
814.268	25715
814.41	25731
814.551	25647
814.692	25780
814.833	25765
814.974	25552
815.115	25521
815.256	25559
815.397	25635
815.539	25518
815.68	25499
815.821	25400
815.962	25331
816.103	25449
816.244	25263
816.385	25274
816.526	25103
816.666	24901
816.807	24795
816.948	24852
817.089	24886
817.23	24783
817.371	24890
817.512	24696
817.653	24821
817.793	24700
817.934	24779
818.075	24882
818.216	24840
818.356	24837
818.497	24681
818.638	24483
818.778	24467
818.919	24448
819.06	24566
819.2	24547
819.341	24738
819.481	24795
819.622	24760
819.762	24901
819.903	25114
820.043	24943
820.184	24878
820.324	24726
820.465	24871
820.605	24749
820.746	24654
820.886	24646
821.026	24620
821.167	24589
821.307	24779
821.447	24726
821.588	24719
821.728	24490
821.868	24144
822.008	24182
822.149	24167
822.289	24155
822.429	24015
822.569	23771
822.709	23821
822.849	23634
822.99	23649
823.13	23573
823.27	23474
823.41	23490
823.55	23326
823.69	23471
823.83	23425
823.97	23391
824.11	23220
824.25	23189
824.389	23079
824.529	23307
824.669	23250
824.809	23322
824.949	23181
825.089	23166
825.228	23239
825.368	23006
825.508	22953
825.648	23025
825.787	23109
825.927	22976
826.067	22961
826.206	22946
826.346	22927
826.485	23006
826.625	22877
826.765	23056
826.904	22953
827.044	22816
827.183	22672
827.323	22580
827.462	22645
827.601	22683
827.741	22634
827.88	22577
828.02	22504
828.159	22580
828.298	22687
828.437	22675
828.577	22554
828.716	22672
828.855	22557
828.994	22405
829.134	22333
829.273	22367
829.412	22280
829.551	22253
829.69	22211
829.829	22249
829.968	22352
830.107	22257
830.246	22322
830.385	22265
830.524	22162
830.663	22181
830.802	22074
830.941	21804
831.08	21911
831.219	21964
831.357	21865
831.496	22010
831.635	21876
831.774	21701
831.913	21759
832.051	21717
832.19	21595
832.329	21633
832.467	21477
832.606	21488
832.744	21485
832.883	21545
833.022	21644
833.16	21549
833.299	21416
833.437	21428
833.576	21534
833.714	21603
833.852	21534
833.991	21587
834.129	21595
834.267	21663
834.406	21561
834.544	21538
834.682	21641
834.821	21504
834.959	21690
835.097	21408
835.235	21614
835.373	21538
835.511	21553
835.65	21336
835.788	21378
835.926	21214
836.064	21332
836.202	21218
836.34	21355
836.478	21519
836.615	21279
836.753	21336
836.891	21389
837.029	21401
837.167	21355
837.305	21272
837.443	21226
837.58	21260
837.718	21359
837.856	21268
837.993	21108
838.131	21192
838.269	21077
838.406	21161
838.544	21112
838.681	20899
838.819	20963
838.956	20655
839.094	20541
839.231	20796
839.369	20800
839.506	21032
839.643	20963
839.781	20743
839.918	20583
840.055	20743
840.193	20636
840.33	20552
840.467	20621
840.604	20682
840.742	20788
840.879	20473
841.016	20423
841.153	20499
841.29	20762
841.427	20583
841.564	20533
841.701	20514
841.838	20571
841.975	20358
842.112	20450
842.249	20427
842.385	20362
842.522	20568
842.659	20271
842.796	20267
842.933	20381
843.069	20214
843.206	20271
843.343	20313
843.479	20336
843.616	20214
843.752	20122
843.889	20088
844.025	20210
844.162	20073
844.298	20180
844.435	20107
844.571	20012
844.708	20195
844.844	20252
844.98	20122
845.117	20199
845.253	19997
845.389	19970
845.525	19921
845.661	20027
845.798	19864
845.934	19890
846.07	19753
846.206	19967
846.342	19978
846.478	19887
846.614	19670
846.75	19476
846.886	19438
847.022	19647
847.158	19544
847.294	19491
847.429	19544
847.565	19464
847.701	19635
847.837	19278
847.972	19202
848.108	19278
848.244	19312
848.379	19190
848.515	19061
848.65	19042
848.786	19152
848.921	19019
849.057	19187
849.192	19164
849.328	19126
849.463	19069
849.598	19110
849.734	18973
849.869	18985
850.004	18996
850.14	18909
850.275	18916
850.41	18776
850.545	18806
850.68	18875
850.815	18798
850.95	18814
851.085	19012
851.22	18905
851.355	18772
851.49	18665
851.625	18825
851.76	18829
851.895	18833
852.03	18738
852.165	18757
852.299	18875
852.434	18939
852.569	18913
852.703	18768
852.838	18795
852.973	19065
853.107	18920
853.242	18760
853.376	18734
853.511	18635
853.645	18566
853.78	18844
853.914	18559
854.048	18665
854.183	18616
854.317	18730
854.451	18730
854.585	18540
854.72	18627
854.854	18544
854.988	18563
855.122	18582
855.256	18490
855.39	18650
855.524	18726
855.658	18730
855.792	18650
855.926	18764
856.06	18684
856.194	18661
856.327	18654
856.461	18608
856.595	18525
856.729	18517
856.862	18863
856.996	18635
857.13	18681
857.263	18726
857.397	18722
857.53	18601
857.664	18650
857.797	18711
857.931	18749
858.064	18563
858.197	18715
858.331	18547
858.464	18597
858.597	18456
858.731	18646
858.864	18471
858.997	18544
859.13	18650
859.263	18502
859.396	18601
859.529	18528
859.662	18517
859.795	18532
859.928	18448
860.061	18661
860.194	18833
860.327	18494
860.46	18506
860.592	18627
860.725	18783
860.858	18585
860.99	18597
861.123	18399
861.256	18517
861.388	18570
861.521	19339
861.653	18353
861.786	18395
861.918	18452
862.05	18589
862.183	18563
862.315	18566
862.447	18696
862.58	18623
862.712	18315
862.844	18395
862.976	18426
863.108	18429
863.24	18741
863.372	18327
863.504	18323
863.636	18319
863.768	18426
863.9	18281
864.032	18201
864.164	18247
864.296	18350
864.428	18528
864.559	18194
864.691	18289
864.823	18372
864.954	18254
865.086	18232
865.217	18197
865.349	18087
865.48	18247
865.612	18194
865.743	18391
865.875	18159
866.006	18209
866.137	18129
866.269	18201
866.4	18159
866.531	18228
866.662	18114
866.793	18163
866.924	18133
867.055	18144
867.186	18148
867.317	18041
867.448	18140
867.579	18148
867.71	18110
867.841	17988
867.972	18125
868.103	18106
868.233	18239
868.364	18174
868.495	18247
868.625	18429
868.756	18391
868.886	18330
869.017	18403
869.147	18456
869.278	18486
869.408	18426
869.539	18388
869.669	18418
869.799	18559
869.929	18437
870.06	18490
870.19	18715
870.32	18646
870.45	18730
870.58	18673
870.71	18943
870.84	18859
870.97	18738
871.1	18776
871.23	18875
871.36	18962
871.489	18749
871.619	18943
871.749	19034
871.879	19004
872.008	19110
872.138	19000
872.267	18924
872.397	18833
872.526	18768
872.656	18863
872.785	18772
872.915	19019
873.044	19000
873.173	19019
873.303	18951
873.432	18981
873.561	19107
873.69	19012
873.819	18985
873.948	19091
874.077	19145
874.206	19031
874.335	19072
874.464	19118
874.593	19285
874.722	19213
874.851	19403
874.979	19369
875.108	19384
875.237	19228
875.365	19232
875.494	19145
875.623	19339
875.751	19278
875.88	19263
876.008	19403
876.136	19480
876.265	19704
876.393	19784
876.521	19826
876.65	19776
876.778	19731
876.906	19670
877.034	19670
877.162	19548
877.29	19662
877.418	19559
877.546	19670
877.674	19647
877.802	19643
877.93	19715
878.058	19620
878.185	19616
878.313	19765
878.441	19651
878.568	19502
878.696	19712
878.824	19696
878.951	19811
879.079	19845
879.206	20012
879.333	19845
879.461	19772
879.588	19826
879.715	19791
879.842	19989
879.97	19723
880.097	19499
880.224	19460
880.351	19540
880.478	19510
880.605	19449
880.732	19472
880.859	19826
880.986	19544
881.112	19594
881.239	19335
881.366	19278
881.493	19217
881.619	19190
881.746	19103
881.872	19103
881.999	19099
882.125	19190
882.252	19129
882.378	19126
882.505	19232
882.631	18920
882.757	18913
882.883	18981
883.01	18985
883.136	18882
883.262	18783
883.388	18722
883.514	18817
883.64	19004
883.766	18825
883.892	18688
884.018	18772
884.143	18966
884.269	18920
884.395	18715
884.52	18414
884.646	18544
884.772	18555
884.897	18486
885.023	18688
885.148	18650
885.274	18715
885.399	18692
885.524	18521
885.65	18601
885.775	18547
885.9	18536
886.025	18726
886.15	18585
886.275	18582
886.4	18437
886.525	18479
886.65	18372
886.775	18483
886.9	18566
887.025	18749
887.149	18540
887.274	18418
887.399	18289
887.523	18289
887.648	18228
887.773	18243
887.897	18384
888.021	18346
888.146	18327
888.27	18391
888.395	18334
888.519	18319
888.643	18361
888.767	18334
888.891	18273
889.015	18133
889.139	18155
889.263	18022
889.387	18178
889.511	18357
889.635	18163
889.759	18178
889.883	18167
890.006	18182
890.13	18270
890.254	18083
890.377	18087
890.501	18003
890.624	17939
890.748	18003
890.871	17931
890.995	17691
891.118	17699
891.241	17726
891.364	17832
891.488	17958
891.611	17904
891.734	17832
891.857	17771
891.98	17874
892.103	17836
892.226	17733
892.349	17756
892.471	17524
892.594	17718
892.717	17604
892.839	17764
892.962	17695
893.085	17824
893.207	17695
893.33	17630
893.452	17627
893.575	17843
893.697	17840
893.819	17851
893.941	17889
894.064	17923
894.186	17756
894.308	17600
894.43	17843
894.552	17855
894.674	17855
894.796	17699
894.918	17794
895.04	17665
895.161	17817
895.283	17714
895.405	17748
895.526	17748
895.648	17748
895.769	17786
895.891	17836
896.012	17851
896.134	17824
896.255	17859
896.376	17756
896.498	17916
896.619	17935
896.74	17874
896.861	17999
896.982	18117
897.103	18361
897.224	18167
897.345	18110
897.466	17977
897.587	18053
897.708	18235
897.828	18091
897.949	18064
898.07	17942
898.19	18038
898.311	18125
898.431	18079
898.552	18098
898.672	18144
898.792	18258
898.913	18049
899.033	17885
899.153	17855
899.273	17805
899.393	17802
899.513	17847
899.633	17794
899.753	17866
899.873	17741
899.993	17843
900.113	17707
900.232	17828
900.352	17748
900.472	17684
900.591	17646
900.711	17623
900.83	17630
900.95	17786
901.069	17722
901.189	17516
901.308	17360
901.427	17322
901.546	17265
901.665	17227
901.784	17356
901.904	17212
902.023	17181
902.141	16896
902.26	16816
902.379	16812
902.498	16767
902.617	16736
902.735	16850
902.854	16820
902.973	16736
903.091	16523
903.21	16535
903.328	16462
903.446	16367
903.565	16394
903.683	16318
903.801	16147
903.919	16303
904.038	16276
904.156	16154
904.274	16162
904.392	16017
904.51	16036
904.627	16093
904.745	16101
904.863	16211
904.981	15835
905.098	15690
905.216	15663
905.334	15690
905.451	15793
905.569	15766
905.686	15835
905.803	15823
905.921	15564
906.038	15584
906.155	15591
906.272	15549
906.389	15454
906.506	15332
906.623	15283
906.74	15275
906.857	15119
906.974	15138
907.091	15359
907.208	15382
907.324	15359
907.441	15100
907.557	15142
907.674	14880
907.79	14967
907.907	14963
908.023	15024
908.139	14899
908.256	14921
908.372	14967
908.488	14883
908.604	14842
908.72	14564
908.836	14705
908.952	14731
909.068	14701
909.184	14743
909.3	14674
909.415	14636
909.531	14697
909.647	14362
909.762	14434
909.878	14320
909.993	14355
910.108	14370
910.224	14381
910.339	14377
910.454	14256
910.57	14237
910.685	14153
910.8	14427
910.915	14423
911.03	14309
911.145	14084
911.259	13993
911.374	14096
911.489	14027
911.604	13921
911.718	13818
911.833	13753
911.947	13655
912.062	13578
912.176	13837
912.291	13841
912.405	13693
912.519	13932
912.633	13967
912.748	13856
912.862	13624
912.976	13616
913.09	13419
913.204	13540
913.318	13628
913.431	13666
913.545	13750
913.659	13655
913.772	13624
913.886	13468
914	13441
914.113	13666
914.226	13594
914.34	13510
914.453	13445
914.566	13472
914.68	13324
914.793	13358
914.906	13095
915.019	13137
915.132	12993
915.245	13202
915.358	13183
915.47	13190
915.583	13156
915.696	13171
915.809	13285
915.921	13236
916.034	13042
916.146	13015
916.259	13019
916.371	13137
916.483	13061
916.595	13046
916.708	12909
916.82	12932
916.932	12935
917.044	13012
917.156	12977
917.268	12829
917.38	12806
917.491	12764
917.603	12867
917.715	12977
917.826	12951
917.938	12779
918.049	12791
918.161	12802
918.272	12943
918.384	12863
918.495	12875
918.606	12688
918.717	12578
918.828	12639
918.939	12684
919.05	12521
919.161	12662
919.272	12395
919.383	12506
919.494	12692
919.604	12859
919.715	12662
919.826	12521
919.936	12627
920.047	12692
920.157	12623
920.267	12829
920.378	12673
920.488	12559
920.598	12863
920.708	12897
920.818	12772
920.928	12715
921.038	12886
921.148	12924
921.258	12528
921.368	12517
921.477	12384
921.587	12327
921.697	12247
921.806	12388
921.916	12251
922.025	12098
922.134	12049
922.244	11923
922.353	12019
922.462	11885
922.571	11920
922.68	11710
922.789	11680
922.898	11764
923.007	11668
923.116	11680
923.224	11710
923.333	11600
923.442	11589
923.55	11490
923.659	11512
923.767	11642
923.876	11505
923.984	11566
924.092	11398
924.201	11547
924.309	11520
924.417	11535
924.525	11433
924.633	11417
924.741	12136
924.849	11280
924.956	11360
925.064	11258
925.172	11254
925.279	11185
925.387	11223
925.494	11280
925.602	11429
925.709	11254
925.816	11170
925.924	11178
926.031	11360
926.138	11231
926.245	11212
926.352	11124
926.459	11204
926.566	11239
926.673	11132
926.779	11037
926.886	11071
926.993	10862
927.099	10862
927.206	10790
927.312	10881
927.419	10850
927.525	10782
927.631	10835
927.737	10755
927.843	10687
927.95	10565
928.056	10706
928.162	10755
928.267	10725
928.373	11322
928.479	10809
928.585	10546
928.69	10664
928.796	10714
928.901	10599
929.007	10413
929.112	10603
929.218	10599
929.323	10481
929.428	10527
929.533	10565
929.638	10382
929.743	10436
929.848	10565
929.953	10436
930.058	10360
930.163	10162
930.267	10188
930.372	10322
930.477	10173
930.581	10398
930.685	10223
930.79	10082
930.894	10090
930.998	10017
931.103	10223
931.207	9888
931.311	9823
931.415	9774
931.519	9549
931.623	9519
