Data from test_V78500241_2208.txt Node
Date: Fri Mar 25 14:49:05 CST 2022
User: usil
Spectrometer: V785-0024
Trigger mode: 0
Integration Time (sec): 4.000000E-1
Scans to average: 1
Nonlinearity correction enabled: false
Boxcar width: 0
Storing dark spectrum: false
XAxis mode: Wavelengths
Number of Pixels in Spectrum: 1024
>>>>>Begin Spectral Data<<<<<
801.071	22280
801.214	22154
801.356	21724
801.499	21698
801.641	21686
801.783	21416
801.926	21526
802.068	21477
802.211	21363
802.353	21279
802.496	21081
802.638	20998
802.78	20910
802.923	20944
803.065	20796
803.208	20800
803.35	20830
803.492	20887
803.635	21058
803.777	20773
803.919	20918
804.061	21226
804.204	20998
804.346	20785
804.488	20735
804.63	20899
804.773	20701
804.915	20765
805.057	20895
805.199	20792
805.341	20804
805.483	20929
805.626	20910
805.768	20788
805.91	20815
806.052	20735
806.194	20670
806.336	20952
806.478	20781
806.62	20800
806.762	20823
806.904	20891
807.046	21169
807.188	21241
807.33	21154
807.472	21165
807.614	21077
807.756	21070
807.898	20861
808.04	20929
808.182	20762
808.324	20937
808.465	20994
808.607	21218
808.749	21317
808.891	21291
809.033	21458
809.174	21173
809.316	21135
809.458	21203
809.6	21142
809.741	21081
809.883	21207
810.025	21443
810.166	21435
810.308	21230
810.45	21264
810.591	21222
810.733	21096
810.875	21176
811.016	20948
811.158	20891
811.299	21070
811.441	21051
811.582	21047
811.724	20910
811.865	20811
812.007	20921
812.148	20864
812.29	20910
812.431	21055
812.573	21294
812.714	21367
812.855	21553
812.997	21542
813.138	21641
813.279	21477
813.421	21526
813.562	21294
813.703	21291
813.845	21119
813.986	20834
814.127	20731
814.268	20488
814.41	20526
814.551	20469
814.692	20602
814.833	20404
814.974	20355
815.115	20423
815.256	20298
815.397	20423
815.539	20328
815.68	20199
815.821	20172
815.962	20339
816.103	20191
816.244	20115
816.385	19944
816.526	19997
816.666	19788
816.807	19677
816.948	19776
817.089	19807
817.23	19696
817.371	19575
817.512	19594
817.653	19658
817.793	19624
817.934	19578
818.075	19575
818.216	19624
818.356	19567
818.497	19514
818.638	19304
818.778	19415
818.919	19247
819.06	19247
819.2	19483
819.341	19476
819.481	19476
819.622	19655
819.762	19986
819.903	19750
820.043	19609
820.184	19597
820.324	19605
820.465	19761
820.605	19651
820.746	19506
820.886	19350
821.026	19529
821.167	19544
821.307	19685
821.447	19571
821.588	19396
821.728	19396
821.868	19084
822.008	19038
822.149	19126
822.289	18981
822.429	18924
822.569	18696
822.709	18764
822.849	18418
822.99	18475
823.13	18452
823.27	18464
823.41	18384
823.55	18357
823.69	18315
823.83	18365
823.97	18273
824.11	18167
824.25	18110
824.389	18171
824.529	18213
824.669	18182
824.809	18239
824.949	18121
825.089	18167
825.228	18038
825.368	17901
825.508	17870
825.648	17912
825.787	17927
825.927	17885
826.067	17939
826.206	17771
826.346	17874
826.485	17984
826.625	17824
826.765	17973
826.904	17912
827.044	17646
827.183	17615
827.323	17547
827.462	17577
827.601	17551
827.741	17570
827.88	17566
828.02	17486
828.159	17524
828.298	17562
828.437	17687
828.577	17482
828.716	17680
828.855	17570
828.994	17353
829.134	17315
829.273	17402
829.412	17280
829.551	17261
829.69	17250
829.829	17280
829.968	17330
830.107	17421
830.246	17292
830.385	17151
830.524	17227
830.663	17124
830.802	16972
830.941	16965
831.08	16984
831.219	17022
831.357	16987
831.496	17128
831.635	16938
831.774	16809
831.913	16710
832.051	16729
832.19	16687
832.329	16801
832.467	16618
832.606	16569
832.744	16580
832.883	16588
833.022	16565
833.16	16577
833.299	16615
833.437	16630
833.576	16607
833.714	16618
833.852	16653
833.991	16672
834.129	16672
834.267	16694
834.406	16588
834.544	16763
834.682	16622
834.821	16577
834.959	16767
835.097	16561
835.235	16771
835.373	16721
835.511	16656
835.65	16535
835.788	16577
835.926	16417
836.064	16314
836.202	16322
836.34	16584
836.478	16607
836.615	16558
836.753	16615
836.891	16538
837.029	16683
837.167	16558
837.305	16398
837.443	16440
837.58	16421
837.718	16447
837.856	16409
837.993	16371
838.131	16455
838.269	16280
838.406	16443
838.544	16299
838.681	16150
838.819	16097
838.956	15903
839.094	15964
839.231	16029
839.369	16029
839.506	16348
839.643	16253
839.781	15979
839.918	15854
840.055	16090
840.193	15884
840.33	15880
840.467	15850
840.604	15960
840.742	16162
840.879	15884
841.016	15895
841.153	15835
841.29	16006
841.427	15934
841.564	15918
841.701	15945
841.838	15918
841.975	15926
842.112	15911
842.249	15720
842.385	15663
842.522	15854
842.659	15838
842.796	15717
842.933	15778
843.069	15701
843.206	15587
843.343	15778
843.479	15797
843.616	15705
843.752	15462
843.889	15439
844.025	15641
844.162	15526
844.298	15587
844.435	15488
844.571	15526
844.708	15633
844.844	15690
844.98	15603
845.117	15584
845.253	15538
845.389	15408
845.525	15401
845.661	15431
845.798	15260
845.934	15211
846.07	15287
846.206	15348
846.342	15416
846.478	15382
846.614	15131
846.75	15097
846.886	15123
847.022	15180
847.158	15104
847.294	14979
847.429	15116
847.565	15062
847.701	15275
847.837	14830
847.972	14765
848.108	14921
848.244	14872
848.379	14689
848.515	14716
848.65	14667
848.786	14693
848.921	14708
849.057	14838
849.192	14762
849.328	14743
849.463	14651
849.598	14697
849.734	14617
849.869	14473
850.004	14415
850.14	14438
850.275	14385
850.41	14290
850.545	14457
850.68	14339
850.815	14454
850.95	14518
851.085	14537
851.22	14522
851.355	14431
851.49	14358
851.625	14343
851.76	14362
851.895	14275
852.03	14423
852.165	14389
852.299	14434
852.434	14488
852.569	14583
852.703	14476
852.838	14385
852.973	14583
853.107	14568
853.242	14454
853.376	14332
853.511	14237
853.645	14259
853.78	14461
853.914	14366
854.048	14244
854.183	14301
854.317	14347
854.451	14514
854.585	14339
854.72	14187
854.854	14347
854.988	14347
855.122	14286
855.256	14157
855.39	14320
855.524	14431
855.658	14431
855.792	14286
855.926	14389
856.06	14275
856.194	14328
856.327	14347
856.461	14187
856.595	14290
856.729	14282
856.862	14377
856.996	14351
857.13	14351
857.263	14305
857.397	14427
857.53	14332
857.664	14396
857.797	14355
857.931	14339
858.064	14259
858.197	14454
858.331	14351
858.464	14183
858.597	14176
858.731	14271
858.864	14313
858.997	14256
859.13	14434
859.263	14282
859.396	14408
859.529	14328
859.662	14298
859.795	14229
859.928	14320
860.061	14495
860.194	14454
860.327	14328
860.46	14294
860.592	14404
860.725	14473
860.858	14393
860.99	14347
861.123	14248
861.256	14221
861.388	14400
861.521	14891
861.653	14172
861.786	14237
861.918	14267
862.05	14176
862.183	14248
862.315	14267
862.447	14370
862.58	14263
862.712	14027
862.844	13970
862.976	14183
863.108	14054
863.24	14476
863.372	14001
863.504	14069
863.636	14084
863.768	14191
863.9	14153
864.032	14073
864.164	14035
864.296	14210
864.428	14153
864.559	14119
864.691	14138
864.823	14233
864.954	14130
865.086	14149
865.217	14043
865.349	13986
865.48	14138
865.612	14119
865.743	14145
865.875	14088
866.006	14039
866.137	14123
866.269	14069
866.4	14001
866.531	14100
866.662	13894
866.793	14008
866.924	14005
867.055	14081
867.186	14081
867.317	13947
867.448	13947
867.579	14016
867.71	13909
867.841	14001
867.972	14081
868.103	14073
868.233	14058
868.364	14077
868.495	14206
868.625	14301
868.756	14415
868.886	14214
869.017	14324
869.147	14415
869.278	14419
869.408	14301
869.539	14286
869.669	14438
869.799	14347
869.929	14438
870.06	14427
870.19	14625
870.32	14610
870.45	14689
870.58	14727
870.71	14796
870.84	14849
870.97	14788
871.1	14659
871.23	15024
871.36	14914
871.489	14746
871.619	14834
871.749	14864
871.879	14971
872.008	15070
872.138	14895
872.267	14880
872.397	14712
872.526	14754
872.656	14788
872.785	14857
872.915	14933
873.044	14902
873.173	14925
873.303	15013
873.432	14990
873.561	15157
873.69	15017
873.819	15020
873.948	15028
874.077	14960
874.206	14876
874.335	15036
874.464	15188
874.593	15241
874.722	15184
874.851	15389
874.979	15294
875.108	15348
875.237	15214
875.365	15218
875.494	15283
875.623	15439
875.751	15237
875.88	15332
876.008	15336
876.136	15473
876.265	15679
876.393	15759
876.521	15770
876.65	15804
876.778	15766
876.906	15622
877.034	15641
877.162	15572
877.29	15614
877.418	15720
877.546	15622
877.674	15694
877.802	15751
877.93	15629
878.058	15705
878.185	15603
878.313	15770
878.441	15675
878.568	15523
878.696	15637
878.824	15732
878.951	15884
879.079	15808
879.206	15994
879.333	15903
879.461	15743
879.588	15835
879.715	15888
879.842	15880
879.97	15781
880.097	15572
880.224	15530
880.351	15587
880.478	15443
880.605	15485
880.732	15576
880.859	15850
880.986	15561
881.112	15599
881.239	15466
881.366	15382
881.493	15275
881.619	15184
881.746	15214
881.872	15203
881.999	15180
882.125	15135
882.252	15252
882.378	15233
882.505	15393
882.631	15241
882.757	14952
882.883	14948
883.01	14948
883.136	14910
883.262	14960
883.388	14876
883.514	15074
883.64	15058
883.766	15013
883.892	14800
884.018	14864
884.143	15135
884.269	15001
884.395	14811
884.52	14667
884.646	14754
884.772	14655
884.897	14667
885.023	14876
885.148	14830
885.274	14952
885.399	14891
885.524	14811
885.65	14739
885.775	14785
885.9	14762
886.025	14807
886.15	14838
886.275	14689
886.4	14705
886.525	14663
886.65	14590
886.775	14560
886.9	14910
887.025	14944
887.149	14815
887.274	14556
887.399	14507
887.523	14404
887.648	14480
887.773	14469
887.897	14785
888.021	14659
888.146	14484
888.27	14670
888.395	14693
888.519	14571
888.643	14594
888.767	14705
888.891	14442
889.015	14465
889.139	14518
889.263	14495
889.387	14404
889.511	14579
889.635	14438
889.759	14355
889.883	14503
890.006	14495
890.13	14526
890.254	14328
890.377	14431
890.501	14183
890.624	14214
890.748	14366
890.871	14138
890.995	14054
891.118	14001
891.241	14126
891.364	14107
891.488	14225
891.611	14008
891.734	14168
891.857	14157
891.98	14115
892.103	14107
892.226	14119
892.349	14187
892.471	13955
892.594	14115
892.717	14119
892.839	14107
892.962	14073
893.085	14221
893.207	14065
893.33	13986
893.452	14115
893.575	14107
893.697	14164
893.819	14286
893.941	14351
894.064	14240
894.186	14035
894.308	13951
894.43	14244
894.552	14408
894.674	14343
894.796	14168
894.918	14149
895.04	14111
895.161	14324
895.283	14191
895.405	14183
895.526	14191
895.648	14237
895.769	14339
895.891	14256
896.012	14362
896.134	14309
896.255	14317
896.376	14298
896.498	14271
896.619	14267
896.74	14298
896.861	14233
896.982	14556
897.103	14804
897.224	14606
897.345	14636
897.466	14492
897.587	14518
897.708	14667
897.828	14583
897.949	14511
898.07	14503
898.19	14537
898.311	14781
898.431	14583
898.552	14644
898.672	14636
898.792	14686
898.913	14617
899.033	14590
899.153	14537
899.273	14408
899.393	14476
899.513	14484
899.633	14556
899.753	14530
899.873	14511
899.993	14499
900.113	14454
900.232	14415
900.352	14518
900.472	14317
900.591	14324
900.711	14320
900.83	14381
900.95	14347
901.069	14473
901.189	14256
901.308	14123
901.427	13993
901.546	13974
901.665	14142
901.784	13974
901.904	14005
902.023	13788
902.141	13734
902.26	13658
902.379	13674
902.498	13677
902.617	13525
902.735	13647
902.854	13563
902.973	13552
903.091	13430
903.21	13369
903.328	13297
903.446	13263
903.565	13141
903.683	13149
903.801	13114
903.919	13202
904.038	13137
904.156	13057
904.274	13008
904.392	12962
904.51	13095
904.627	12993
904.745	13027
904.863	13160
904.981	12821
905.098	12768
905.216	12669
905.334	12795
905.451	12715
905.569	12669
905.686	12665
905.803	12688
905.921	12525
906.038	12623
906.155	12528
906.272	12353
906.389	12460
906.506	12289
906.623	12220
906.74	12289
906.857	12197
906.974	12220
907.091	12319
907.208	12365
907.324	12357
907.441	12209
907.557	11961
907.674	11958
907.79	11916
907.907	11904
908.023	12007
908.139	12038
908.256	11939
908.372	12003
908.488	11874
908.604	11863
908.72	11786
908.836	11794
908.952	11771
909.068	11786
909.184	11771
909.3	11832
909.415	11756
909.531	11752
909.647	11573
909.762	11600
909.878	11551
909.993	11604
910.108	11524
910.224	11421
910.339	11493
910.454	11398
910.57	11341
910.685	11318
910.8	11672
910.915	11558
911.03	11455
911.145	11216
911.259	11170
911.374	11223
911.489	11235
911.604	11090
911.718	10980
911.833	11064
911.947	10854
912.062	10744
912.176	11056
912.291	11029
912.405	11033
912.519	11220
912.633	11246
912.748	11113
912.862	11006
912.976	10900
913.09	10774
913.204	10763
913.318	10889
913.431	10980
913.545	10972
913.659	10930
913.772	10824
913.886	10767
914	10698
914.113	10835
914.226	10904
914.34	10812
914.453	10725
914.566	10908
914.68	10626
914.793	10714
914.906	10535
915.019	10417
915.132	10474
915.245	10470
915.358	10481
915.47	10489
915.583	10580
915.696	10577
915.809	10653
915.921	10637
916.034	10413
916.146	10531
916.259	10382
916.371	10508
916.483	10527
916.595	10428
916.708	10394
916.82	10497
916.932	10447
917.044	10470
917.156	10447
917.268	10352
917.38	10268
917.491	10329
917.603	10303
917.715	10382
917.826	10447
917.938	10261
918.049	10169
918.161	10333
918.272	10481
918.384	10546
918.495	10299
918.606	10223
918.717	10181
918.828	10265
918.939	10223
919.05	10162
919.161	10192
919.272	10017
919.383	10059
919.494	10249
919.604	10398
919.715	10268
919.826	10112
919.936	10150
920.047	10272
920.157	10299
920.267	10409
920.378	10234
920.488	10211
920.598	10459
920.708	10504
920.818	10386
920.928	10432
921.038	10626
921.148	10558
921.258	10230
921.368	10204
921.477	10051
921.587	9960
921.697	9994
921.806	10063
921.916	10036
922.025	9781
922.134	9789
922.244	9736
922.353	9797
922.462	9713
922.571	9564
922.68	9492
922.789	9439
922.898	9458
923.007	9416
923.116	9538
923.224	9496
923.333	9443
923.442	9405
923.55	9359
923.659	9374
923.767	9344
923.876	9317
923.984	9477
924.092	9310
924.201	9306
924.309	9378
924.417	9329
924.525	9260
924.633	9359
924.741	10162
924.849	9123
924.956	9306
925.064	9081
925.172	9108
925.279	9089
925.387	9199
925.494	9074
925.602	9272
925.709	9222
925.816	9127
925.924	9161
926.031	9264
926.138	9157
926.245	9195
926.352	9070
926.459	9195
926.566	9211
926.673	9108
926.779	9039
926.886	9005
926.993	8788
927.099	8887
927.206	8857
927.312	8891
927.419	8941
927.525	8967
927.631	8933
927.737	8762
927.843	8724
927.95	8659
928.056	8762
928.162	8762
928.267	8758
928.373	9420
928.479	8891
928.585	8659
928.69	8781
928.796	8781
928.901	8587
929.007	8499
929.112	8682
929.218	8587
929.323	8514
929.428	8541
929.533	8697
929.638	8480
929.743	8492
929.848	8598
929.953	8583
930.058	8480
930.163	8438
930.267	8336
930.372	8499
930.477	8263
930.581	8473
930.685	8438
930.79	8233
930.894	8328
930.998	8221
931.103	8419
931.207	8058
931.311	7989
931.415	7963
931.519	7731
931.623	7788
