Data from test_V78500241_593.txt Node
Date: Fri Mar 25 14:37:50 CST 2022
User: usil
Spectrometer: V785-0024
Trigger mode: 0
Integration Time (sec): 4.000000E-1
Scans to average: 1
Nonlinearity correction enabled: false
Boxcar width: 0
Storing dark spectrum: false
XAxis mode: Wavelengths
Number of Pixels in Spectrum: 1024
>>>>>Begin Spectral Data<<<<<
801.071	27827
801.214	27888
801.356	27671
801.499	27488
801.641	27386
801.783	27218
801.926	27435
802.068	27313
802.211	27173
802.353	27138
802.496	26785
802.638	26762
802.78	26868
802.923	26815
803.065	26648
803.208	26765
803.35	26826
803.492	26876
803.635	27051
803.777	26823
803.919	26937
804.061	27275
804.204	27013
804.346	27005
804.488	26971
804.63	27135
804.773	26971
804.915	27077
805.057	27207
805.199	27157
805.341	27252
805.483	27370
805.626	27344
805.768	27351
805.91	27226
806.052	27526
806.194	27447
806.336	27857
806.478	27804
806.62	27960
806.762	28002
806.904	28440
807.046	28904
807.188	29132
807.33	29292
807.472	29783
807.614	30197
807.756	30844
807.898	31266
808.04	32366
808.182	33778
808.324	35554
808.465	37415
808.607	39709
808.749	41608
808.891	42547
809.033	42817
809.174	41493
809.316	39705
809.458	37415
809.6	35132
809.741	33492
809.883	32233
810.025	31190
810.166	30612
810.308	29817
810.45	29364
810.591	29071
810.733	28828
810.875	28603
811.016	28268
811.158	28006
811.299	27956
811.441	28112
811.582	27998
811.724	27671
811.865	27652
812.007	27492
812.148	27633
812.29	27603
812.431	27682
812.573	27720
812.714	27797
812.855	27816
812.997	28002
813.138	28006
813.279	27987
813.421	27698
813.562	27694
813.703	27564
813.845	27348
813.986	27036
814.127	26796
814.268	26644
814.41	26743
814.551	26617
814.692	26659
814.833	26533
814.974	26541
815.115	26488
815.256	26457
815.397	26434
815.539	26347
815.68	26389
815.821	26282
815.962	26256
816.103	26084
816.244	26043
816.385	25959
816.526	25883
816.666	25719
816.807	25510
816.948	25597
817.089	25666
817.23	25533
817.371	25514
817.512	25521
817.653	25479
817.793	25556
817.934	25369
818.075	25559
818.216	25499
818.356	25343
818.497	25358
818.638	25133
818.778	25213
818.919	25183
819.06	25217
819.2	25369
819.341	25335
819.481	25400
819.622	25502
819.762	25685
819.903	25635
820.043	25632
820.184	25628
820.324	25525
820.465	25639
820.605	25514
820.746	25419
820.886	25133
821.026	25247
821.167	25350
821.307	25316
821.447	25225
821.588	25152
821.728	25084
821.868	24821
822.008	24711
822.149	24658
822.289	24745
822.429	24407
822.569	24304
822.709	24308
822.849	24114
822.99	24209
823.13	24186
823.27	24003
823.41	23973
823.55	23748
823.69	23885
823.83	23855
823.97	23733
824.11	23649
824.25	23535
824.389	23608
824.529	23756
824.669	23657
824.809	23748
824.949	23726
825.089	23764
825.228	23558
825.368	23486
825.508	23417
825.648	23364
825.787	23493
825.927	23417
826.067	23455
826.206	23395
826.346	23402
826.485	23539
826.625	23383
826.765	23528
826.904	23429
827.044	23258
827.183	23083
827.323	23060
827.462	23075
827.601	23018
827.741	23052
827.88	23220
828.02	22858
828.159	22938
828.298	23113
828.437	23113
828.577	23067
828.716	23128
828.855	22942
828.994	22782
829.134	22725
829.273	22873
829.412	22672
829.551	22649
829.69	22653
829.829	22664
829.968	22809
830.107	22805
830.246	22755
830.385	22717
830.524	22417
830.663	22512
830.802	22474
830.941	22402
831.08	22363
831.219	22451
831.357	22447
831.496	22546
831.635	22299
831.774	22348
831.913	22230
832.051	22112
832.19	22090
832.329	22200
832.467	22017
832.606	22048
832.744	22120
832.883	22211
833.022	22078
833.16	22284
833.299	22325
833.437	22356
833.576	22451
833.714	22607
833.852	22748
833.991	22847
834.129	22828
834.267	22748
834.406	22828
834.544	22767
834.682	22698
834.821	22588
834.959	22679
835.097	22367
835.235	22398
835.373	22310
835.511	22185
835.65	22017
835.788	21956
835.926	21884
836.064	21705
836.202	21800
836.34	21854
836.478	22036
836.615	21892
836.753	21869
836.891	21937
837.029	21930
837.167	21759
837.305	21774
837.443	21709
837.58	21713
837.718	21770
837.856	21587
837.993	21545
838.131	21603
838.269	21526
838.406	21591
838.544	21408
838.681	21378
838.819	21287
838.956	21028
839.094	21096
839.231	21165
839.369	21188
839.506	21401
839.643	21298
839.781	21062
839.918	21093
840.055	21108
840.193	21047
840.33	20963
840.467	20960
840.604	20998
840.742	21188
840.879	20849
841.016	20998
841.153	20826
841.29	21066
841.427	20910
841.564	21089
841.701	21005
841.838	20982
841.975	20914
842.112	20906
842.249	20838
842.385	20746
842.522	20921
842.659	20876
842.796	20750
842.933	20834
843.069	20701
843.206	20773
843.343	20944
843.479	20925
843.616	20849
843.752	20583
843.889	20872
844.025	20891
844.162	20800
844.298	20910
844.435	21093
844.571	21146
844.708	21291
844.844	21564
844.98	21800
845.117	22188
845.253	22904
845.389	24007
845.525	26142
845.661	29882
845.798	34253
845.934	37936
846.07	39344
846.206	38545
846.342	35490
846.478	31164
846.614	27081
846.75	24407
846.886	22957
847.022	21975
847.158	21412
847.294	21051
847.429	20682
847.565	20602
847.701	20602
847.837	20069
847.972	19925
848.108	20084
848.244	20020
848.379	19791
848.515	19586
848.65	19655
848.786	19662
848.921	19677
849.057	19738
849.192	19655
849.328	19715
849.463	19666
849.598	19582
849.734	19487
849.869	19453
850.004	19407
850.14	19320
850.275	19381
850.41	19209
850.545	19312
850.68	19285
850.815	19316
850.95	19335
851.085	19563
851.22	19373
851.355	19270
851.49	19206
851.625	19266
851.76	19346
851.895	19308
852.03	19232
852.165	19244
852.299	19312
852.434	19400
852.569	19297
852.703	19377
852.838	19460
852.973	19491
853.107	19499
853.242	19304
853.376	19255
853.511	19114
853.645	19213
853.78	19430
853.914	19282
854.048	19331
854.183	19381
854.317	19354
854.451	19639
854.585	19400
854.72	19304
854.854	19373
854.988	19209
855.122	19255
855.256	19240
855.39	19335
855.524	19339
855.658	19278
855.792	19285
855.926	19335
856.06	19198
856.194	19202
856.327	19137
856.461	19187
856.595	19107
856.729	19103
856.862	19202
856.996	19209
857.13	19107
857.263	19118
857.397	19266
857.53	18981
857.664	19126
857.797	19114
857.931	19209
858.064	19213
858.197	19274
858.331	19179
858.464	19034
858.597	18970
858.731	18985
858.864	19038
858.997	18977
859.13	18996
859.263	19008
859.396	19148
859.529	18928
859.662	19042
859.795	18905
859.928	18905
860.061	19034
860.194	19168
860.327	19095
860.46	19031
860.592	19019
860.725	19164
860.858	19190
860.99	18943
861.123	18817
861.256	18825
861.388	18977
861.521	19605
861.653	18859
861.786	18814
861.918	18928
862.05	18977
862.183	18951
862.315	18932
862.447	19076
862.58	18905
862.712	18688
862.844	18665
862.976	18726
863.108	18760
863.24	19031
863.372	18528
863.504	18566
863.636	18646
863.768	18757
863.9	18635
864.032	18578
864.164	18551
864.296	18711
864.428	18741
864.559	18601
864.691	18795
864.823	18688
864.954	18608
865.086	18726
865.217	18559
865.349	18597
865.48	18536
865.612	18593
865.743	18677
865.875	18582
866.006	18608
866.137	18574
866.269	18547
866.4	18593
866.531	18547
866.662	18502
866.793	18574
866.924	18593
867.055	18646
867.186	18506
867.317	18441
867.448	18441
867.579	18578
867.71	18521
867.841	18399
867.972	18494
868.103	18563
868.233	18597
868.364	18547
868.495	18696
868.625	18681
868.756	18897
868.886	18631
869.017	18779
869.147	18867
869.278	18833
869.408	18772
869.539	18837
869.669	18935
869.799	18814
869.929	19004
870.06	18905
870.19	19145
870.32	19050
870.45	19221
870.58	19373
870.71	19278
870.84	19304
870.97	19247
871.1	19171
871.23	19403
871.36	19419
871.489	19350
871.619	19358
871.749	19480
871.879	19540
872.008	19624
872.138	19453
872.267	19422
872.397	19365
872.526	19362
872.656	19400
872.785	19400
872.915	19567
873.044	19601
873.173	19491
873.303	19658
873.432	19620
873.561	19731
873.69	19647
873.819	19613
873.948	19765
874.077	19734
874.206	19670
874.335	19727
874.464	19898
874.593	20016
874.722	20020
874.851	20039
874.979	20278
875.108	20172
875.237	20065
875.365	20031
875.494	20138
875.623	20298
875.751	20248
875.88	20256
876.008	20450
876.136	20484
876.265	20632
876.393	20921
876.521	20910
876.65	21089
876.778	20929
876.906	20796
877.034	20883
877.162	20914
877.29	20880
877.418	21001
877.546	21150
877.674	21249
877.802	21218
877.93	21359
878.058	21492
878.185	21466
878.313	21743
878.441	22017
878.568	21987
878.696	22481
878.824	23098
878.951	23889
879.079	24894
879.206	26240
879.333	27595
879.461	28881
879.588	29608
879.715	29505
879.842	29124
879.97	27831
880.097	26305
880.224	25122
880.351	24441
880.478	23840
880.605	23391
880.732	23185
880.859	23151
880.986	22915
881.112	22885
881.239	22634
881.366	22493
881.493	22402
881.619	22215
881.746	22375
881.872	22295
881.999	22360
882.125	22402
882.252	22531
882.378	22527
882.505	22660
882.631	22561
882.757	22360
882.883	22299
883.01	22291
883.136	22246
883.262	22177
883.388	22192
883.514	22295
883.64	22284
883.766	22211
883.892	22055
884.018	22067
884.143	22303
884.269	22314
884.395	22059
884.52	21983
884.646	21937
884.772	21983
884.897	21903
885.023	21915
885.148	22131
885.274	22025
885.399	21972
885.524	21774
885.65	21717
885.775	21724
885.9	21614
886.025	21629
886.15	21454
886.275	21245
886.4	21096
886.525	21051
886.65	20929
886.775	20861
886.9	20944
887.025	20971
887.149	20735
887.274	20571
887.399	20412
887.523	20389
887.648	20290
887.773	20164
887.897	20298
888.021	20305
888.146	20153
888.27	20176
888.395	20065
888.519	20176
888.643	20043
888.767	19944
888.891	19826
889.015	19750
889.139	19890
889.263	19719
889.387	19833
889.511	19845
889.635	19708
889.759	19537
889.883	19537
890.006	19514
890.13	19616
890.254	19499
890.377	19426
890.501	19304
890.624	19133
890.748	19331
890.871	19240
890.995	19038
891.118	18901
891.241	18966
891.364	19019
891.488	19015
891.611	18886
891.734	18905
891.857	18909
891.98	18844
892.103	18871
892.226	18806
892.349	18764
892.471	18719
892.594	18719
892.717	18684
892.839	18642
892.962	18707
893.085	18833
893.207	18642
893.33	18623
893.452	18536
893.575	18563
893.697	18483
893.819	18726
893.941	18715
894.064	18665
894.186	18433
894.308	18403
894.43	18547
894.552	18658
894.674	18475
894.796	18350
894.918	18418
895.04	18441
895.161	18441
895.283	18502
895.405	18384
895.526	18334
895.648	18361
895.769	18323
895.891	18315
896.012	18433
896.134	18403
896.255	18414
896.376	18243
896.498	18338
896.619	18342
896.74	18372
896.861	18414
896.982	18783
897.103	18738
897.224	18601
897.345	18509
897.466	18639
897.587	18517
897.708	18612
897.828	18612
897.949	18437
898.07	18479
898.19	18422
898.311	18593
898.431	18509
898.552	18525
898.672	18711
898.792	18623
898.913	18650
899.033	18372
899.153	18380
899.273	18197
899.393	18296
899.513	18346
899.633	18350
899.753	18330
899.873	18251
899.993	18315
900.113	18205
900.232	18270
900.352	18235
900.472	18190
900.591	18053
900.711	18083
900.83	18098
900.95	18095
901.069	18232
901.189	18060
901.308	17843
901.427	17695
901.546	17676
901.665	17767
901.784	17657
901.904	17573
902.023	17509
902.141	17280
902.26	17181
902.379	17307
902.498	17185
902.617	16984
902.735	17121
902.854	17117
902.973	17071
903.091	16881
903.21	16850
903.328	16835
903.446	16736
903.565	16607
903.683	16698
903.801	16512
903.919	16630
904.038	16470
904.156	16428
904.274	16417
904.392	16246
904.51	16337
904.627	16348
904.745	16432
904.863	16348
904.981	16162
905.098	16021
905.216	16021
905.334	16051
905.451	16071
905.569	16013
905.686	16067
905.803	15998
905.921	15781
906.038	15808
906.155	15892
906.272	15698
906.389	15751
906.506	15530
906.623	15526
906.74	15534
906.857	15386
906.974	15348
907.091	15610
907.208	15610
907.324	15526
907.441	15412
907.557	15233
907.674	15199
907.79	15169
907.907	15195
908.023	15245
908.139	15192
908.256	15142
908.372	15184
908.488	15165
908.604	15009
908.72	14868
908.836	14925
908.952	14925
909.068	14967
909.184	15032
909.3	14944
909.415	14902
909.531	14925
909.647	14571
909.762	14674
909.878	14610
909.993	14590
910.108	14629
910.224	14545
910.339	14674
910.454	14499
910.57	14442
910.685	14434
910.8	14716
910.915	14590
911.03	14526
911.145	14275
911.259	14294
911.374	14301
911.489	14164
911.604	14206
911.718	13993
911.833	14035
911.947	13913
912.062	13856
912.176	14020
912.291	13989
912.405	14062
912.519	14126
912.633	14218
912.748	14054
912.862	13883
912.976	13807
913.09	13662
913.204	13814
913.318	13860
913.431	13925
913.545	13974
913.659	13944
913.772	13845
913.886	13704
914	13746
914.113	13830
914.226	13738
914.34	13750
914.453	13567
914.566	13731
914.68	13636
914.793	13563
914.906	13392
915.019	13392
915.132	13331
915.245	13354
915.358	13400
915.47	13285
915.583	13453
915.696	13331
915.809	13358
915.921	13472
916.034	13278
916.146	13194
916.259	13270
916.371	13430
916.483	13343
916.595	13247
916.708	13270
916.82	13285
916.932	13282
917.044	13316
917.156	13240
917.268	13088
917.38	13145
917.491	13088
917.603	13095
917.715	13164
917.826	13183
917.938	13023
918.049	13065
918.161	13084
918.272	13190
918.384	13114
918.495	13053
918.606	12833
918.717	12783
918.828	12886
918.939	12947
919.05	12783
919.161	12844
919.272	12601
919.383	12760
919.494	12837
919.604	13095
919.715	12913
919.826	12779
919.936	12821
920.047	12837
920.157	12787
920.267	12970
920.378	12768
920.488	12749
920.598	12962
920.708	13091
920.818	12935
920.928	12973
921.038	13091
921.148	13118
921.258	12863
921.368	12798
921.477	12597
921.587	12646
921.697	12380
921.806	12551
921.916	12452
922.025	12315
922.134	12315
922.244	12171
922.353	12361
922.462	12057
922.571	12079
922.68	11927
922.789	11843
922.898	11874
923.007	11878
923.116	11893
923.224	11885
923.333	11908
923.442	11760
923.55	11680
923.659	11756
923.767	11805
923.876	11646
923.984	11802
924.092	11581
924.201	11707
924.309	11684
924.417	11672
924.525	11562
924.633	11672
924.741	12281
924.849	11387
924.956	11619
925.064	11436
925.172	11353
925.279	11395
925.387	11406
925.494	11349
925.602	11520
925.709	11524
925.816	11330
925.924	11421
926.031	11433
926.138	11383
926.245	11337
926.352	11296
926.459	11463
926.566	11414
926.673	11280
926.779	11140
926.886	11113
926.993	10976
927.099	11025
927.206	11025
927.312	10984
927.419	11121
927.525	11090
927.631	11071
927.737	10889
927.843	10900
927.95	10850
928.056	10927
928.162	10908
928.267	10915
928.373	11436
928.479	10923
928.585	10672
928.69	10717
928.796	10904
928.901	10790
929.007	10656
929.112	10740
929.218	10710
929.323	10672
929.428	10542
929.533	10763
929.638	10565
929.743	10630
929.848	10668
929.953	10550
930.058	10554
930.163	10394
930.267	10318
930.372	10554
930.477	10280
930.581	10497
930.685	10303
930.79	10249
930.894	10295
930.998	10261
931.103	10394
931.207	10017
931.311	9975
931.415	9964
931.519	9644
931.623	9663
