Data from test_V78500241_610.txt Node
Date: Fri Mar 25 14:37:57 CST 2022
User: usil
Spectrometer: V785-0024
Trigger mode: 0
Integration Time (sec): 4.000000E-1
Scans to average: 1
Nonlinearity correction enabled: false
Boxcar width: 0
Storing dark spectrum: false
XAxis mode: Wavelengths
Number of Pixels in Spectrum: 1024
>>>>>Begin Spectral Data<<<<<
801.071	28143
801.214	27857
801.356	27564
801.499	27614
801.641	27374
801.783	27477
801.926	27367
802.068	27329
802.211	27085
802.353	27100
802.496	26921
802.638	26883
802.78	26899
802.923	26975
803.065	26708
803.208	26956
803.35	26876
803.492	27036
803.635	27127
803.777	26944
803.919	27081
804.061	27260
804.204	27058
804.346	26971
804.488	27066
804.63	27173
804.773	27005
804.915	27188
805.057	27218
805.199	27260
805.341	27431
805.483	27447
805.626	27530
805.768	27321
805.91	27454
806.052	27694
806.194	27618
806.336	27960
806.478	27975
806.62	28029
806.762	28280
806.904	28641
807.046	29094
807.188	29250
807.33	29562
807.472	30159
807.614	30544
807.756	31129
807.898	31788
808.04	32891
808.182	34531
808.324	36410
808.465	38511
808.607	40782
808.749	42844
808.891	44092
809.033	44107
809.174	42886
809.316	40786
809.458	38328
809.6	35942
809.741	34124
809.883	32579
810.025	31601
810.166	30749
810.308	30308
810.45	29809
810.591	29284
810.733	28938
810.875	28557
811.016	28333
811.158	28249
811.299	28394
811.441	28291
811.582	28093
811.724	27857
811.865	27861
812.007	27816
812.148	27812
812.29	27660
812.431	27800
812.573	27865
812.714	27994
812.855	28048
812.997	28051
813.138	28348
813.279	27937
813.421	27880
813.562	27831
813.703	27614
813.845	27435
813.986	27039
814.127	27020
814.268	26834
814.41	26861
814.551	26670
814.692	26838
814.833	26629
814.974	26480
815.115	26533
815.256	26438
815.397	26484
815.539	26552
815.68	26419
815.821	26263
815.962	26229
816.103	26259
816.244	26305
816.385	26081
816.526	25909
816.666	25776
816.807	25700
816.948	25670
817.089	25700
817.23	25670
817.371	25495
817.512	25696
817.653	25521
817.793	25483
817.934	25533
818.075	25400
818.216	25537
818.356	25460
818.497	25308
818.638	25339
818.778	25263
818.919	25407
819.06	25278
819.2	25365
819.341	25518
819.481	25384
819.622	25556
819.762	25746
819.903	25791
820.043	25521
820.184	25499
820.324	25449
820.465	25472
820.605	25521
820.746	25426
820.886	25202
821.026	25365
821.167	25308
821.307	25343
821.447	25168
821.588	25236
821.728	25065
821.868	24757
822.008	24711
822.149	24612
822.289	24722
822.429	24441
822.569	24384
822.709	24395
822.849	24072
822.99	24098
823.13	24091
823.27	24072
823.41	23984
823.55	23733
823.69	23984
823.83	23897
823.97	23870
824.11	23748
824.25	23756
824.389	23699
824.529	23802
824.669	23627
824.809	23737
824.949	23893
825.089	23684
825.228	23672
825.368	23490
825.508	23562
825.648	23520
825.787	23493
825.927	23600
826.067	23463
826.206	23471
826.346	23406
826.485	23596
826.625	23448
826.765	23566
826.904	23512
827.044	23395
827.183	23185
827.323	23071
827.462	23250
827.601	23136
827.741	23132
827.88	23022
828.02	23083
828.159	23052
828.298	23102
828.437	23090
828.577	23056
828.716	23235
828.855	22927
828.994	22885
829.134	22752
829.273	22885
829.412	22706
829.551	22729
829.69	22725
829.829	22843
829.968	22900
830.107	22843
830.246	22812
830.385	22698
830.524	22774
830.663	22599
830.802	22550
830.941	22424
831.08	22447
831.219	22436
831.357	22443
831.496	22565
831.635	22451
831.774	22325
831.913	22200
832.051	22169
832.19	22291
832.329	22150
832.467	22150
832.606	22162
832.744	22120
832.883	22139
833.022	22188
833.16	22219
833.299	22443
833.437	22402
833.576	22599
833.714	22702
833.852	22850
833.991	22850
834.129	23132
834.267	23037
834.406	22854
834.544	22873
834.682	22839
834.821	22561
834.959	22755
835.097	22398
835.235	22577
835.373	22367
835.511	22424
835.65	22230
835.788	22112
835.926	21789
836.064	21774
836.202	21797
836.34	21884
836.478	21975
836.615	21759
836.753	21789
836.891	21922
837.029	21869
837.167	21907
837.305	21800
837.443	21713
837.58	21587
837.718	21781
837.856	21759
837.993	21644
838.131	21781
838.269	21633
838.406	21469
838.544	21492
838.681	21386
838.819	21310
838.956	21096
839.094	21100
839.231	21218
839.369	21226
839.506	21564
839.643	21382
839.781	21077
839.918	21055
840.055	21066
840.193	21074
840.33	21036
840.467	21089
840.604	21066
840.742	21264
840.879	20777
841.016	20941
841.153	21043
841.29	21116
841.427	21020
841.564	21085
841.701	21043
841.838	21123
841.975	20952
842.112	20887
842.249	20864
842.385	20663
842.522	21173
842.659	20857
842.796	20693
842.933	20925
843.069	20777
843.206	20746
843.343	20891
843.479	20876
843.616	20914
843.752	20724
843.889	20777
844.025	20918
844.162	20872
844.298	21093
844.435	21074
844.571	21112
844.708	21534
844.844	21888
844.98	21979
845.117	22516
845.253	23041
845.389	24266
845.525	26796
845.661	30730
845.798	35596
845.934	39473
846.07	41010
846.206	40131
846.342	36787
846.478	31940
846.614	27572
846.75	24924
846.886	23162
847.022	22280
847.158	21473
847.294	21119
847.429	20891
847.565	20693
847.701	20640
847.837	20172
847.972	20084
848.108	20199
848.244	20027
848.379	19951
848.515	19826
848.65	19719
848.786	19791
848.921	19578
849.057	19643
849.192	19875
849.328	19765
849.463	19689
849.598	19662
849.734	19563
849.869	19460
850.004	19510
850.14	19400
850.275	19483
850.41	19297
850.545	19369
850.68	19316
850.815	19339
850.95	19335
851.085	19571
851.22	19354
851.355	19346
851.49	19247
851.625	19282
851.76	19362
851.895	19358
852.03	19152
852.165	19381
852.299	19396
852.434	19445
852.569	19358
852.703	19491
852.838	19400
852.973	19521
853.107	19483
853.242	19449
853.376	19434
853.511	19156
853.645	19308
853.78	19540
853.914	19407
854.048	19480
854.183	19358
854.317	19537
854.451	19613
854.585	19472
854.72	19529
854.854	19533
854.988	19346
855.122	19510
855.256	19278
855.39	19335
855.524	19415
855.658	19297
855.792	19293
855.926	19240
856.06	19263
856.194	19403
856.327	19293
856.461	19145
856.595	19217
856.729	19126
856.862	19236
856.996	19274
857.13	19350
857.263	19289
857.397	19133
857.53	19129
857.664	19217
857.797	19114
857.931	19187
858.064	19084
858.197	19202
858.331	19023
858.464	19027
858.597	19019
858.731	19061
858.864	18993
858.997	19122
859.13	19137
859.263	19129
859.396	19122
859.529	19091
859.662	19095
859.795	19027
859.928	19072
860.061	19103
860.194	19202
860.327	19038
860.46	19038
860.592	19175
860.725	19187
860.858	19129
860.99	19004
861.123	18943
861.256	18920
861.388	19008
861.521	19616
861.653	18844
861.786	18817
861.918	18859
862.05	19000
862.183	18951
862.315	19034
862.447	19095
862.58	18939
862.712	18821
862.844	18738
862.976	18848
863.108	18700
863.24	19072
863.372	18639
863.504	18783
863.636	18833
863.768	18715
863.9	18768
864.032	18681
864.164	18700
864.296	18707
864.428	18867
864.559	18726
864.691	18791
864.823	18715
864.954	18760
865.086	18703
865.217	18650
865.349	18608
865.48	18612
865.612	18593
865.743	18745
865.875	18528
866.006	18745
866.137	18642
866.269	18661
866.4	18585
866.531	18684
866.662	18467
866.793	18608
866.924	18589
867.055	18631
867.186	18494
867.317	18490
867.448	18475
867.579	18475
867.71	18445
867.841	18536
867.972	18627
868.103	18551
868.233	18566
868.364	18566
868.495	18669
868.625	18738
868.756	18890
868.886	18707
869.017	18882
869.147	18958
869.278	18920
869.408	18848
869.539	18894
869.669	18943
869.799	18958
869.929	18928
870.06	18935
870.19	19206
870.32	19301
870.45	19179
870.58	19209
870.71	19384
870.84	19449
870.97	19285
871.1	19365
871.23	19559
871.36	19597
871.489	19430
871.619	19514
871.749	19510
871.879	19556
872.008	19552
872.138	19575
872.267	19563
872.397	19533
872.526	19426
872.656	19407
872.785	19407
872.915	19662
873.044	19643
873.173	19601
873.303	19731
873.432	19681
873.561	19788
873.69	19693
873.819	19769
873.948	19818
874.077	19719
874.206	19845
874.335	19887
874.464	19951
874.593	20092
874.722	20046
874.851	20142
874.979	20275
875.108	20103
875.237	20142
875.365	20126
875.494	20172
875.623	20267
875.751	20347
875.88	20286
876.008	20488
876.136	20526
876.265	20834
876.393	20963
876.521	20849
876.65	21009
876.778	20990
876.906	20998
877.034	21055
877.162	21161
877.29	21123
877.418	21207
877.546	21332
877.674	21424
877.802	21431
877.93	21477
878.058	21747
878.185	21625
878.313	21922
878.441	22207
878.568	22489
878.696	22968
878.824	23429
878.951	24277
879.079	25324
879.206	26861
879.333	28341
879.461	29649
879.588	30486
879.715	30403
879.842	29851
879.97	28485
880.097	26754
880.224	25784
880.351	24791
880.478	24163
880.605	23604
880.732	23467
880.859	23414
880.986	23094
881.112	23105
881.239	22953
881.366	22801
881.493	22626
881.619	22626
881.746	22599
881.872	22630
881.999	22641
882.125	22706
882.252	22843
882.378	22782
882.505	22866
882.631	22752
882.757	22645
882.883	22729
883.01	22607
883.136	22531
883.262	22459
883.388	22409
883.514	22580
883.64	22561
883.766	22474
883.892	22356
884.018	22382
884.143	22569
884.269	22630
884.395	22337
884.52	22215
884.646	22272
884.772	22333
884.897	22196
885.023	22284
885.148	22375
885.274	22284
885.399	22322
885.524	22082
885.65	21949
885.775	22055
885.9	21915
886.025	21789
886.15	21846
886.275	21443
886.4	21340
886.525	21363
886.65	21108
886.775	21112
886.9	21188
887.025	21222
887.149	20861
887.274	20720
887.399	20560
887.523	20640
887.648	20396
887.773	20393
887.897	20488
888.021	20374
888.146	20301
888.27	20362
888.395	20305
888.519	20210
888.643	20221
888.767	20145
888.891	20065
889.015	19875
889.139	19860
889.263	19845
889.387	19871
889.511	19986
889.635	19856
889.759	19734
889.883	19628
890.006	19708
890.13	19791
890.254	19491
890.377	19578
890.501	19464
890.624	19324
890.748	19320
890.871	19194
890.995	19099
891.118	19057
891.241	19145
891.364	19057
891.488	19263
891.611	19122
891.734	19080
891.857	18916
891.98	19008
892.103	19076
892.226	19008
892.349	18905
892.471	18810
892.594	18711
892.717	18882
892.839	18669
892.962	18783
893.085	18852
893.207	18734
893.33	18620
893.452	18642
893.575	18673
893.697	18616
893.819	18642
893.941	18783
894.064	18719
894.186	18593
894.308	18494
894.43	18688
894.552	18681
894.674	18669
894.796	18410
894.918	18582
895.04	18532
895.161	18547
895.283	18456
895.405	18304
895.526	18445
895.648	18486
895.769	18441
895.891	18422
896.012	18551
896.134	18570
896.255	18414
896.376	18502
896.498	18330
896.619	18517
896.74	18399
896.861	18574
896.982	18646
897.103	18909
897.224	18764
897.345	18578
897.466	18559
897.587	18658
897.708	18673
897.828	18779
897.949	18506
898.07	18467
898.19	18521
898.311	18608
898.431	18525
898.552	18604
898.672	18623
898.792	18726
898.913	18540
899.033	18433
899.153	18498
899.273	18338
899.393	18346
899.513	18361
899.633	18296
899.753	18426
899.873	18346
899.993	18437
900.113	18273
900.232	18327
900.352	18289
900.472	18266
900.591	18213
900.711	18167
900.83	18125
900.95	18319
901.069	18235
901.189	18098
901.308	17961
901.427	17764
901.546	17832
901.665	17794
901.784	17813
901.904	17649
902.023	17493
902.141	17284
902.26	17337
902.379	17299
902.498	17155
902.617	17189
902.735	17223
902.854	17216
902.973	17090
903.091	16919
903.21	16976
903.328	16835
903.446	16774
903.565	16710
903.683	16637
903.801	16470
903.919	16554
904.038	16664
904.156	16371
904.274	16558
904.392	16432
904.51	16371
904.627	16417
904.745	16382
904.863	16470
904.981	16265
905.098	16086
905.216	16101
905.334	16196
905.451	16055
905.569	16086
905.686	16029
905.803	16071
905.921	15835
906.038	15945
906.155	15873
906.272	15797
906.389	15778
906.506	15637
906.623	15614
906.74	15595
906.857	15500
906.974	15405
907.091	15652
907.208	15648
907.324	15534
907.441	15393
907.557	15264
907.674	15272
907.79	15203
907.907	15332
908.023	15287
908.139	15336
908.256	15317
908.372	15184
908.488	15180
908.604	14994
908.72	14994
908.836	15100
908.952	14918
909.068	15032
909.184	15104
909.3	14986
909.415	14975
909.531	14971
909.647	14758
909.762	14727
909.878	14708
909.993	14689
910.108	14686
910.224	14689
910.339	14724
910.454	14613
910.57	14587
910.685	14476
910.8	14754
910.915	14701
911.03	14484
911.145	14454
911.259	14389
911.374	14294
911.489	14320
911.604	14301
911.718	14031
911.833	14111
911.947	14050
912.062	13906
912.176	14084
912.291	14050
912.405	14027
912.519	14263
912.633	14259
912.748	14145
912.862	14119
912.976	13917
913.09	13826
913.204	13860
913.318	13871
913.431	14069
913.545	13993
913.659	13940
913.772	13860
913.886	13784
914	13658
914.113	13830
914.226	13928
914.34	13769
914.453	13662
914.566	13727
914.68	13757
914.793	13609
914.906	13468
915.019	13506
915.132	13411
915.245	13468
915.358	13472
915.47	13514
915.583	13453
915.696	13480
915.809	13616
915.921	13594
916.034	13396
916.146	13388
916.259	13316
916.371	13441
916.483	13521
916.595	13358
916.708	13297
916.82	13365
916.932	13266
917.044	13369
917.156	13255
917.268	13152
917.38	13152
917.491	13145
917.603	13141
917.715	13206
917.826	13289
917.938	13118
918.049	13038
918.161	13038
918.272	13244
918.384	13133
918.495	13103
918.606	12951
918.717	12852
918.828	12886
918.939	12981
919.05	12829
919.161	12958
919.272	12688
919.383	12768
919.494	12916
919.604	13042
919.715	12943
919.826	12760
919.936	12791
920.047	13038
920.157	12814
920.267	13122
920.378	12852
920.488	12757
920.598	12985
920.708	13183
920.818	13046
920.928	13107
921.038	13179
921.148	13038
921.258	12886
921.368	12760
921.477	12669
921.587	12623
921.697	12456
921.806	12642
921.916	12563
922.025	12353
922.134	12342
922.244	12338
922.353	12361
922.462	12186
922.571	12060
922.68	12034
922.789	11840
922.898	11950
923.007	11950
923.116	12019
923.224	12034
923.333	11942
923.442	11794
923.55	11805
923.659	11821
923.767	11836
923.876	11741
923.984	11855
924.092	11729
924.201	11718
924.309	11756
924.417	11752
924.525	11722
924.633	11619
924.741	12517
924.849	11524
924.956	11600
925.064	11566
925.172	11490
925.279	11372
925.387	11551
925.494	11467
925.602	11646
925.709	11615
925.816	11307
925.924	11440
926.031	11528
926.138	11379
926.245	11467
926.352	11379
926.459	11440
926.566	11467
926.673	11334
926.779	11353
926.886	11254
926.993	11117
927.099	11128
927.206	11052
927.312	11067
927.419	11083
927.525	11121
927.631	11086
927.737	10961
927.843	10843
927.95	10858
928.056	10908
928.162	10934
928.267	10999
928.373	11501
928.479	10999
928.585	10790
928.69	10942
928.796	10995
928.901	10816
929.007	10630
929.112	10790
929.218	10831
929.323	10706
929.428	10660
929.533	10797
929.638	10641
929.743	10630
929.848	10706
929.953	10637
930.058	10535
930.163	10341
930.267	10436
930.372	10622
930.477	10356
930.581	10538
930.685	10428
930.79	10337
930.894	10306
930.998	10242
931.103	10390
931.207	9975
931.311	9934
931.415	9930
931.519	9785
931.623	9717
