Data from test_V78500241_3257.txt Node
Date: Fri Mar 25 14:56:23 CST 2022
User: usil
Spectrometer: V785-0024
Trigger mode: 0
Integration Time (sec): 4.000000E-1
Scans to average: 1
Nonlinearity correction enabled: false
Boxcar width: 0
Storing dark spectrum: false
XAxis mode: Wavelengths
Number of Pixels in Spectrum: 1024
>>>>>Begin Spectral Data<<<<<
801.071	22010
801.214	21892
801.356	21682
801.499	21507
801.641	21435
801.783	21317
801.926	21332
802.068	21237
802.211	21188
802.353	21150
802.496	20883
802.638	20800
802.78	20697
802.923	20701
803.065	20705
803.208	20648
803.35	20617
803.492	20796
803.635	20701
803.777	20613
803.919	20667
804.061	20906
804.204	20609
804.346	20518
804.488	20545
804.63	20678
804.773	20629
804.915	20674
805.057	20670
805.199	20514
805.341	20727
805.483	20686
805.626	20739
805.768	20609
805.91	20552
806.052	20640
806.194	20545
806.336	20743
806.478	20560
806.62	20686
806.762	20754
806.904	20720
807.046	20853
807.188	20895
807.33	20937
807.472	20986
807.614	20838
807.756	20796
807.898	20727
808.04	20617
808.182	20667
808.324	20686
808.465	20587
808.607	21024
808.749	21077
808.891	21104
809.033	21108
809.174	20986
809.316	20883
809.458	20887
809.6	20914
809.741	20982
809.883	20967
810.025	21074
810.166	21062
810.308	21116
810.45	21032
810.591	20967
810.733	20845
810.875	20796
811.016	20735
811.158	20598
811.299	20758
811.441	20895
811.582	20720
811.724	20682
811.865	20659
812.007	20686
812.148	20644
812.29	20705
812.431	20952
812.573	21009
812.714	21017
812.855	21127
812.997	21321
813.138	21504
813.279	21511
813.421	21264
813.562	21127
813.703	21051
813.845	20876
813.986	20598
814.127	20343
814.268	20355
814.41	20355
814.551	20282
814.692	20347
814.833	20172
814.974	20122
815.115	20210
815.256	20084
815.397	20069
815.539	20142
815.68	20016
815.821	19921
815.962	20081
816.103	20092
816.244	19826
816.385	19700
816.526	19696
816.666	19548
816.807	19400
816.948	19518
817.089	19578
817.23	19476
817.371	19426
817.512	19312
817.653	19278
817.793	19274
817.934	19312
818.075	19388
818.216	19377
818.356	19388
818.497	19122
818.638	19053
818.778	19141
818.919	19171
819.06	19095
819.2	19255
819.341	19236
819.481	19293
819.622	19369
819.762	19590
819.903	19586
820.043	19419
820.184	19346
820.324	19285
820.465	19403
820.605	19373
820.746	19335
820.886	19259
821.026	19251
821.167	19263
821.307	19392
821.447	19293
821.588	19198
821.728	19034
821.868	18878
822.008	18726
822.149	18871
822.289	18848
822.429	18517
822.569	18464
822.709	18452
822.849	18273
822.99	18247
823.13	18285
823.27	18155
823.41	18110
823.55	18038
823.69	18072
823.83	18182
823.97	18015
824.11	17828
824.25	17809
824.389	17843
824.529	17935
824.669	17813
824.809	17851
824.949	18045
825.089	17870
825.228	17893
825.368	17558
825.508	17573
825.648	17596
825.787	17649
825.927	17733
826.067	17539
826.206	17585
826.346	17687
826.485	17634
826.625	17554
826.765	17668
826.904	17619
827.044	17455
827.183	17250
827.323	17265
827.462	17307
827.601	17334
827.741	17261
827.88	17414
828.02	17292
828.159	17303
828.298	17307
828.437	17429
828.577	17341
828.716	17417
828.855	17250
828.994	17151
829.134	17109
829.273	17140
829.412	16934
829.551	16934
829.69	17064
829.829	17067
829.968	17128
830.107	17136
830.246	16995
830.385	17060
830.524	17025
830.663	16862
830.802	16759
830.941	16588
831.08	16588
831.219	16778
831.357	16683
831.496	16896
831.635	16599
831.774	16580
831.913	16523
832.051	16523
832.19	16447
832.329	16523
832.467	16424
832.606	16280
832.744	16318
832.883	16398
833.022	16310
833.16	16367
833.299	16329
833.437	16348
833.576	16538
833.714	16459
833.852	16421
833.991	16542
834.129	16466
834.267	16432
834.406	16459
834.544	16550
834.682	16504
834.821	16394
834.959	16649
835.097	16493
835.235	16538
835.373	16455
835.511	16417
835.65	16333
835.788	16333
835.926	16261
836.064	16109
836.202	16219
836.34	16303
836.478	16424
836.615	16318
836.753	16360
836.891	16394
837.029	16394
837.167	16367
837.305	16219
837.443	16253
837.58	16158
837.718	16325
837.856	16242
837.993	16135
838.131	16219
838.269	16128
838.406	16147
838.544	15994
838.681	15797
838.819	15956
838.956	15831
839.094	15720
839.231	15781
839.369	15945
839.506	16067
839.643	15975
839.781	15739
839.918	15694
840.055	15755
840.193	15804
840.33	15717
840.467	15781
840.604	15812
840.742	15972
840.879	15713
841.016	15709
841.153	15644
841.29	15911
841.427	15781
841.564	15762
841.701	15778
841.838	15759
841.975	15641
842.112	15679
842.249	15526
842.385	15485
842.522	15762
842.659	15469
842.796	15587
842.933	15523
843.069	15526
843.206	15534
843.343	15618
843.479	15576
843.616	15507
843.752	15298
843.889	15428
844.025	15481
844.162	15336
844.298	15386
844.435	15382
844.571	15203
844.708	15408
844.844	15553
844.98	15485
845.117	15450
845.253	15264
845.389	15283
845.525	15256
845.661	15157
845.798	15142
845.934	15138
846.07	15089
846.206	15226
846.342	15218
846.478	15173
846.614	15009
846.75	14880
846.886	14811
847.022	14998
847.158	14921
847.294	14960
847.429	14937
847.565	14914
847.701	15184
847.837	14602
847.972	14621
848.108	14819
848.244	14792
848.379	14457
848.515	14560
848.65	14545
848.786	14469
848.921	14522
849.057	14636
849.192	14568
849.328	14549
849.463	14480
849.598	14526
849.734	14469
849.869	14358
850.004	14282
850.14	14377
850.275	14313
850.41	14229
850.545	14233
850.68	14221
850.815	14328
850.95	14248
851.085	14492
851.22	14328
851.355	14396
851.49	14290
851.625	14218
851.76	14153
851.895	14168
852.03	14218
852.165	14263
852.299	14336
852.434	14301
852.569	14252
852.703	14282
852.838	14423
852.973	14488
853.107	14328
853.242	14195
853.376	14142
853.511	13993
853.645	14088
853.78	14290
853.914	14161
854.048	14092
854.183	14119
854.317	14058
854.451	14423
854.585	14202
854.72	14100
854.854	14233
854.988	14183
855.122	14046
855.256	13970
855.39	14176
855.524	14263
855.658	14202
855.792	14225
855.926	14278
856.06	14187
856.194	14290
856.327	14164
856.461	13982
856.595	14069
856.729	14111
856.862	14191
856.996	14210
857.13	14240
857.263	14328
857.397	14282
857.53	14138
857.664	14176
857.797	14290
857.931	14290
858.064	14115
858.197	14275
858.331	14115
858.464	14103
858.597	14115
858.731	14157
858.864	14210
858.997	14123
859.13	14046
859.263	14210
859.396	14332
859.529	14202
859.662	14172
859.795	14088
859.928	14229
860.061	14336
860.194	14385
860.327	14100
860.46	14172
860.592	14202
860.725	14385
860.858	14233
860.99	14172
861.123	14039
861.256	14058
861.388	14199
861.521	14861
861.653	14084
861.786	14065
861.918	13974
862.05	14054
862.183	14043
862.315	14096
862.447	14256
862.58	14103
862.712	13928
862.844	13909
862.976	13951
863.108	14020
863.24	14256
863.372	13890
863.504	13940
863.636	13860
863.768	13982
863.9	13986
864.032	13898
864.164	13947
864.296	13906
864.428	14103
864.559	14058
864.691	14027
864.823	13986
864.954	13925
865.086	13986
865.217	13970
865.349	13944
865.48	13947
865.612	13925
865.743	14035
865.875	13879
866.006	13951
866.137	13928
866.269	13974
866.4	13978
866.531	13875
866.662	13852
866.793	13951
866.924	13909
867.055	13970
867.186	13807
867.317	13936
867.448	13864
867.579	13830
867.71	13906
867.841	13856
867.972	13936
868.103	13997
868.233	13955
868.364	13997
868.495	13955
868.625	14161
868.756	14305
868.886	14054
869.017	14180
869.147	14271
869.278	14317
869.408	14092
869.539	14103
869.669	14225
869.799	14130
869.929	14278
870.06	14336
870.19	14465
870.32	14434
870.45	14442
870.58	14541
870.71	14735
870.84	14541
870.97	14522
871.1	14598
871.23	14720
871.36	14754
871.489	14667
871.619	14746
871.749	14739
871.879	14750
872.008	14895
872.138	14800
872.267	14731
872.397	14644
872.526	14568
872.656	14541
872.785	14617
872.915	14773
873.044	14826
873.173	14880
873.303	14994
873.432	14849
873.561	14899
873.69	14826
873.819	14830
873.948	14872
874.077	14826
874.206	14830
874.335	14925
874.464	15001
874.593	15135
874.722	15020
874.851	15173
874.979	15192
875.108	15214
875.237	15070
875.365	15051
875.494	15104
875.623	15173
875.751	15188
875.88	15218
876.008	15313
876.136	15420
876.265	15606
876.393	15701
876.521	15572
876.65	15682
876.778	15610
876.906	15534
877.034	15545
877.162	15523
877.29	15568
877.418	15564
877.546	15584
877.674	15511
877.802	15466
877.93	15458
878.058	15511
878.185	15488
878.313	15504
878.441	15568
878.568	15408
878.696	15439
878.824	15618
878.951	15679
879.079	15720
879.206	15922
879.333	15720
879.461	15679
879.588	15622
879.715	15713
879.842	15835
879.97	15663
880.097	15359
880.224	15428
880.351	15401
880.478	15454
880.605	15374
880.732	15268
880.859	15553
880.986	15428
881.112	15397
881.239	15264
881.366	15241
881.493	15169
881.619	15039
881.746	15062
881.872	15074
881.999	15047
882.125	15097
882.252	15169
882.378	15058
882.505	15260
882.631	15093
882.757	14864
882.883	14868
883.01	14937
883.136	14739
883.262	14773
883.388	14758
883.514	14887
883.64	15039
883.766	14830
883.892	14712
884.018	14815
884.143	14845
884.269	14902
884.395	14621
884.52	14602
884.646	14610
884.772	14461
884.897	14415
885.023	14560
885.148	14701
885.274	14708
885.399	14689
885.524	14469
885.65	14598
885.775	14598
885.9	14602
886.025	14746
886.15	14621
886.275	14583
886.4	14507
886.525	14533
886.65	14556
886.775	14488
886.9	14765
887.025	14792
887.149	14522
887.274	14423
887.399	14461
887.523	14389
887.648	14370
887.773	14343
887.897	14564
888.021	14465
888.146	14446
888.27	14552
888.395	14526
888.519	14568
888.643	14450
888.767	14522
888.891	14408
889.015	14309
889.139	14328
889.263	14271
889.387	14408
889.511	14556
889.635	14431
889.759	14347
889.883	14275
890.006	14221
890.13	14400
890.254	14267
890.377	14305
890.501	14088
890.624	14123
890.748	14191
890.871	14096
890.995	13818
891.118	13917
891.241	13947
891.364	14001
891.488	14111
891.611	14054
891.734	14081
891.857	14031
891.98	14008
892.103	14096
892.226	14050
892.349	14001
892.471	13822
892.594	13967
892.717	14016
892.839	13955
892.962	14126
893.085	14088
893.207	14005
893.33	13967
893.452	13944
893.575	13989
893.697	13967
893.819	14123
893.941	14187
894.064	14172
894.186	14008
894.308	14043
894.43	14092
894.552	14168
894.674	14145
894.796	13989
894.918	13997
895.04	14020
895.161	14199
895.283	14058
895.405	14035
895.526	14107
895.648	14107
895.769	14161
895.891	14191
896.012	14233
896.134	14244
896.255	14157
896.376	14103
896.498	14084
896.619	14290
896.74	14263
896.861	14130
896.982	14442
897.103	14663
897.224	14389
897.345	14404
897.466	14278
897.587	14412
897.708	14442
897.828	14431
897.949	14503
898.07	14305
898.19	14396
898.311	14613
898.431	14476
898.552	14552
898.672	14659
898.792	14549
898.913	14613
899.033	14415
899.153	14480
899.273	14206
899.393	14404
899.513	14495
899.633	14320
899.753	14389
899.873	14370
899.993	14355
900.113	14248
900.232	14446
900.352	14362
900.472	14339
900.591	14256
900.711	14256
900.83	14149
900.95	14393
901.069	14427
901.189	14218
901.308	13982
901.427	13860
901.546	13951
901.665	13974
901.784	13940
901.904	13715
902.023	13712
902.141	13575
902.26	13441
902.379	13559
902.498	13449
902.617	13445
902.735	13521
902.854	13556
902.973	13434
903.091	13206
903.21	13228
903.328	13236
903.446	13183
903.565	13069
903.683	13061
903.801	12958
903.919	13004
904.038	12913
904.156	12951
904.274	12928
904.392	12768
904.51	12871
904.627	12916
904.745	12856
904.863	12954
904.981	12692
905.098	12604
905.216	12662
905.334	12540
905.451	12582
905.569	12471
905.686	12604
905.803	12646
905.921	12399
906.038	12403
906.155	12418
906.272	12258
906.389	12281
906.506	12155
906.623	12125
906.74	12102
906.857	12117
906.974	12026
907.091	12266
907.208	12353
907.324	12186
907.441	12110
907.557	11916
907.674	11923
907.79	11866
907.907	11805
908.023	11969
908.139	11847
908.256	11950
908.372	11855
908.488	11813
908.604	11676
908.72	11581
908.836	11737
908.952	11627
909.068	11653
909.184	11764
909.3	11684
909.415	11684
909.531	11638
909.647	11474
909.762	11474
909.878	11376
909.993	11524
910.108	11398
910.224	11402
910.339	11490
910.454	11326
910.57	11261
910.685	11174
910.8	11535
910.915	11360
911.03	11322
911.145	11162
911.259	11201
911.374	11124
911.489	11098
911.604	11090
911.718	10900
911.833	10968
911.947	10740
912.062	10706
912.176	10904
912.291	11018
912.405	10919
912.519	11136
912.633	11162
912.748	10919
912.862	10862
912.976	10759
913.09	10649
913.204	10725
913.318	10805
913.431	10873
913.545	10889
913.659	10892
913.772	10763
913.886	10717
914	10653
914.113	10805
914.226	10862
914.34	10668
914.453	10645
914.566	10744
914.68	10698
914.793	10618
914.906	10500
915.019	10390
915.132	10318
915.245	10405
915.358	10474
915.47	10405
915.583	10405
915.696	10436
915.809	10584
915.921	10615
916.034	10447
916.146	10322
916.259	10344
916.371	10440
916.483	10402
916.595	10306
916.708	10318
916.82	10314
916.932	10306
917.044	10299
917.156	10284
917.268	10257
917.38	10223
917.491	10200
917.603	10284
917.715	10272
917.826	10356
917.938	10162
918.049	10173
918.161	10242
918.272	10375
918.384	10344
918.495	10318
918.606	10143
918.717	10051
918.828	10139
918.939	10120
919.05	10036
919.161	10173
919.272	9903
919.383	10013
919.494	10223
919.604	10310
919.715	10074
919.826	10021
919.936	10181
920.047	10169
920.157	10169
920.267	10356
920.378	10135
920.488	10158
920.598	10306
920.708	10504
920.818	10310
920.928	10295
921.038	10489
921.148	10519
921.258	10154
921.368	10086
921.477	9987
921.587	10006
921.697	9884
921.806	10029
921.916	9930
922.025	9759
922.134	9694
922.244	9633
922.353	9736
922.462	9625
922.571	9542
922.68	9431
922.789	9355
922.898	9412
923.007	9389
923.116	9439
923.224	9378
923.333	9325
923.442	9245
923.55	9279
923.659	9405
923.767	9336
923.876	9249
923.984	9367
924.092	9131
924.201	9237
924.309	9272
924.417	9233
924.525	9294
924.633	9287
924.741	10097
924.849	9051
924.956	9173
925.064	9055
925.172	8956
925.279	8994
925.387	9085
925.494	9081
925.602	9184
925.709	9142
925.816	9043
925.924	9039
926.031	9089
926.138	9093
926.245	9043
926.352	8975
926.459	9085
926.566	9127
926.673	9020
926.779	8941
926.886	8918
926.993	8807
927.099	8739
927.206	8773
927.312	8735
927.419	8819
927.525	8762
927.631	8766
927.737	8746
927.843	8689
927.95	8537
928.056	8746
928.162	8625
928.267	8705
928.373	9195
928.479	8731
928.585	8514
928.69	8632
928.796	8640
928.901	8549
929.007	8423
929.112	8606
929.218	8568
929.323	8492
929.428	8412
929.533	8651
929.638	8450
929.743	8446
929.848	8469
929.953	8454
930.058	8374
930.163	8206
930.267	8267
930.372	8442
930.477	8206
930.581	8514
930.685	8347
930.79	8164
930.894	8290
930.998	8206
931.103	8347
931.207	7947
931.311	7997
931.415	7879
931.519	7723
931.623	7693
