Data from test_V78500241_913.txt Node
Date: Fri Mar 25 14:40:04 CST 2022
User: usil
Spectrometer: V785-0024
Trigger mode: 0
Integration Time (sec): 4.000000E-1
Scans to average: 1
Nonlinearity correction enabled: false
Boxcar width: 0
Storing dark spectrum: false
XAxis mode: Wavelengths
Number of Pixels in Spectrum: 1024
>>>>>Begin Spectral Data<<<<<
801.071	24875
801.214	24741
801.356	24456
801.499	24509
801.641	24281
801.783	24209
801.926	24209
802.068	24182
802.211	23946
802.353	23969
802.496	23741
802.638	23707
802.78	23623
802.923	23596
803.065	23528
803.208	23566
803.35	23539
803.492	23611
803.635	23649
803.777	23562
803.919	23638
804.061	23904
804.204	23608
804.346	23608
804.488	23337
804.63	23463
804.773	23471
804.915	23459
805.057	23619
805.199	23573
805.341	23710
805.483	23756
805.626	23623
805.768	23531
805.91	23573
806.052	23627
806.194	23585
806.336	23893
806.478	23707
806.62	23794
806.762	23870
806.904	24083
807.046	24365
807.188	24452
807.33	24403
807.472	24563
807.614	24566
807.756	24825
807.898	24817
808.04	25156
808.182	25518
808.324	25883
808.465	26571
808.607	27077
808.749	27709
808.891	28173
809.033	28090
809.174	27622
809.316	27085
809.458	26545
809.6	26054
809.741	25795
809.883	25148
810.025	25202
810.166	24829
810.308	24856
810.45	24620
810.591	24479
810.733	24289
810.875	24117
811.016	24121
811.158	23939
811.299	24064
811.441	23984
811.582	24026
811.724	23950
811.865	23832
812.007	23859
812.148	23870
812.29	23920
812.431	23961
812.573	24224
812.714	24159
812.855	24266
812.997	24311
813.138	24559
813.279	24388
813.421	24391
813.562	24258
813.703	24064
813.845	24026
813.986	23771
814.127	23471
814.268	23318
814.41	23421
814.551	23376
814.692	23299
814.833	23128
814.974	23353
815.115	23273
815.256	23124
815.397	23170
815.539	23060
815.68	22968
815.821	22915
815.962	23124
816.103	23064
816.244	22835
816.385	22725
816.526	22698
816.666	22656
816.807	22394
816.948	22508
817.089	22531
817.23	22512
817.371	22337
817.512	22523
817.653	22356
817.793	22344
817.934	22375
818.075	22280
818.216	22409
818.356	22325
818.497	22265
818.638	21968
818.778	22067
818.919	22067
819.06	22010
819.2	22177
819.341	22261
819.481	22150
819.622	22310
819.762	22691
819.903	22455
820.043	22436
820.184	22268
820.324	22265
820.465	22440
820.605	22363
820.746	22405
820.886	22116
821.026	22223
821.167	22177
821.307	22413
821.447	22261
821.588	22055
821.728	22086
821.868	21857
822.008	21690
822.149	21675
822.289	21743
822.429	21428
822.569	21443
822.709	21424
822.849	21104
822.99	21119
823.13	21036
823.27	21062
823.41	20975
823.55	20941
823.69	20872
823.83	20887
823.97	20758
824.11	20655
824.25	20712
824.389	20739
824.529	20765
824.669	20746
824.809	20861
824.949	20796
825.089	20758
825.228	20815
825.368	20556
825.508	20575
825.648	20488
825.787	20545
825.927	20594
826.067	20393
826.206	20393
826.346	20450
826.485	20454
826.625	20427
826.765	20564
826.904	20492
827.044	20237
827.183	20282
827.323	20065
827.462	20240
827.601	20210
827.741	20035
827.88	20111
828.02	20046
828.159	20100
828.298	20054
828.437	20221
828.577	20111
828.716	20256
828.855	20054
828.994	19807
829.134	19841
829.273	19951
829.412	19871
829.551	19799
829.69	19852
829.829	19978
829.968	19932
830.107	19765
830.246	19906
830.385	19742
830.524	19666
830.663	19647
830.802	19407
830.941	19426
831.08	19419
831.219	19396
831.357	19552
831.496	19635
831.635	19377
831.774	19244
831.913	19327
832.051	19251
832.19	19183
832.329	19263
832.467	19156
832.606	19160
832.744	19076
832.883	19080
833.022	19072
833.16	19202
833.299	19270
833.437	19308
833.576	19168
833.714	19293
833.852	19396
833.991	19464
834.129	19438
834.267	19407
834.406	19381
834.544	19308
834.682	19263
834.821	19175
834.959	19350
835.097	19175
835.235	19335
835.373	19282
835.511	19225
835.65	18924
835.788	18962
835.926	18905
836.064	18875
836.202	18924
836.34	19057
836.478	19072
836.615	18943
836.753	18935
836.891	19023
837.029	19019
837.167	18875
837.305	18973
837.443	18856
837.58	18730
837.718	18928
837.856	18821
837.993	18840
838.131	18734
838.269	18654
838.406	18772
838.544	18604
838.681	18521
838.819	18540
838.956	18376
839.094	18300
839.231	18334
839.369	18391
839.506	18757
839.643	18585
839.781	18323
839.918	18292
840.055	18239
840.193	18319
840.33	18167
840.467	18437
840.604	18285
840.742	18506
840.879	18251
841.016	18243
841.153	18133
841.29	18308
841.427	18357
841.564	18220
841.701	18251
841.838	18213
841.975	18136
842.112	18159
842.249	18095
842.385	18038
842.522	18152
842.659	18034
842.796	17996
842.933	18022
843.069	17931
843.206	18026
843.343	18159
843.479	18152
843.616	18003
843.752	17779
843.889	17726
844.025	18068
844.162	17824
844.298	17840
844.435	17885
844.571	17840
844.708	18026
844.844	18053
844.98	18235
845.117	18369
845.253	18399
845.389	18509
845.525	19137
845.661	19978
845.798	21131
845.934	22055
846.07	22363
846.206	22375
846.342	21648
846.478	20370
846.614	19190
846.75	18445
846.886	18064
847.022	17939
847.158	17661
847.294	17570
847.429	17608
847.565	17558
847.701	17619
847.837	17170
847.972	17105
848.108	17010
848.244	17189
848.379	17041
848.515	16942
848.65	16904
848.786	16915
848.921	17037
849.057	16942
849.192	16881
849.328	16995
849.463	17083
849.598	16873
849.734	16793
849.869	16733
850.004	16660
850.14	16634
850.275	16653
850.41	16603
850.545	16634
850.68	16538
850.815	16637
850.95	16580
851.085	16736
851.22	16782
851.355	16679
851.49	16656
851.625	16546
851.76	16569
851.895	16519
852.03	16535
852.165	16618
852.299	16588
852.434	16702
852.569	16630
852.703	16615
852.838	16698
852.973	16755
853.107	16759
853.242	16645
853.376	16630
853.511	16417
853.645	16432
853.78	16649
853.914	16527
854.048	16478
854.183	16596
854.317	16554
854.451	16816
854.585	16519
854.72	16519
854.854	16527
854.988	16428
855.122	16584
855.256	16386
855.39	16538
855.524	16554
855.658	16447
855.792	16481
855.926	16527
856.06	16546
856.194	16519
856.327	16447
856.461	16428
856.595	16322
856.729	16470
856.862	16603
856.996	16535
857.13	16550
857.263	16622
857.397	16569
857.53	16485
857.664	16584
857.797	16596
857.931	16462
858.064	16519
858.197	16592
858.331	16466
858.464	16379
858.597	16337
858.731	16402
858.864	16432
858.997	16352
859.13	16261
859.263	16405
859.396	16504
859.529	16382
859.662	16344
859.795	16280
859.928	16451
860.061	16558
860.194	16561
860.327	16398
860.46	16428
860.592	16596
860.725	16558
860.858	16615
860.99	16459
861.123	16428
861.256	16386
861.388	16451
861.521	17006
861.653	16409
861.786	16284
861.918	16341
862.05	16382
862.183	16341
862.315	16386
862.447	16421
862.58	16318
862.712	16215
862.844	16124
862.976	16135
863.108	16265
863.24	16603
863.372	16097
863.504	16143
863.636	16124
863.768	16150
863.9	16090
864.032	16048
864.164	16051
864.296	16226
864.428	16234
864.559	16261
864.691	16162
864.823	16120
864.954	16253
865.086	16116
865.217	16185
865.349	16040
865.48	16143
865.612	16128
865.743	16246
865.875	16063
866.006	16109
866.137	16158
866.269	16105
866.4	16048
866.531	16105
866.662	16101
866.793	16040
866.924	16032
867.055	16032
867.186	16025
867.317	16048
867.448	16002
867.579	15991
867.71	16135
867.841	15987
867.972	16059
868.103	16097
868.233	16040
868.364	16188
868.495	16211
868.625	16333
868.756	16500
868.886	16291
869.017	16356
869.147	16519
869.278	16489
869.408	16348
869.539	16337
869.669	16348
869.799	16440
869.929	16535
870.06	16466
870.19	16645
870.32	16558
870.45	16774
870.58	16649
870.71	16771
870.84	16877
870.97	16698
871.1	16626
871.23	16923
871.36	16949
871.489	16801
871.619	16812
871.749	16869
871.879	16881
872.008	16957
872.138	16957
872.267	16923
872.397	16824
872.526	16763
872.656	16763
872.785	16767
872.915	17022
873.044	17075
873.173	17010
873.303	17079
873.432	17121
873.561	17090
873.69	17010
873.819	17022
873.948	17071
874.077	17086
874.206	16995
874.335	17143
874.464	17094
874.593	17398
874.722	17330
874.851	17452
874.979	17345
875.108	17387
875.237	17356
875.365	17353
875.494	17395
875.623	17524
875.751	17414
875.88	17433
876.008	17528
876.136	17596
876.265	17863
876.393	17988
876.521	17866
876.65	17878
876.778	17863
876.906	17836
877.034	17767
877.162	17840
877.29	17786
877.418	18022
877.546	18011
877.674	17954
877.802	18053
877.93	17931
878.058	18015
878.185	17950
878.313	18026
878.441	18201
878.568	17942
878.696	18376
878.824	18388
878.951	18726
879.079	19084
879.206	19411
879.333	19727
879.461	20058
879.588	20320
879.715	20275
879.842	20161
879.97	19757
880.097	19228
880.224	18897
880.351	18703
880.478	18426
880.605	18376
880.732	18254
880.859	18555
880.986	18311
881.112	18266
881.239	18178
881.366	18022
881.493	17901
881.619	17893
881.746	17912
881.872	17927
881.999	17840
882.125	17790
882.252	17973
882.378	17996
882.505	18030
882.631	17813
882.757	17756
882.883	17863
883.01	17733
883.136	17596
883.262	17646
883.388	17589
883.514	17714
883.64	17771
883.766	17783
883.892	17505
884.018	17459
884.143	17745
884.269	17866
884.395	17497
884.52	17440
884.646	17440
884.772	17360
884.897	17341
885.023	17299
885.148	17478
885.274	17649
885.399	17444
885.524	17360
885.65	17345
885.775	17318
885.9	17311
886.025	17410
886.15	17349
886.275	17235
886.4	17079
886.525	17265
886.65	17151
886.775	17105
886.9	17258
887.025	17223
887.149	17185
887.274	16889
887.399	16869
887.523	16774
887.648	16877
887.773	16717
887.897	16835
888.021	16828
888.146	16816
888.27	16915
888.395	16908
888.519	16873
888.643	16866
888.767	16927
888.891	16713
889.015	16649
889.139	16683
889.263	16512
889.387	16702
889.511	16771
889.635	16618
889.759	16497
889.883	16466
890.006	16558
890.13	16607
890.254	16462
890.377	16512
890.501	16303
890.624	16249
890.748	16455
890.871	16246
890.995	16147
891.118	16120
891.241	16238
891.364	16120
891.488	16299
891.611	16124
891.734	16105
891.857	16173
891.98	16169
892.103	16128
892.226	16105
892.349	16162
892.471	15979
892.594	16101
892.717	16067
892.839	16063
892.962	16082
893.085	16131
893.207	16010
893.33	16090
893.452	15991
893.575	16128
893.697	16051
893.819	16253
893.941	16249
894.064	16131
894.186	15899
894.308	16002
894.43	16204
894.552	16128
894.674	16097
894.796	15861
894.918	16090
895.04	16048
895.161	16131
895.283	16128
895.405	16017
895.526	16036
895.648	16067
895.769	16131
895.891	16143
896.012	16192
896.134	16238
896.255	16059
896.376	16051
896.498	16268
896.619	16090
896.74	16230
896.861	16143
896.982	16409
897.103	16634
897.224	16481
897.345	16371
897.466	16325
897.587	16348
897.708	16596
897.828	16398
897.949	16413
898.07	16276
898.19	16382
898.311	16569
898.431	16375
898.552	16470
898.672	16504
898.792	16508
898.913	16489
899.033	16337
899.153	16329
899.273	16124
899.393	16306
899.513	16268
899.633	16306
899.753	16268
899.873	16169
899.993	16409
900.113	16211
900.232	16382
900.352	16211
900.472	16219
900.591	16101
900.711	16166
900.83	16169
900.95	16272
901.069	16223
901.189	16185
901.308	15915
901.427	15793
901.546	15778
901.665	15785
901.784	15774
901.904	15606
902.023	15572
902.141	15317
902.26	15348
902.379	15386
902.498	15321
902.617	15241
902.735	15424
902.854	15249
902.973	15230
903.091	14986
903.21	15039
903.328	15013
903.446	14815
903.565	14796
903.683	14781
903.801	14667
903.919	14830
904.038	14853
904.156	14606
904.274	14731
904.392	14537
904.51	14541
904.627	14606
904.745	14651
904.863	14648
904.981	14385
905.098	14252
905.216	14313
905.334	14199
905.451	14202
905.569	14237
905.686	14263
905.803	14225
905.921	14031
906.038	14145
906.155	14005
906.272	13963
906.389	13955
906.506	13883
906.623	13887
906.74	13776
906.857	13727
906.974	13704
907.091	13860
907.208	13925
907.324	13841
907.441	13715
907.557	13666
907.674	13518
907.79	13449
907.907	13483
908.023	13510
908.139	13476
908.256	13426
908.372	13434
908.488	13358
908.604	13331
908.72	13179
908.836	13240
908.952	13225
909.068	13308
909.184	13259
909.3	13221
909.415	13304
909.531	13247
909.647	12993
909.762	13012
909.878	12939
909.993	12958
910.108	12962
910.224	12916
910.339	12932
910.454	12943
910.57	12764
910.685	12760
910.8	12977
910.915	12958
911.03	12802
911.145	12673
911.259	12639
911.374	12639
911.489	12578
911.604	12437
911.718	12441
911.833	12452
911.947	12175
912.062	12201
912.176	12403
912.291	12334
912.405	12361
912.519	12639
912.633	12528
912.748	12429
912.862	12353
912.976	12251
913.09	12140
913.204	12220
913.318	12178
913.431	12281
913.545	12327
913.659	12311
913.772	12239
913.886	12144
914	12083
914.113	12201
914.226	12178
914.34	12216
914.453	11958
914.566	12178
914.68	12041
914.793	11999
914.906	11942
915.019	11771
915.132	11737
915.245	11775
915.358	11809
915.47	11794
915.583	11821
915.696	11859
915.809	12034
915.921	12011
916.034	11741
916.146	11726
916.259	11760
916.371	11767
916.483	11783
916.595	11756
916.708	11691
916.82	11684
916.932	11611
917.044	11748
917.156	11661
917.268	11524
917.38	11600
917.491	11524
917.603	11551
917.715	11786
917.826	11638
917.938	11608
918.049	11433
918.161	11585
918.272	11627
918.384	11657
918.495	11592
918.606	11360
918.717	11395
918.828	11452
918.939	11406
919.05	11299
919.161	11398
919.272	11296
919.383	11261
919.494	11391
919.604	11653
919.715	11395
919.826	11334
919.936	11410
920.047	11471
920.157	11372
920.267	11558
920.378	11406
920.488	11486
920.598	11570
920.708	11688
920.818	11619
920.928	11535
921.038	11745
921.148	11634
921.258	11512
921.368	11231
921.477	11292
921.587	11223
921.697	11098
921.806	11132
921.916	11109
922.025	10889
922.134	10862
922.244	10885
922.353	11006
922.462	10854
922.571	10725
922.68	10615
922.789	10577
922.898	10656
923.007	10596
923.116	10645
923.224	10561
923.333	10546
923.442	10497
923.55	10375
923.659	10455
923.767	10512
923.876	10440
923.984	10462
924.092	10318
924.201	10379
924.309	10451
924.417	10398
924.525	10436
924.633	10322
924.741	11048
924.849	10173
924.956	10322
925.064	10158
925.172	10177
925.279	10162
925.387	10169
925.494	10219
925.602	10280
925.709	10200
925.816	10116
925.924	10211
926.031	10169
926.138	10204
926.245	10211
926.352	10181
926.459	10265
926.566	10246
926.673	10143
926.779	10097
926.886	9949
926.993	9857
927.099	9903
927.206	9808
927.312	9762
927.419	9876
927.525	9785
927.631	9899
927.737	9736
927.843	9709
927.95	9637
928.056	9709
928.162	9682
928.267	9823
928.373	10314
928.479	9846
928.585	9606
928.69	9778
928.796	9800
928.901	9656
929.007	9515
929.112	9595
929.218	9572
929.323	9492
929.428	9469
929.533	9671
929.638	9519
929.743	9542
929.848	9523
929.953	9435
930.058	9420
930.163	9249
930.267	9260
930.372	9466
930.477	9245
930.581	9519
930.685	9370
930.79	9226
930.894	9260
930.998	9108
931.103	9424
931.207	9043
931.311	8914
931.415	8849
931.519	8552
931.623	8720
