Data from test_V78500241_171.txt Node
Date: Fri Mar 25 14:34:54 CST 2022
User: usil
Spectrometer: V785-0024
Trigger mode: 0
Integration Time (sec): 4.000000E-1
Scans to average: 1
Nonlinearity correction enabled: false
Boxcar width: 0
Storing dark spectrum: false
XAxis mode: Wavelengths
Number of Pixels in Spectrum: 1024
>>>>>Begin Spectral Data<<<<<
801.071	28557
801.214	28596
801.356	28249
801.499	28173
801.641	28070
801.783	28036
801.926	28074
802.068	28070
802.211	28017
802.353	27987
802.496	27884
802.638	27690
802.78	27728
802.923	27545
803.065	27690
803.208	27504
803.35	27587
803.492	27778
803.635	27808
803.777	27732
803.919	27759
804.061	28177
804.204	27641
804.346	27709
804.488	27682
804.63	27637
804.773	27705
804.915	27785
805.057	27873
805.199	27713
805.341	27804
805.483	27876
805.626	27838
805.768	27766
805.91	27869
806.052	28013
806.194	27793
806.336	28147
806.478	27876
806.62	28025
806.762	28276
806.904	28398
807.046	28500
807.188	28565
807.33	28443
807.472	28691
807.614	28702
807.756	28759
807.898	28835
808.04	28972
808.182	29174
808.324	29592
808.465	29969
808.607	30349
808.749	30913
808.891	31179
809.033	31198
809.174	30779
809.316	30509
809.458	30121
809.6	29710
809.741	29440
809.883	29018
810.025	29121
810.166	29098
810.308	28862
810.45	28763
810.591	28725
810.733	28599
810.875	28554
811.016	28204
811.158	28242
811.299	28341
811.441	28447
811.582	28344
811.724	28257
811.865	28226
812.007	28059
812.148	28154
812.29	28162
812.431	28390
812.573	28462
812.714	28497
812.855	28455
812.997	28740
813.138	28801
813.279	28824
813.421	28637
813.562	28577
813.703	28500
813.845	28478
813.986	28017
814.127	27903
814.268	27724
814.41	27793
814.551	27637
814.692	27819
814.833	27717
814.974	27755
815.115	27610
815.256	27637
815.397	27538
815.539	27648
815.68	27382
815.821	27367
815.962	27374
816.103	27424
816.244	27351
816.385	27260
816.526	27131
816.666	27024
816.807	26785
816.948	26659
817.089	27017
817.23	26800
817.371	26849
817.512	26796
817.653	26754
817.793	26686
817.934	26701
818.075	26746
818.216	26777
818.356	26663
818.497	26705
818.638	26457
818.778	26476
818.919	26446
819.06	26587
819.2	26560
819.341	26621
819.481	26720
819.622	26800
819.762	26845
819.903	26925
820.043	26910
820.184	26708
820.324	26804
820.465	26781
820.605	26811
820.746	26765
820.886	26564
821.026	26590
821.167	26518
821.307	26651
821.447	26507
821.588	26495
821.728	26343
821.868	26332
822.008	26195
822.149	26142
822.289	25978
822.429	25765
822.569	25822
822.709	25734
822.849	25472
822.99	25529
823.13	25518
823.27	25468
823.41	25312
823.55	25133
823.69	25422
823.83	25335
823.97	25255
824.11	25179
824.25	25095
824.389	25110
824.529	25129
824.669	25076
824.809	25065
824.949	25118
825.089	25225
825.228	25118
825.368	24920
825.508	24878
825.648	24897
825.787	24859
825.927	24916
826.067	24772
826.206	24840
826.346	24814
826.485	24981
826.625	24905
826.765	25046
826.904	24962
827.044	24700
827.183	24623
827.323	24574
827.462	24711
827.601	24627
827.741	24608
827.88	24623
828.02	24467
828.159	24563
828.298	24601
828.437	24604
828.577	24585
828.716	24669
828.855	24559
828.994	24273
829.134	24361
829.273	24277
829.412	24201
829.551	24350
829.69	24399
829.829	24209
829.968	24224
830.107	24224
830.246	24273
830.385	24201
830.524	24224
830.663	24015
830.802	24076
830.941	23794
831.08	23920
831.219	23958
831.357	23931
831.496	23992
831.635	23733
831.774	23596
831.913	23657
832.051	23638
832.19	23592
832.329	23649
832.467	23573
832.606	23368
832.744	23463
832.883	23478
833.022	23433
833.16	23452
833.299	23486
833.437	23497
833.576	23543
833.714	23505
833.852	23687
833.991	23653
834.129	23482
834.267	23627
834.406	23531
834.544	23592
834.682	23505
834.821	23315
834.959	23737
835.097	23501
835.235	23490
835.373	23455
835.511	23497
835.65	23372
835.788	23284
835.926	23098
836.064	23147
836.202	23052
836.34	23315
836.478	23273
836.615	23235
836.753	23364
836.891	23296
837.029	23250
837.167	23280
837.305	23200
837.443	23079
837.58	23075
837.718	23121
837.856	22991
837.993	22976
838.131	23086
838.269	22908
838.406	22953
838.544	22908
838.681	22710
838.819	22653
838.956	22622
839.094	22489
839.231	22634
839.369	22523
839.506	22816
839.643	22736
839.781	22443
839.918	22432
840.055	22527
840.193	22421
840.33	22402
840.467	22451
840.604	22478
840.742	22675
840.879	22230
841.016	22303
841.153	22223
841.29	22500
841.427	22363
841.564	22489
841.701	22417
841.838	22333
841.975	22200
842.112	22169
842.249	22215
842.385	22025
842.522	22382
842.659	22131
842.796	22051
842.933	22051
843.069	22025
843.206	21941
843.343	22207
843.479	22185
843.616	22078
843.752	21888
843.889	21979
844.025	22032
844.162	21880
844.298	22002
844.435	21903
844.571	21911
844.708	21987
844.844	22192
844.98	22200
845.117	22253
845.253	22253
845.389	22356
845.525	22660
845.661	23227
845.798	24121
845.934	24852
846.07	24962
846.206	25008
846.342	24471
846.478	23710
846.614	22687
846.75	22109
846.886	21736
847.022	21705
847.158	21595
847.294	21424
847.429	21439
847.565	21378
847.701	21610
847.837	21036
847.972	20982
848.108	21116
848.244	21074
848.379	20960
848.515	20887
848.65	20929
848.786	20910
848.921	20842
849.057	20906
849.192	20842
849.328	20777
849.463	20800
849.598	20830
849.734	20705
849.869	20629
850.004	20686
850.14	20568
850.275	20655
850.41	20480
850.545	20465
850.68	20499
850.815	20492
850.95	20480
851.085	20686
851.22	20541
851.355	20564
851.49	20511
851.625	20552
851.76	20473
851.895	20347
852.03	20446
852.165	20514
852.299	20655
852.434	20800
852.569	20644
852.703	20568
852.838	20556
852.973	20644
853.107	20541
853.242	20503
853.376	20507
853.511	20214
853.645	20320
853.78	20400
853.914	20305
854.048	20370
854.183	20351
854.317	20393
854.451	20541
854.585	20431
854.72	20518
854.854	20396
854.988	20351
855.122	20366
855.256	20244
855.39	20244
855.524	20355
855.658	20533
855.792	20389
855.926	20278
856.06	20377
856.194	20446
856.327	20332
856.461	20320
856.595	20271
856.729	20366
856.862	20427
856.996	20377
857.13	20446
857.263	20484
857.397	20446
857.53	20381
857.664	20377
857.797	20434
857.931	20370
858.064	20358
858.197	20537
858.331	20294
858.464	20229
858.597	20111
858.731	20248
858.864	20248
858.997	20229
859.13	20317
859.263	20271
859.396	20271
859.529	20229
859.662	20305
859.795	20183
859.928	20317
860.061	20419
860.194	20305
860.327	20366
860.46	20206
860.592	20396
860.725	20362
860.858	20339
860.99	20240
861.123	20115
861.256	20183
861.388	20313
861.521	20849
861.653	20092
861.786	20130
861.918	20081
862.05	20145
862.183	20320
862.315	20225
862.447	20358
862.58	20305
862.712	20149
862.844	20084
862.976	20134
863.108	20088
863.24	20301
863.372	19917
863.504	19974
863.636	19959
863.768	20001
863.9	20016
864.032	19909
864.164	19940
864.296	19871
864.428	20107
864.559	20111
864.691	20016
864.823	19982
864.954	19845
865.086	19928
865.217	19951
865.349	19822
865.48	19830
865.612	19909
865.743	20096
865.875	19989
866.006	19750
866.137	19917
866.269	19951
866.4	19841
866.531	19746
866.662	19780
866.793	19837
866.924	19772
867.055	19837
867.186	19719
867.317	19712
867.448	19704
867.579	19776
867.71	19765
867.841	19704
867.972	19784
868.103	19765
868.233	19742
868.364	19788
868.495	19894
868.625	20008
868.756	20054
868.886	19944
869.017	19982
869.147	20107
869.278	20153
869.408	20065
869.539	20046
869.669	20088
869.799	19978
869.929	20126
870.06	20153
870.19	20347
870.32	20290
870.45	20305
870.58	20461
870.71	20499
870.84	20514
870.97	20480
871.1	20461
871.23	20590
871.36	20598
871.489	20454
871.619	20575
871.749	20461
871.879	20613
872.008	20743
872.138	20640
872.267	20644
872.397	20480
872.526	20503
872.656	20511
872.785	20552
872.915	20629
873.044	20773
873.173	20590
873.303	20826
873.432	20621
873.561	20644
873.69	20693
873.819	20609
873.948	20792
874.077	20716
874.206	20663
874.335	20731
874.464	20758
874.593	21058
874.722	21020
874.851	20921
874.979	20796
875.108	21017
875.237	20906
875.365	21001
875.494	21001
875.623	21047
875.751	21100
875.88	21036
876.008	21161
876.136	21176
876.265	21382
876.393	21629
876.521	21507
876.65	21583
876.778	21397
876.906	21302
877.034	21401
877.162	21428
877.29	21424
877.418	21469
877.546	21378
877.674	21500
877.802	21450
877.93	21519
878.058	21466
878.185	21393
878.313	21595
878.441	21660
878.568	21504
878.696	21766
878.824	21861
878.951	21922
879.079	22276
879.206	22717
879.333	22858
879.461	22866
879.588	23105
879.715	23124
879.842	23204
879.97	22733
880.097	22325
880.224	22109
880.351	21823
880.478	21991
880.605	21641
880.732	21682
880.859	21785
880.986	21576
881.112	21633
881.239	21416
881.366	21450
881.493	21310
881.619	21367
881.746	21226
881.872	21180
881.999	21138
882.125	21104
882.252	21321
882.378	21165
882.505	21443
882.631	21138
882.757	21070
882.883	21165
883.01	21032
883.136	21028
883.262	20815
883.388	20750
883.514	21047
883.64	20963
883.766	20792
883.892	20731
884.018	20838
884.143	20906
884.269	21085
884.395	20663
884.52	20587
884.646	20670
884.772	20609
884.897	20499
885.023	20716
885.148	20583
885.274	20712
885.399	20659
885.524	20720
885.65	20609
885.775	20621
885.9	20579
886.025	20720
886.15	20598
886.275	20454
886.4	20320
886.525	20377
886.65	20221
886.775	20404
886.9	20446
887.025	20731
887.149	20450
887.274	20176
887.399	20157
887.523	20206
887.648	20103
887.773	19955
887.897	20130
888.021	20145
888.146	20096
888.27	20157
888.395	20073
888.519	20149
888.643	20126
888.767	20016
888.891	20062
889.015	19879
889.139	19902
889.263	19651
889.387	19765
889.511	19997
889.635	19906
889.759	19784
889.883	19807
890.006	19822
890.13	19944
890.254	19700
890.377	19708
890.501	19578
890.624	19472
890.748	19597
890.871	19373
890.995	19396
891.118	19270
891.241	19301
891.364	19369
891.488	19502
891.611	19236
891.734	19331
891.857	19510
891.98	19441
892.103	19449
892.226	19396
892.349	19198
892.471	19148
892.594	19251
892.717	19301
892.839	19312
892.962	19297
893.085	19228
893.207	19251
893.33	19171
893.452	19129
893.575	19240
893.697	19133
893.819	19327
893.941	19388
894.064	19339
894.186	19034
894.308	19050
894.43	19202
894.552	19293
894.674	19263
894.796	19190
894.918	19221
895.04	19133
895.161	19320
895.283	19107
895.405	19057
895.526	19099
895.648	19099
895.769	19259
895.891	19259
896.012	19278
896.134	19209
896.255	19198
896.376	19175
896.498	19232
896.619	19270
896.74	19293
896.861	19476
896.982	19552
897.103	19624
897.224	19506
897.345	19449
897.466	19335
897.587	19430
897.708	19609
897.828	19453
897.949	19346
898.07	19293
898.19	19285
898.311	19563
898.431	19301
898.552	19392
898.672	19468
898.792	19502
898.913	19392
899.033	19259
899.153	19080
899.273	19152
899.393	19122
899.513	19133
899.633	19110
899.753	19152
899.873	19141
899.993	19209
900.113	19080
900.232	19175
900.352	18996
900.472	19133
900.591	18863
900.711	19023
900.83	19027
900.95	19118
901.069	19206
901.189	18871
901.308	18574
901.427	18639
901.546	18547
901.665	18547
901.784	18555
901.904	18391
902.023	18300
902.141	18098
902.26	18091
902.379	18190
902.498	18117
902.617	18057
902.735	18060
902.854	18091
902.973	17920
903.091	17760
903.21	17707
903.328	17855
903.446	17672
903.565	17547
903.683	17535
903.801	17547
903.919	17474
904.038	17467
904.156	17341
904.274	17322
904.392	17220
904.51	17277
904.627	17174
904.745	17246
904.863	17315
904.981	17025
905.098	16968
905.216	16892
905.334	17022
905.451	16976
905.569	16877
905.686	16892
905.803	16938
905.921	16694
906.038	16793
906.155	16797
906.272	16641
906.389	16649
906.506	16512
906.623	16432
906.74	16470
906.857	16360
906.974	16318
907.091	16535
907.208	16512
907.324	16421
907.441	16360
907.557	16150
907.674	16120
907.79	16074
907.907	16029
908.023	16147
908.139	16143
908.256	16109
908.372	16067
908.488	15987
908.604	15865
908.72	15713
908.836	15922
908.952	15854
909.068	15857
909.184	15823
909.3	15850
909.415	15793
909.531	15800
909.647	15549
909.762	15530
909.878	15454
909.993	15492
910.108	15511
910.224	15561
910.339	15515
910.454	15428
910.57	15287
910.685	15252
910.8	15648
910.915	15363
911.03	15340
911.145	15176
911.259	15138
911.374	15161
911.489	15013
911.604	15074
911.718	14899
911.833	14971
911.947	14720
912.062	14640
912.176	14891
912.291	14735
912.405	14788
912.519	15009
912.633	15013
912.748	14883
912.862	14807
912.976	14606
913.09	14514
913.204	14720
913.318	14762
913.431	14823
913.545	14735
913.659	14781
913.772	14594
913.886	14632
914	14492
914.113	14514
914.226	14568
914.34	14579
914.453	14457
914.566	14575
914.68	14431
914.793	14438
914.906	14168
915.019	14210
915.132	14149
915.245	14240
915.358	14225
915.47	14164
915.583	14157
915.696	14206
915.809	14275
915.921	14320
916.034	14214
916.146	13993
916.259	13967
916.371	14161
916.483	14081
916.595	13951
916.708	14012
916.82	14046
916.932	13898
917.044	14039
917.156	13887
917.268	13795
917.38	13765
917.491	13811
917.603	13887
917.715	13879
917.826	13978
917.938	13784
918.049	13636
918.161	13757
918.272	13898
918.384	13909
918.495	13742
918.606	13636
918.717	13613
918.828	13586
918.939	13559
919.05	13525
919.161	13533
919.272	13343
919.383	13434
919.494	13521
919.604	13803
919.715	13506
919.826	13362
919.936	13445
920.047	13525
920.157	13548
920.267	13693
920.378	13521
920.488	13495
920.598	13693
920.708	13738
920.818	13620
920.928	13636
921.038	13921
921.148	13727
921.258	13445
921.368	13392
921.477	13335
921.587	13346
921.697	13110
921.806	13240
921.916	13137
922.025	12977
922.134	12897
922.244	12882
922.353	13042
922.462	12776
922.571	12692
922.68	12612
922.789	12650
922.898	12673
923.007	12525
923.116	12578
923.224	12566
923.333	12525
923.442	12452
923.55	12365
923.659	12426
923.767	12494
923.876	12353
923.984	12467
924.092	12308
924.201	12289
924.309	12292
924.417	12292
924.525	12201
924.633	12205
924.741	13247
924.849	12140
924.956	12319
925.064	12171
925.172	12030
925.279	12049
925.387	12007
925.494	12083
925.602	12136
925.709	12060
925.816	12011
925.924	12038
926.031	12076
926.138	12026
926.245	12079
926.352	11923
926.459	12106
926.566	12136
926.673	11939
926.779	11764
926.886	11786
926.993	11646
927.099	11634
927.206	11668
927.312	11532
927.419	11691
927.525	11661
927.631	11726
927.737	11566
927.843	11535
927.95	11364
928.056	11406
928.162	11524
928.267	11463
928.373	12030
928.479	11581
928.585	11364
928.69	11459
928.796	11372
928.901	11349
929.007	11174
929.112	11307
929.218	11337
929.323	11242
929.428	11261
929.533	11368
929.638	11151
929.743	11185
929.848	11181
929.953	11166
930.058	10991
930.163	10927
930.267	10980
930.372	11083
930.477	10786
930.581	11124
930.685	10866
930.79	10801
930.894	10862
930.998	10801
931.103	10915
931.207	10573
931.311	10478
931.415	10459
931.519	10257
931.623	10223
