Data from test_V78500241_2487.txt Node
Date: Fri Mar 25 14:51:01 CST 2022
User: usil
Spectrometer: V785-0024
Trigger mode: 0
Integration Time (sec): 4.000000E-1
Scans to average: 1
Nonlinearity correction enabled: false
Boxcar width: 0
Storing dark spectrum: false
XAxis mode: Wavelengths
Number of Pixels in Spectrum: 1024
>>>>>Begin Spectral Data<<<<<
801.071	22063
801.214	22040
801.356	21713
801.499	21755
801.641	21538
801.783	21439
801.926	21435
802.068	21317
802.211	21393
802.353	21165
802.496	20986
802.638	21093
802.78	20883
802.923	20845
803.065	20777
803.208	20868
803.35	20823
803.492	20944
803.635	20868
803.777	20785
803.919	20830
804.061	21161
804.204	20811
804.346	20731
804.488	20530
804.63	20716
804.773	20777
804.915	20731
805.057	20800
805.199	20746
805.341	20689
805.483	20880
805.626	20830
805.768	20617
805.91	20773
806.052	20849
806.194	20556
806.336	20815
806.478	20640
806.62	20769
806.762	20735
806.904	20849
807.046	21085
807.188	21074
807.33	20998
807.472	20921
807.614	20963
807.756	20868
807.898	20826
808.04	20708
808.182	20724
808.324	20785
808.465	20910
808.607	20982
808.749	20914
808.891	21252
809.033	21119
809.174	21100
809.316	20982
809.458	21135
809.6	21055
809.741	21089
809.883	21138
810.025	21272
810.166	21230
810.308	21226
810.45	21096
810.591	21047
810.733	20960
810.875	20921
811.016	20800
811.158	20826
811.299	20853
811.441	20986
811.582	20902
811.724	20842
811.865	20765
812.007	20883
812.148	20788
812.29	20769
812.431	20887
812.573	21188
812.714	21260
812.855	21222
812.997	21420
813.138	21526
813.279	21443
813.421	21397
813.562	21211
813.703	21062
813.845	20914
813.986	20724
814.127	20503
814.268	20431
814.41	20495
814.551	20393
814.692	20499
814.833	20248
814.974	20176
815.115	20374
815.256	20298
815.397	20206
815.539	20225
815.68	20016
815.821	20035
815.962	20149
816.103	20172
816.244	19856
816.385	19967
816.526	19822
816.666	19791
816.807	19567
816.948	19563
817.089	19715
817.23	19647
817.371	19552
817.512	19632
817.653	19449
817.793	19403
817.934	19635
818.075	19609
818.216	19457
818.356	19460
818.497	19384
818.638	19236
818.778	19194
818.919	19160
819.06	19251
819.2	19388
819.341	19377
819.481	19430
819.622	19529
819.762	19643
819.903	19628
820.043	19594
820.184	19537
820.324	19483
820.465	19384
820.605	19415
820.746	19460
820.886	19320
821.026	19476
821.167	19506
821.307	19422
821.447	19422
821.588	19301
821.728	19251
821.868	19126
822.008	18935
822.149	18913
822.289	18871
822.429	18696
822.569	18506
822.709	18604
822.849	18471
822.99	18414
823.13	18323
823.27	18380
823.41	18243
823.55	18144
823.69	18182
823.83	18171
823.97	18125
824.11	17988
824.25	17946
824.389	17855
824.529	18022
824.669	18011
824.809	18053
824.949	18026
825.089	18148
825.228	18098
825.368	17863
825.508	17798
825.648	17828
825.787	17794
825.927	17809
826.067	17786
826.206	17668
826.346	17786
826.485	17718
826.625	17733
826.765	17809
826.904	17756
827.044	17543
827.183	17379
827.323	17486
827.462	17653
827.601	17448
827.741	17356
827.88	17474
828.02	17417
828.159	17474
828.298	17463
828.437	17539
828.577	17368
828.716	17528
828.855	17463
828.994	17250
829.134	17280
829.273	17254
829.412	17155
829.551	17193
829.69	17216
829.829	17212
829.968	17341
830.107	17341
830.246	17231
830.385	17098
830.524	17162
830.663	17029
830.802	16957
830.941	16919
831.08	16904
831.219	16911
831.357	16980
831.496	17060
831.635	16831
831.774	16744
831.913	16793
832.051	16672
832.19	16603
832.329	16618
832.467	16561
832.606	16417
832.744	16615
832.883	16459
833.022	16405
833.16	16497
833.299	16561
833.437	16645
833.576	16634
833.714	16497
833.852	16573
833.991	16622
834.129	16717
834.267	16672
834.406	16569
834.544	16542
834.682	16546
834.821	16554
834.959	16759
835.097	16451
835.235	16713
835.373	16668
835.511	16668
835.65	16546
835.788	16436
835.926	16310
836.064	16276
836.202	16337
836.34	16577
836.478	16649
836.615	16527
836.753	16478
836.891	16641
837.029	16535
837.167	16428
837.305	16379
837.443	16447
837.58	16310
837.718	16455
837.856	16413
837.993	16360
838.131	16333
838.269	16276
838.406	16375
838.544	16272
838.681	16074
838.819	15945
838.956	15937
839.094	15842
839.231	15937
839.369	16074
839.506	16299
839.643	16078
839.781	15876
839.918	15911
840.055	15994
840.193	15922
840.33	15892
840.467	15949
840.604	15770
840.742	16215
840.879	15819
841.016	15827
841.153	15778
841.29	16048
841.427	15831
841.564	15899
841.701	15895
841.838	15793
841.975	15701
842.112	15804
842.249	15679
842.385	15572
842.522	15850
842.659	15766
842.796	15652
842.933	15759
843.069	15682
843.206	15713
843.343	15739
843.479	15736
843.616	15800
843.752	15424
843.889	15580
844.025	15614
844.162	15412
844.298	15686
844.435	15462
844.571	15393
844.708	15610
844.844	15679
844.98	15599
845.117	15618
845.253	15431
845.389	15344
845.525	15439
845.661	15397
845.798	15329
845.934	15298
846.07	15222
846.206	15283
846.342	15393
846.478	15218
846.614	15062
846.75	15062
846.886	15112
847.022	15119
847.158	15123
847.294	15032
847.429	15100
847.565	14994
847.701	15233
847.837	14750
847.972	14758
848.108	14868
848.244	14910
848.379	14769
848.515	14625
848.65	14583
848.786	14708
848.921	14682
849.057	14678
849.192	14648
849.328	14724
849.463	14670
849.598	14667
849.734	14545
849.869	14560
850.004	14450
850.14	14457
850.275	14446
850.41	14381
850.545	14381
850.68	14309
850.815	14355
850.95	14404
851.085	14492
851.22	14537
851.355	14389
851.49	14393
851.625	14309
851.76	14355
851.895	14294
852.03	14271
852.165	14423
852.299	14419
852.434	14495
852.569	14412
852.703	14503
852.838	14484
852.973	14610
853.107	14488
853.242	14362
853.376	14278
853.511	14225
853.645	14233
853.78	14301
853.914	14294
854.048	14278
854.183	14290
854.317	14286
854.451	14358
854.585	14275
854.72	14427
854.854	14328
854.988	14130
855.122	14256
855.256	14187
855.39	14263
855.524	14492
855.658	14286
855.792	14309
855.926	14301
856.06	14343
856.194	14400
856.327	14298
856.461	14218
856.595	14168
856.729	14294
856.862	14423
856.996	14434
857.13	14267
857.263	14450
857.397	14336
857.53	14298
857.664	14305
857.797	14328
857.931	14454
858.064	14438
858.197	14442
858.331	14317
858.464	14210
858.597	14180
858.731	14157
858.864	14275
858.997	14172
859.13	14225
859.263	14199
859.396	14290
859.529	14298
859.662	14233
859.795	14252
859.928	14294
860.061	14412
860.194	14427
860.327	14336
860.46	14256
860.592	14415
860.725	14389
860.858	14366
860.99	14290
861.123	14294
861.256	14263
861.388	14278
861.521	14906
861.653	14016
861.786	13974
861.918	14126
862.05	14275
862.183	14221
862.315	14305
862.447	14336
862.58	14210
862.712	13947
862.844	13997
862.976	14107
863.108	14138
863.24	14393
863.372	13986
863.504	14027
863.636	13986
863.768	14081
863.9	14073
864.032	13978
864.164	14008
864.296	14096
864.428	14103
864.559	14119
864.691	14130
864.823	14100
864.954	14134
865.086	14111
865.217	14084
865.349	14027
865.48	14016
865.612	14001
865.743	14191
865.875	14107
866.006	14031
866.137	14024
866.269	14058
866.4	14088
866.531	14020
866.662	13883
866.793	13940
866.924	14058
867.055	14084
867.186	14092
867.317	14058
867.448	13951
867.579	13967
867.71	13974
867.841	13883
867.972	13967
868.103	14077
868.233	14172
868.364	14043
868.495	14035
868.625	14202
868.756	14358
868.886	14221
869.017	14298
869.147	14419
869.278	14374
869.408	14290
869.539	14256
869.669	14358
869.799	14305
869.929	14400
870.06	14374
870.19	14568
870.32	14613
870.45	14667
870.58	14617
870.71	14804
870.84	14781
870.97	14697
871.1	14689
871.23	14842
871.36	14906
871.489	14834
871.619	14868
871.749	14895
871.879	14815
872.008	15028
872.138	14842
872.267	14929
872.397	14880
872.526	14743
872.656	14670
872.785	14735
872.915	14967
873.044	14963
873.173	14941
873.303	15001
873.432	15013
873.561	15058
873.69	14868
873.819	14982
873.948	14971
874.077	15062
874.206	15009
874.335	14944
874.464	15211
874.593	15180
874.722	15161
874.851	15306
874.979	15287
875.108	15260
875.237	15218
875.365	15184
875.494	15184
875.623	15389
875.751	15233
875.88	15294
876.008	15412
876.136	15462
876.265	15648
876.393	15816
876.521	15755
876.65	15709
876.778	15713
876.906	15671
877.034	15580
877.162	15637
877.29	15576
877.418	15808
877.546	15724
877.674	15675
877.802	15660
877.93	15698
878.058	15603
878.185	15576
878.313	15679
878.441	15705
878.568	15580
878.696	15641
878.824	15713
878.951	15797
879.079	15808
879.206	15918
879.333	15804
879.461	15774
879.588	15732
879.715	15926
879.842	16006
879.97	15766
880.097	15477
880.224	15523
880.351	15481
880.478	15519
880.605	15473
880.732	15542
880.859	15728
880.986	15511
881.112	15553
881.239	15348
881.366	15378
881.493	15313
881.619	15085
881.746	15252
881.872	15089
881.999	15108
882.125	15051
882.252	15233
882.378	15192
882.505	15302
882.631	15142
882.757	15001
882.883	15150
883.01	14982
883.136	14963
883.262	14899
883.388	14857
883.514	14971
883.64	15077
883.766	14933
883.892	14819
884.018	14842
884.143	14944
884.269	14944
884.395	14777
884.52	14659
884.646	14769
884.772	14670
884.897	14571
885.023	14693
885.148	14800
885.274	14887
885.399	14807
885.524	14788
885.65	14838
885.775	14636
885.9	14663
886.025	14826
886.15	14785
886.275	14594
886.4	14667
886.525	14632
886.65	14602
886.775	14575
886.9	14720
887.025	14921
887.149	14705
887.274	14575
887.399	14465
887.523	14545
887.648	14473
887.773	14412
887.897	14590
888.021	14587
888.146	14530
888.27	14613
888.395	14693
888.519	14568
888.643	14617
888.767	14594
888.891	14393
889.015	14343
889.139	14419
889.263	14244
889.387	14594
889.511	14590
889.635	14541
889.759	14431
889.883	14332
890.006	14381
890.13	14511
890.254	14385
890.377	14370
890.501	14126
890.624	14195
890.748	14202
890.871	14100
890.995	14077
891.118	14031
891.241	14039
891.364	13986
891.488	14221
891.611	14058
891.734	14126
891.857	14161
891.98	14130
892.103	14206
892.226	14134
892.349	14103
892.471	13936
892.594	14012
892.717	14043
892.839	14058
892.962	14130
893.085	14084
893.207	14123
893.33	13940
893.452	13982
893.575	14164
893.697	14027
893.819	14259
893.941	14320
894.064	14294
894.186	14073
894.308	14088
894.43	14199
894.552	14263
894.674	14313
894.796	14096
894.918	14035
895.04	14096
895.161	14332
895.283	14126
895.405	14168
895.526	14142
895.648	14221
895.769	14195
895.891	14305
896.012	14339
896.134	14320
896.255	14176
896.376	14225
896.498	14278
896.619	14309
896.74	14218
896.861	14381
896.982	14629
897.103	14796
897.224	14499
897.345	14465
897.466	14511
897.587	14583
897.708	14640
897.828	14651
897.949	14579
898.07	14457
898.19	14400
898.311	14663
898.431	14518
898.552	14621
898.672	14644
898.792	14724
898.913	14712
899.033	14583
899.153	14412
899.273	14355
899.393	14469
899.513	14511
899.633	14408
899.753	14393
899.873	14473
899.993	14549
900.113	14400
900.232	14503
900.352	14389
900.472	14370
900.591	14259
900.711	14282
900.83	14332
900.95	14450
901.069	14374
901.189	14248
901.308	14092
901.427	14039
901.546	14020
901.665	14043
901.784	14065
901.904	13959
902.023	13784
902.141	13582
902.26	13620
902.379	13597
902.498	13582
902.617	13487
902.735	13719
902.854	13563
902.973	13453
903.091	13270
903.21	13308
903.328	13289
903.446	13274
903.565	13198
903.683	13225
903.801	12985
903.919	13160
904.038	13141
904.156	12993
904.274	13053
904.392	12989
904.51	12939
904.627	12886
904.745	13038
904.863	13023
904.981	12768
905.098	12726
905.216	12631
905.334	12642
905.451	12734
905.569	12601
905.686	12662
905.803	12711
905.921	12513
906.038	12566
906.155	12407
906.272	12399
906.389	12330
906.506	12209
906.623	12285
906.74	12209
906.857	12076
906.974	12148
907.091	12365
907.208	12422
907.324	12262
907.441	12087
907.557	12049
907.674	11996
907.79	11935
907.907	12007
908.023	12049
908.139	12076
908.256	11904
908.372	11920
908.488	11889
908.604	11783
908.72	11691
908.836	11771
908.952	11771
909.068	11821
909.184	11863
909.3	11805
909.415	11851
909.531	11733
909.647	11577
909.762	11573
909.878	11463
909.993	11551
910.108	11474
910.224	11516
910.339	11562
910.454	11376
910.57	11364
910.685	11322
910.8	11570
910.915	11493
911.03	11429
911.145	11220
911.259	11246
911.374	11246
911.489	11090
911.604	11056
911.718	11079
911.833	11003
911.947	10812
912.062	10801
912.176	10949
912.291	10984
912.405	11010
912.519	11140
912.633	11216
912.748	11003
912.862	10987
912.976	10900
913.09	10759
913.204	10877
913.318	10869
913.431	10953
913.545	10976
913.659	10991
913.772	10839
913.886	10778
914	10702
914.113	10786
914.226	10862
914.34	10797
914.453	10622
914.566	10797
914.68	10721
914.793	10694
914.906	10508
915.019	10417
915.132	10379
915.245	10493
915.358	10546
915.47	10424
915.583	10519
915.696	10443
915.809	10618
915.921	10656
916.034	10489
916.146	10466
916.259	10337
916.371	10485
916.483	10504
916.595	10421
916.708	10481
916.82	10417
916.932	10306
917.044	10451
917.156	10398
917.268	10329
917.38	10348
917.491	10246
917.603	10363
917.715	10337
917.826	10443
917.938	10333
918.049	10215
918.161	10352
918.272	10462
918.384	10462
918.495	10344
918.606	10204
918.717	10105
918.828	10173
918.939	10272
919.05	10112
919.161	10120
919.272	9975
919.383	9956
919.494	10261
919.604	10512
919.715	10257
919.826	10120
919.936	10192
920.047	10299
920.157	10242
920.267	10390
920.378	10261
920.488	10147
920.598	10398
920.708	10516
920.818	10436
920.928	10455
921.038	10523
921.148	10558
921.258	10249
921.368	10177
921.477	10067
921.587	10044
921.697	9922
921.806	10048
921.916	9899
922.025	9800
922.134	9732
922.244	9698
922.353	9747
922.462	9637
922.571	9603
922.68	9443
922.789	9424
922.898	9454
923.007	9443
923.116	9561
923.224	9424
923.333	9401
923.442	9412
923.55	9340
923.659	9340
923.767	9412
923.876	9241
923.984	9351
924.092	9264
924.201	9397
924.309	9298
924.417	9359
924.525	9207
924.633	9283
924.741	10051
924.849	9085
924.956	9298
925.064	9066
925.172	8982
925.279	9055
925.387	9089
925.494	9150
925.602	9226
925.709	9203
925.816	8994
925.924	9157
926.031	9184
926.138	9150
926.245	9150
926.352	9093
926.459	9188
926.566	9256
926.673	9089
926.779	9020
926.886	8910
926.993	8857
927.099	8838
927.206	8739
927.312	8766
927.419	8864
927.525	8906
927.631	8868
927.737	8735
927.843	8701
927.95	8610
928.056	8777
928.162	8720
928.267	8708
928.373	9378
928.479	8868
928.585	8537
928.69	8697
928.796	8758
928.901	8655
929.007	8514
929.112	8594
929.218	8583
929.323	8575
929.428	8625
929.533	8689
929.638	8503
929.743	8549
929.848	8560
929.953	8499
930.058	8427
930.163	8298
930.267	8324
930.372	8476
930.477	8355
930.581	8598
930.685	8385
930.79	8282
930.894	8183
930.998	8168
931.103	8457
931.207	8031
931.311	7997
931.415	7974
931.519	7799
931.623	7757
