Data from test_V78500241_1381.txt Node
Date: Fri Mar 25 14:43:19 CST 2022
User: usil
Spectrometer: V785-0024
Trigger mode: 0
Integration Time (sec): 4.000000E-1
Scans to average: 1
Nonlinearity correction enabled: false
Boxcar width: 0
Storing dark spectrum: false
XAxis mode: Wavelengths
Number of Pixels in Spectrum: 1024
>>>>>Begin Spectral Data<<<<<
801.071	22390
801.214	22371
801.356	22025
801.499	21979
801.641	21713
801.783	21857
801.926	21717
802.068	21713
802.211	21549
802.353	21637
802.496	21405
802.638	21344
802.78	21245
802.923	21173
803.065	21028
803.208	21039
803.35	21142
803.492	21176
803.635	21321
803.777	21150
803.919	21233
804.061	21511
804.204	21127
804.346	21104
804.488	20861
804.63	21032
804.773	21013
804.915	21036
805.057	21268
805.199	21081
805.341	21211
805.483	21161
805.626	21207
805.768	21070
805.91	21058
806.052	21036
806.194	20948
806.336	21135
806.478	21062
806.62	20986
806.762	21070
806.904	21241
807.046	21458
807.188	21287
807.33	21443
807.472	21454
807.614	21374
807.756	21370
807.898	21161
808.04	21123
808.182	21252
808.324	21302
808.465	21389
808.607	21717
808.749	21656
808.891	21819
809.033	21823
809.174	21812
809.316	21709
809.458	21739
809.6	21534
809.741	21656
809.883	21583
810.025	21736
810.166	21755
810.308	21583
810.45	21526
810.591	21557
810.733	21469
810.875	21245
811.016	21207
811.158	21085
811.299	21260
811.441	21306
811.582	21313
811.724	21275
811.865	21275
812.007	21211
812.148	21211
812.29	21275
812.431	21401
812.573	21545
812.714	21633
812.855	21633
812.997	21808
813.138	22010
813.279	21804
813.421	21622
813.562	21690
813.703	21523
813.845	21462
813.986	21100
814.127	20986
814.268	20819
814.41	20868
814.551	20785
814.692	20838
814.833	20674
814.974	20678
815.115	20731
815.256	20564
815.397	20705
815.539	20644
815.68	20556
815.821	20484
815.962	20457
816.103	20476
816.244	20294
816.385	20225
816.526	20267
816.666	20111
816.807	19959
816.948	20073
817.089	20020
817.23	19997
817.371	19925
817.512	19993
817.653	19830
817.793	19864
817.934	19970
818.075	19986
818.216	20005
818.356	19871
818.497	19830
818.638	19472
818.778	19677
818.919	19533
819.06	19586
819.2	19772
819.341	19769
819.481	19795
819.622	19913
819.762	20096
819.903	20005
820.043	19887
820.184	19780
820.324	20001
820.465	20046
820.605	19811
820.746	19830
820.886	19727
821.026	19849
821.167	19906
821.307	19902
821.447	19913
821.588	19677
821.728	19689
821.868	19426
822.008	19209
822.149	19312
822.289	19160
822.429	18989
822.569	18928
822.709	18951
822.849	18882
822.99	18802
823.13	18681
823.27	18631
823.41	18631
823.55	18475
823.69	18604
823.83	18650
823.97	18574
824.11	18407
824.25	18414
824.389	18399
824.529	18414
824.669	18365
824.809	18441
824.949	18483
825.089	18319
825.228	18452
825.368	18224
825.508	18228
825.648	18095
825.787	18232
825.927	18273
826.067	18129
826.206	18140
826.346	18140
826.485	18182
826.625	18159
826.765	18266
826.904	18144
827.044	17973
827.183	17901
827.323	17786
827.462	17958
827.601	17760
827.741	17821
827.88	17859
828.02	17680
828.159	17824
828.298	17764
828.437	17935
828.577	17794
828.716	18007
828.855	17786
828.994	17661
829.134	17543
829.273	17577
829.412	17543
829.551	17539
829.69	17638
829.829	17596
829.968	17684
830.107	17684
830.246	17558
830.385	17539
830.524	17482
830.663	17395
830.802	17326
830.941	17212
831.08	17147
831.219	17334
831.357	17288
831.496	17414
831.635	17189
831.774	17155
831.913	17159
832.051	17124
832.19	17064
832.329	17033
832.467	16957
832.606	16831
832.744	16930
832.883	16892
833.022	16828
833.16	17045
833.299	16908
833.437	16900
833.576	16961
833.714	16953
833.852	16919
833.991	17037
834.129	17003
834.267	17033
834.406	16930
834.544	16968
834.682	16934
834.821	16881
834.959	17094
835.097	17018
835.235	16938
835.373	16946
835.511	16911
835.65	16881
835.788	16911
835.926	16748
836.064	16664
836.202	16675
836.34	16892
836.478	16862
836.615	16850
836.753	16862
836.891	16942
837.029	16972
837.167	16866
837.305	16748
837.443	16828
837.58	16637
837.718	16831
837.856	16824
837.993	16611
838.131	16645
838.269	16679
838.406	16626
838.544	16588
838.681	16447
838.819	16417
838.956	16257
839.094	16325
839.231	16333
839.369	16295
839.506	16691
839.643	16569
839.781	16306
839.918	16238
840.055	16306
840.193	16379
840.33	16196
840.467	16276
840.604	16333
840.742	16542
840.879	16093
841.016	16211
841.153	16207
841.29	16386
841.427	16325
841.564	16200
841.701	16299
841.838	16226
841.975	16177
842.112	16090
842.249	16078
842.385	16013
842.522	16272
842.659	16029
842.796	16063
842.933	16097
843.069	16006
843.206	16063
843.343	16093
843.479	16017
843.616	16059
843.752	15907
843.889	15781
844.025	15972
844.162	15812
844.298	15979
844.435	15789
844.571	15793
844.708	15884
844.844	16097
844.98	15994
845.117	16017
845.253	15846
845.389	15778
845.525	15800
845.661	15953
845.798	15781
845.934	15953
846.07	15911
846.206	16051
846.342	16101
846.478	15789
846.614	15523
846.75	15431
846.886	15374
847.022	15481
847.158	15496
847.294	15450
847.429	15336
847.565	15344
847.701	15591
847.837	15127
847.972	15165
848.108	15214
848.244	15150
848.379	15085
848.515	14990
848.65	14925
848.786	14975
848.921	15097
849.057	15062
849.192	15108
849.328	15043
849.463	14933
849.598	15020
849.734	14914
849.869	14861
850.004	14743
850.14	14743
850.275	14891
850.41	14708
850.545	14769
850.68	14758
850.815	14800
850.95	14697
851.085	14918
851.22	14842
851.355	14788
851.49	14720
851.625	14800
851.76	14705
851.895	14648
852.03	14644
852.165	14750
852.299	14769
852.434	14990
852.569	14788
852.703	14758
852.838	14811
852.973	14918
853.107	14933
853.242	14868
853.376	14701
853.511	14602
853.645	14549
853.78	14777
853.914	14750
854.048	14651
854.183	14613
854.317	14640
854.451	14849
854.585	14590
854.72	14594
854.854	14674
854.988	14579
855.122	14632
855.256	14457
855.39	14598
855.524	14697
855.658	14701
855.792	14781
855.926	14716
856.06	14705
856.194	14712
856.327	14693
856.461	14663
856.595	14613
856.729	14571
856.862	14849
856.996	14682
857.13	14762
857.263	14823
857.397	14861
857.53	14705
857.664	14693
857.797	14842
857.931	14834
858.064	14636
858.197	14701
858.331	14689
858.464	14663
858.597	14560
858.731	14556
858.864	14667
858.997	14602
859.13	14720
859.263	14720
859.396	14735
859.529	14651
859.662	14568
859.795	14693
859.928	14674
860.061	14785
860.194	14861
860.327	14785
860.46	14689
860.592	14712
860.725	14849
860.858	14914
860.99	14705
861.123	14629
861.256	14625
861.388	14765
861.521	15481
861.653	14575
861.786	14469
861.918	14537
862.05	14625
862.183	14636
862.315	14636
862.447	14735
862.58	14587
862.712	14355
862.844	14446
862.976	14473
863.108	14492
863.24	14731
863.372	14393
863.504	14324
863.636	14336
863.768	14556
863.9	14419
864.032	14457
864.164	14419
864.296	14457
864.428	14457
864.559	14446
864.691	14492
864.823	14431
864.954	14355
865.086	14518
865.217	14434
865.349	14381
865.48	14374
865.612	14362
865.743	14594
865.875	14488
866.006	14366
866.137	14457
866.269	14499
866.4	14324
866.531	14408
866.662	14339
866.793	14419
866.924	14332
867.055	14389
867.186	14400
867.317	14404
867.448	14263
867.579	14347
867.71	14385
867.841	14290
867.972	14412
868.103	14385
868.233	14396
868.364	14381
868.495	14537
868.625	14651
868.756	14773
868.886	14610
869.017	14667
869.147	14796
869.278	14754
869.408	14739
869.539	14743
869.669	14739
869.799	14594
869.929	14845
870.06	14815
870.19	15093
870.32	14956
870.45	15013
870.58	15127
870.71	15131
870.84	15169
870.97	15070
871.1	15058
871.23	15161
871.36	15195
871.489	15230
871.619	15222
871.749	15298
871.879	15313
872.008	15329
872.138	15344
872.267	15275
872.397	15100
872.526	15135
872.656	15062
872.785	15138
872.915	15332
873.044	15370
873.173	15252
873.303	15389
873.432	15367
873.561	15382
873.69	15279
873.819	15317
873.948	15393
874.077	15370
874.206	15207
874.335	15370
874.464	15389
874.593	15679
874.722	15511
874.851	15622
874.979	15739
875.108	15679
875.237	15610
875.365	15648
875.494	15633
875.623	15694
875.751	15606
875.88	15667
876.008	15774
876.136	15960
876.265	16086
876.393	16166
876.521	16143
876.65	16181
876.778	16169
876.906	15918
877.034	15926
877.162	15960
877.29	15941
877.418	16063
877.546	15975
877.674	15960
877.802	16086
877.93	16124
878.058	16048
878.185	15972
878.313	16074
878.441	16002
878.568	15831
878.696	16002
878.824	16086
878.951	16219
879.079	16265
879.206	16413
879.333	16352
879.461	16261
879.588	16303
879.715	16459
879.842	16428
879.97	16253
880.097	15941
880.224	15975
880.351	15937
880.478	16010
880.605	15880
880.732	15918
880.859	16112
880.986	15975
881.112	16071
881.239	15641
881.366	15823
881.493	15469
881.619	15618
881.746	15595
881.872	15500
881.999	15504
882.125	15553
882.252	15637
882.378	15660
882.505	15736
882.631	15545
882.757	15317
882.883	15473
883.01	15378
883.136	15378
883.262	15378
883.388	15252
883.514	15344
883.64	15416
883.766	15332
883.892	15230
884.018	15207
884.143	15370
884.269	15557
884.395	15036
884.52	15184
884.646	15165
884.772	15039
884.897	14963
885.023	15047
885.148	15176
885.274	15211
885.399	15226
885.524	15043
885.65	15066
885.775	15017
885.9	15017
886.025	15146
886.15	15142
886.275	15036
886.4	15123
886.525	15043
886.65	14910
886.775	14975
886.9	15142
887.025	15207
887.149	15104
887.274	14918
887.399	14842
887.523	14887
887.648	14819
887.773	14819
887.897	14944
888.021	14975
888.146	14952
888.27	14967
888.395	15043
888.519	14944
888.643	14891
888.767	14960
888.891	14830
889.015	14762
889.139	14678
889.263	14739
889.387	14937
889.511	14914
889.635	14880
889.759	14735
889.883	14708
890.006	14815
890.13	14815
890.254	14708
890.377	14724
890.501	14640
890.624	14492
890.748	14610
890.871	14587
890.995	14355
891.118	14328
891.241	14446
891.364	14484
891.488	14564
891.611	14320
891.734	14465
891.857	14503
891.98	14476
892.103	14423
892.226	14389
892.349	14404
892.471	14278
892.594	14408
892.717	14389
892.839	14469
892.962	14465
893.085	14473
893.207	14495
893.33	14374
893.452	14355
893.575	14473
893.697	14351
893.819	14495
893.941	14549
894.064	14583
894.186	14408
894.308	14336
894.43	14564
894.552	14655
894.674	14541
894.796	14434
894.918	14412
895.04	14412
895.161	14636
895.283	14564
895.405	14556
895.526	14541
895.648	14526
895.769	14598
895.891	14571
896.012	14686
896.134	14636
896.255	14629
896.376	14598
896.498	14492
896.619	14575
896.74	14511
896.861	14659
896.982	14883
897.103	15085
897.224	14849
897.345	14830
897.466	14823
897.587	14857
897.708	14967
897.828	14815
897.949	14864
898.07	14712
898.19	14754
898.311	14971
898.431	14864
898.552	14857
898.672	15074
898.792	15070
898.913	14937
899.033	14785
899.153	14727
899.273	14663
899.393	14697
899.513	14758
899.633	14807
899.753	14811
899.873	14678
899.993	14872
900.113	14842
900.232	14845
900.352	14762
900.472	14716
900.591	14670
900.711	14708
900.83	14507
900.95	14746
901.069	14819
901.189	14571
901.308	14366
901.427	14336
901.546	14221
901.665	14396
901.784	14351
901.904	14244
902.023	14069
902.141	13974
902.26	13917
902.379	13940
902.498	13860
902.617	13868
902.735	13845
902.854	13868
902.973	13822
903.091	13677
903.21	13575
903.328	13624
903.446	13552
903.565	13415
903.683	13396
903.801	13308
903.919	13339
904.038	13411
904.156	13244
904.274	13255
904.392	13217
904.51	13183
904.627	13190
904.745	13282
904.863	13343
904.981	13038
905.098	12916
905.216	12928
905.334	12954
905.451	12935
905.569	12890
905.686	13061
905.803	12962
905.921	12753
906.038	12810
906.155	12802
906.272	12791
906.389	12692
906.506	12467
906.623	12502
906.74	12570
906.857	12395
906.974	12471
907.091	12593
907.208	12642
907.324	12585
907.441	12483
907.557	12194
907.674	12213
907.79	12190
907.907	12247
908.023	12304
908.139	12167
908.256	12235
908.372	12190
908.488	12049
908.604	12030
908.72	12072
908.836	11999
908.952	12091
909.068	12106
909.184	12106
909.3	11954
909.415	12095
909.531	12106
909.647	11840
909.762	11798
909.878	11821
909.993	11714
910.108	11718
910.224	11798
910.339	11756
910.454	11729
910.57	11604
910.685	11611
910.8	11783
910.915	11748
911.03	11688
911.145	11467
911.259	11455
911.374	11417
911.489	11360
911.604	11330
911.718	11231
911.833	11273
911.947	11162
912.062	11060
912.176	11242
912.291	11246
912.405	11197
912.519	11440
912.633	11383
912.748	11337
912.862	11288
912.976	11117
913.09	11052
913.204	11117
913.318	11033
913.431	11166
913.545	11231
913.659	11181
913.772	11079
913.886	10949
914	10972
914.113	11128
914.226	11025
914.34	11090
914.453	10961
914.566	11067
914.68	10892
914.793	10915
914.906	10786
915.019	10626
915.132	10611
915.245	10679
915.358	10679
915.47	10679
915.583	10793
915.696	10801
915.809	10793
915.921	10869
916.034	10702
916.146	10664
916.259	10706
916.371	10755
916.483	10778
916.595	10664
916.708	10538
916.82	10675
916.932	10588
917.044	10683
917.156	10584
917.268	10462
917.38	10584
917.491	10523
917.603	10519
917.715	10694
917.826	10668
917.938	10538
918.049	10375
918.161	10523
918.272	10744
918.384	10717
918.495	10569
918.606	10424
918.717	10375
918.828	10440
918.939	10462
919.05	10367
919.161	10417
919.272	10253
919.383	10287
919.494	10462
919.604	10740
919.715	10512
919.826	10421
919.936	10428
920.047	10485
920.157	10531
920.267	10660
920.378	10443
920.488	10443
920.598	10584
920.708	10828
920.818	10706
920.928	10668
921.038	10793
921.148	10767
921.258	10481
921.368	10523
921.477	10371
921.587	10344
921.697	10238
921.806	10379
921.916	10181
922.025	9945
922.134	9964
922.244	9968
922.353	10055
922.462	9819
922.571	9880
922.68	9686
922.789	9671
922.898	9717
923.007	9580
923.116	9762
923.224	9671
923.333	9736
923.442	9530
923.55	9576
923.659	9507
923.767	9595
923.876	9526
923.984	9686
924.092	9523
924.201	9572
924.309	9618
924.417	9614
924.525	9412
924.633	9591
924.741	10428
924.849	9348
924.956	9473
925.064	9378
925.172	9283
925.279	9291
925.387	9408
925.494	9348
925.602	9481
925.709	9363
925.816	9306
925.924	9340
926.031	9477
926.138	9351
926.245	9462
926.352	9260
926.459	9412
926.566	9447
926.673	9313
926.779	9249
926.886	9184
926.993	9028
927.099	9138
927.206	9093
927.312	9013
927.419	9127
927.525	9051
927.631	9089
927.737	8937
927.843	8944
927.95	8758
928.056	8895
928.162	8994
928.267	8990
928.373	9618
928.479	9131
928.585	8800
928.69	8906
928.796	8941
928.901	8857
929.007	8739
929.112	8868
929.218	8819
929.323	8826
929.428	8743
929.533	8895
929.638	8701
929.743	8800
929.848	8815
929.953	8720
930.058	8667
930.163	8552
930.267	8533
930.372	8689
930.477	8556
930.581	8754
930.685	8545
930.79	8446
930.894	8488
930.998	8461
931.103	8708
931.207	8229
931.311	8161
931.415	8145
931.519	8005
931.623	7902
