Data from test_V78500241_270.txt Node
Date: Fri Mar 25 14:35:36 CST 2022
User: usil
Spectrometer: V785-0024
Trigger mode: 0
Integration Time (sec): 4.000000E-1
Scans to average: 1
Nonlinearity correction enabled: false
Boxcar width: 0
Storing dark spectrum: false
XAxis mode: Wavelengths
Number of Pixels in Spectrum: 1024
>>>>>Begin Spectral Data<<<<<
801.071	27275
801.214	27275
801.356	27131
801.499	26990
801.641	26811
801.783	26785
801.926	26811
802.068	26735
802.211	26549
802.353	26651
802.496	26419
802.638	26362
802.78	26301
802.923	26328
803.065	26218
803.208	26328
803.35	26282
803.492	26499
803.635	26419
803.777	26423
803.919	26412
804.061	26743
804.204	26419
804.346	26278
804.488	26172
804.63	26328
804.773	26336
804.915	26362
805.057	26362
805.199	26172
805.341	26423
805.483	26495
805.626	26313
805.768	26404
805.91	26499
806.052	26442
806.194	26214
806.336	26590
806.478	26419
806.62	26225
806.762	26370
806.904	26415
807.046	26659
807.188	26746
807.33	26739
807.472	26815
807.614	26644
807.756	26663
807.898	26670
808.04	26590
808.182	26556
808.324	26606
808.465	26613
808.607	26800
808.749	26982
808.891	27085
809.033	27306
809.174	27032
809.316	26838
809.458	26956
809.6	26948
809.741	26830
809.883	26849
810.025	27138
810.166	27173
810.308	27043
810.45	27062
810.591	26998
810.733	26788
810.875	26716
811.016	26686
811.158	26743
811.299	26727
811.441	26857
811.582	26773
811.724	26697
811.865	26693
812.007	26781
812.148	26777
812.29	26716
812.431	26857
812.573	27013
812.714	27005
812.855	27161
812.997	27154
813.138	27321
813.279	27211
813.421	27135
813.562	26990
813.703	27100
813.845	27013
813.986	26640
814.127	26381
814.268	26431
814.41	26244
814.551	26195
814.692	26393
814.833	26233
814.974	26336
815.115	26161
815.256	26119
815.397	26119
815.539	26012
815.68	26031
815.821	26043
815.962	26161
816.103	25982
816.244	25887
816.385	25681
816.526	25731
816.666	25616
816.807	25533
816.948	25563
817.089	25479
817.23	25445
817.371	25396
817.512	25419
817.653	25331
817.793	25354
817.934	25369
818.075	25407
818.216	25369
818.356	25373
818.497	25129
818.638	25069
818.778	25084
818.919	25099
819.06	25122
819.2	25080
819.341	25384
819.481	25339
819.622	25377
819.762	25605
819.903	25594
820.043	25544
820.184	25495
820.324	25373
820.465	25430
820.605	25400
820.746	25198
820.886	25187
821.026	25422
821.167	25194
821.307	25358
821.447	25187
821.588	25202
821.728	25072
821.868	24856
822.008	24620
822.149	24745
822.289	24616
822.429	24612
822.569	24418
822.709	24342
822.849	24304
822.99	24186
823.13	24224
823.27	24079
823.41	24015
823.55	23752
823.69	23923
823.83	24011
823.97	23847
824.11	23646
824.25	23649
824.389	23764
824.529	23756
824.669	23726
824.809	23935
824.949	23843
825.089	23779
825.228	23714
825.368	23562
825.508	23554
825.648	23554
825.787	23596
825.927	23642
826.067	23581
826.206	23486
826.346	23562
826.485	23710
826.625	23558
826.765	23592
826.904	23589
827.044	23235
827.183	23197
827.323	23170
827.462	23151
827.601	23166
827.741	23006
827.88	23265
828.02	23018
828.159	23174
828.298	23261
828.437	23284
828.577	23128
828.716	23330
828.855	23121
828.994	22930
829.134	22896
829.273	22930
829.412	22892
829.551	22782
829.69	22801
829.829	22622
829.968	22976
830.107	22999
830.246	22820
830.385	22812
830.524	22721
830.663	22706
830.802	22542
830.941	22531
831.08	22432
831.219	22432
831.357	22417
831.496	22523
831.635	22474
831.774	22379
831.913	22306
832.051	22360
832.19	22192
832.329	22185
832.467	22162
832.606	22154
832.744	22169
832.883	22074
833.022	22010
833.16	21998
833.299	22226
833.437	22059
833.576	22131
833.714	22234
833.852	22044
833.991	22105
834.129	22173
834.267	22169
834.406	22036
834.544	22185
834.682	22059
834.821	22135
834.959	22249
835.097	22021
835.235	22116
835.373	22070
835.511	22135
835.65	21960
835.788	21979
835.926	21713
836.064	21724
836.202	21762
836.34	21972
836.478	21945
836.615	21983
836.753	21907
836.891	21953
837.029	21838
837.167	21873
837.305	21838
837.443	21800
837.58	21717
837.718	21842
837.856	21694
837.993	21633
838.131	21846
838.269	21713
838.406	21603
838.544	21591
838.681	21424
838.819	21439
838.956	21192
839.094	21180
839.231	21336
839.369	21424
839.506	21603
839.643	21428
839.781	21272
839.918	21146
840.055	21264
840.193	21051
840.33	21066
840.467	21051
840.604	21207
840.742	21386
840.879	21062
841.016	21043
841.153	21013
841.29	21230
841.427	21119
841.564	21104
841.701	21146
841.838	20990
841.975	21017
842.112	20960
842.249	20868
842.385	20716
842.522	21085
842.659	20914
842.796	20785
842.933	20853
843.069	20762
843.206	20659
843.343	20910
843.479	20815
843.616	20804
843.752	20602
843.889	20625
844.025	20693
844.162	20530
844.298	20769
844.435	20625
844.571	20480
844.708	20579
844.844	20648
844.98	20708
845.117	20701
845.253	20541
845.389	20598
845.525	20469
845.661	20556
845.798	20587
845.934	20568
846.07	20571
846.206	20522
846.342	20583
846.478	20381
846.614	20244
846.75	20122
846.886	20035
847.022	20145
847.158	20027
847.294	20103
847.429	20024
847.565	19925
847.701	20206
847.837	19719
847.972	19849
848.108	19811
848.244	19746
848.379	19605
848.515	19651
848.65	19590
848.786	19643
848.921	19594
849.057	19731
849.192	19658
849.328	19575
849.463	19597
849.598	19552
849.734	19529
849.869	19411
850.004	19217
850.14	19331
850.275	19316
850.41	19278
850.545	19263
850.68	19308
850.815	19476
850.95	19445
851.085	19521
851.22	19468
851.355	19388
851.49	19297
851.625	19426
851.76	19221
851.895	19213
852.03	19152
852.165	19369
852.299	19392
852.434	19407
852.569	19304
852.703	19285
852.838	19358
852.973	19381
853.107	19350
853.242	19377
853.376	19145
853.511	19107
853.645	19072
853.78	19251
853.914	19080
854.048	19145
854.183	19137
854.317	19156
854.451	19270
854.585	19232
854.72	18996
854.854	19263
854.988	19118
855.122	19019
855.256	19012
855.39	19042
855.524	19377
855.658	19175
855.792	19175
855.926	19069
856.06	19202
856.194	19247
856.327	19129
856.461	19091
856.595	19023
856.729	19061
856.862	19335
856.996	19145
857.13	19107
857.263	19194
857.397	19156
857.53	19103
857.664	19179
857.797	19175
857.931	19244
858.064	19129
858.197	19148
858.331	19145
858.464	19095
858.597	18954
858.731	19088
858.864	19069
858.997	19015
859.13	19053
859.263	19156
859.396	19175
859.529	18863
859.662	19046
859.795	19076
859.928	19034
860.061	19141
860.194	19164
860.327	19053
860.46	19050
860.592	19160
860.725	19072
860.858	19175
860.99	19114
861.123	19034
861.256	18817
861.388	19065
861.521	19670
861.653	18958
861.786	18886
861.918	18989
862.05	19004
862.183	18989
862.315	19156
862.447	19175
862.58	19031
862.712	18859
862.844	18802
862.976	18863
863.108	18810
863.24	19148
863.372	18696
863.504	18779
863.636	18791
863.768	18730
863.9	18776
864.032	18688
864.164	18692
864.296	18768
864.428	18791
864.559	18791
864.691	18852
864.823	18684
864.954	18772
865.086	18806
865.217	18677
865.349	18540
865.48	18677
865.612	18658
865.743	18806
865.875	18722
866.006	18616
866.137	18745
866.269	18604
866.4	18734
866.531	18620
866.662	18673
866.793	18661
866.924	18612
867.055	18608
867.186	18631
867.317	18620
867.448	18559
867.579	18616
867.71	18635
867.841	18608
867.972	18658
868.103	18715
868.233	18623
868.364	18574
868.495	18757
868.625	18821
868.756	18932
868.886	18730
869.017	18867
869.147	18920
869.278	18886
869.408	18928
869.539	18859
869.669	18924
869.799	18844
869.929	18943
870.06	18928
870.19	19175
870.32	19088
870.45	19225
870.58	19236
870.71	19369
870.84	19392
870.97	19053
871.1	19240
871.23	19346
871.36	19339
871.489	19304
871.619	19278
871.749	19457
871.879	19457
872.008	19586
872.138	19350
872.267	19525
872.397	19346
872.526	19244
872.656	19266
872.785	19327
872.915	19419
873.044	19529
873.173	19324
873.303	19407
873.432	19468
873.561	19449
873.69	19601
873.819	19457
873.948	19559
874.077	19544
874.206	19396
874.335	19392
874.464	19628
874.593	19727
874.722	19674
874.851	19830
874.979	19734
875.108	19826
875.237	19734
875.365	19715
875.494	19677
875.623	19723
875.751	19727
875.88	19890
876.008	19788
876.136	20027
876.265	20221
876.393	20343
876.521	20130
876.65	20362
876.778	20122
876.906	20153
877.034	20103
877.162	20153
877.29	20168
877.418	20092
877.546	20073
877.674	20138
877.802	20195
877.93	20130
878.058	20134
878.185	20058
878.313	20092
878.441	20199
878.568	19970
878.696	20096
878.824	20180
878.951	20126
879.079	20404
879.206	20366
879.333	20347
879.461	20214
879.588	20393
879.715	20465
879.842	20446
879.97	20381
880.097	20054
880.224	19963
880.351	20069
880.478	19963
880.605	20008
880.732	19917
880.859	20153
880.986	20012
881.112	20065
881.239	19921
881.366	19696
881.493	19647
881.619	19552
881.746	19639
881.872	19563
881.999	19529
882.125	19567
882.252	19502
882.378	19502
882.505	19662
882.631	19491
882.757	19396
882.883	19476
883.01	19274
883.136	19358
883.262	19228
883.388	19202
883.514	19320
883.64	19426
883.766	19247
883.892	19183
884.018	19236
884.143	19255
884.269	19533
884.395	19118
884.52	18928
884.646	19053
884.772	19004
884.897	18935
885.023	19084
885.148	19061
885.274	19194
885.399	19069
885.524	19061
885.65	19038
885.775	19099
885.9	18932
886.025	19042
886.15	18985
886.275	18844
886.4	18833
886.525	18958
886.65	18981
886.775	18909
886.9	19122
887.025	19175
887.149	18996
887.274	18890
887.399	18760
887.523	18798
887.648	18814
887.773	18623
887.897	18920
888.021	18787
888.146	18585
888.27	18856
888.395	18814
888.519	18817
888.643	18738
888.767	18753
888.891	18707
889.015	18540
889.139	18597
889.263	18570
889.387	18669
889.511	18658
889.635	18654
889.759	18585
889.883	18471
890.006	18498
890.13	18646
890.254	18486
890.377	18525
890.501	18338
890.624	18388
890.748	18407
890.871	18194
890.995	18247
891.118	18038
891.241	18197
891.364	18167
891.488	18296
891.611	18277
891.734	18167
891.857	18140
891.98	18136
892.103	18258
892.226	18224
892.349	18114
892.471	18072
892.594	18235
892.717	18083
892.839	18019
892.962	18194
893.085	18285
893.207	18205
893.33	17939
893.452	18091
893.575	18159
893.697	18026
893.819	18228
893.941	18266
894.064	18292
894.186	18072
894.308	18053
894.43	18163
894.552	18334
894.674	18174
894.796	17999
894.918	18133
895.04	18117
895.161	18125
895.283	18235
895.405	18182
895.526	17992
895.648	18060
895.769	18114
895.891	18213
896.012	18224
896.134	18220
896.255	18232
896.376	18216
896.498	18258
896.619	18243
896.74	18201
896.861	18232
896.982	18555
897.103	18582
897.224	18494
897.345	18441
897.466	18410
897.587	18384
897.708	18509
897.828	18407
897.949	18304
898.07	18213
898.19	18311
898.311	18509
898.431	18311
898.552	18391
898.672	18384
898.792	18547
898.913	18410
899.033	18357
899.153	18155
899.273	18003
899.393	18152
899.513	18235
899.633	18064
899.753	18220
899.873	18091
899.993	18171
900.113	18125
900.232	18163
900.352	18220
900.472	18011
900.591	18003
900.711	18060
900.83	17893
900.95	18072
901.069	18003
901.189	17912
901.308	17657
901.427	17573
901.546	17604
901.665	17604
901.784	17558
901.904	17452
902.023	17364
902.141	17250
902.26	17105
902.379	17185
902.498	17170
902.617	17136
902.735	17178
902.854	17136
902.973	17022
903.091	16873
903.21	16896
903.328	16824
903.446	16740
903.565	16580
903.683	16622
903.801	16481
903.919	16649
904.038	16561
904.156	16436
904.274	16519
904.392	16390
904.51	16443
904.627	16474
904.745	16356
904.863	16493
904.981	16177
905.098	16025
905.216	16086
905.334	16166
905.451	16040
905.569	16078
905.686	16082
905.803	16040
905.921	15854
906.038	15968
906.155	15869
906.272	15724
906.389	15728
906.506	15622
906.623	15622
906.74	15507
906.857	15485
906.974	15519
907.091	15603
907.208	15732
907.324	15743
907.441	15439
907.557	15389
907.674	15332
907.79	15302
907.907	15184
908.023	15268
908.139	15294
908.256	15245
908.372	15097
908.488	15169
908.604	15081
908.72	14941
908.836	14937
908.952	14982
909.068	15039
909.184	15108
909.3	14998
909.415	14967
909.531	14967
909.647	14777
909.762	14697
909.878	14621
909.993	14613
910.108	14697
910.224	14769
910.339	14773
910.454	14549
910.57	14492
910.685	14427
910.8	14769
910.915	14640
911.03	14530
911.145	14278
911.259	14362
911.374	14423
911.489	14267
911.604	14218
911.718	14134
911.833	14172
911.947	13944
912.062	13871
912.176	13989
912.291	14145
912.405	14012
912.519	14305
912.633	14263
912.748	14077
912.862	14058
912.976	13826
913.09	13776
913.204	13830
913.318	13902
913.431	13974
913.545	13982
913.659	13967
913.772	13791
913.886	13677
914	13696
914.113	13852
914.226	13917
914.34	13784
914.453	13677
914.566	13837
914.68	13689
914.793	13567
914.906	13476
915.019	13354
915.132	13316
915.245	13358
915.358	13460
915.47	13388
915.583	13381
915.696	13457
915.809	13594
915.921	13525
916.034	13358
916.146	13327
916.259	13297
916.371	13415
916.483	13339
916.595	13225
916.708	13228
916.82	13278
916.932	13251
917.044	13183
917.156	13274
917.268	13038
917.38	13072
917.491	13114
917.603	13118
917.715	13145
917.826	13152
917.938	13099
918.049	12962
918.161	13069
918.272	13190
918.384	13152
918.495	13118
918.606	12837
918.717	12810
918.828	12932
918.939	12943
919.05	12863
919.161	12802
919.272	12627
919.383	12768
919.494	12890
919.604	13050
919.715	12886
919.826	12726
919.936	12829
920.047	12913
920.157	12878
920.267	13095
920.378	12913
920.488	12787
920.598	12939
920.708	13198
920.818	13012
920.928	13027
921.038	13129
921.148	13080
921.258	12821
921.368	12738
921.477	12768
921.587	12639
921.697	12464
921.806	12662
921.916	12528
922.025	12380
922.134	12338
922.244	12228
922.353	12311
922.462	12186
922.571	12045
922.68	12034
922.789	11954
922.898	11843
923.007	11855
923.116	11935
923.224	11908
923.333	11832
923.442	11775
923.55	11729
923.659	11767
923.767	11840
923.876	11745
923.984	11847
924.092	11676
924.201	11680
924.309	11737
924.417	11726
924.525	11623
924.633	11596
924.741	12536
924.849	11440
924.956	11661
925.064	11463
925.172	11341
925.279	11303
925.387	11478
925.494	11459
925.602	11573
925.709	11452
925.816	11288
925.924	11486
926.031	11444
926.138	11482
926.245	11417
926.352	11258
926.459	11455
926.566	11497
926.673	11337
926.779	11201
926.886	11250
926.993	11045
927.099	11098
927.206	10987
927.312	11018
927.419	11162
927.525	11056
927.631	11105
927.737	11006
927.843	10949
927.95	10923
928.056	10889
928.162	10961
928.267	10934
928.373	11467
928.479	10995
928.585	10748
928.69	10869
928.796	10873
928.901	10767
929.007	10649
929.112	10748
929.218	10744
929.323	10660
929.428	10634
929.533	10782
929.638	10504
929.743	10618
929.848	10596
929.953	10641
930.058	10531
930.163	10402
930.267	10405
930.372	10535
930.477	10352
930.581	10626
930.685	10390
930.79	10276
930.894	10352
930.998	10257
931.103	10428
931.207	10055
931.311	9975
931.415	9865
931.519	9751
931.623	9728
