Data from test_V78500241_3615.txt Node
Date: Fri Mar 25 14:58:53 CST 2022
User: usil
Spectrometer: V785-0024
Trigger mode: 0
Integration Time (sec): 4.000000E-1
Scans to average: 1
Nonlinearity correction enabled: false
Boxcar width: 0
Storing dark spectrum: false
XAxis mode: Wavelengths
Number of Pixels in Spectrum: 1024
>>>>>Begin Spectral Data<<<<<
801.071	21888
801.214	21736
801.356	21447
801.499	21443
801.641	21367
801.783	21252
801.926	21256
802.068	21211
802.211	21173
802.353	20998
802.496	20819
802.638	20842
802.78	20670
802.923	20807
803.065	20492
803.208	20537
803.35	20625
803.492	20552
803.635	20701
803.777	20590
803.919	20571
804.061	20948
804.204	20682
804.346	20564
804.488	20408
804.63	20651
804.773	20412
804.915	20533
805.057	20640
805.199	20423
805.341	20537
805.483	20549
805.626	20545
805.768	20404
805.91	20442
806.052	20503
806.194	20362
806.336	20636
806.478	20537
806.62	20278
806.762	20560
806.904	20773
807.046	20941
807.188	20944
807.33	20910
807.472	21009
807.614	20712
807.756	20682
807.898	20594
808.04	20579
808.182	20545
808.324	20552
808.465	20514
808.607	20769
808.749	20800
808.891	21005
809.033	21043
809.174	20830
809.316	20830
809.458	20773
809.6	20838
809.741	20952
809.883	20914
810.025	20975
810.166	20979
810.308	21051
810.45	21013
810.591	20800
810.733	20629
810.875	20613
811.016	20526
811.158	20412
811.299	20655
811.441	20651
811.582	20670
811.724	20484
811.865	20495
812.007	20526
812.148	20518
812.29	20659
812.431	20853
812.573	20880
812.714	20990
812.855	21112
812.997	21264
813.138	21329
813.279	21195
813.421	21009
813.562	21028
813.703	20849
813.845	20781
813.986	20499
814.127	20259
814.268	20214
814.41	20145
814.551	20199
814.692	20256
814.833	19997
814.974	20214
815.115	20130
815.256	20005
815.397	19932
815.539	19936
815.68	19928
815.821	19795
815.962	19833
816.103	19753
816.244	19677
816.385	19620
816.526	19518
816.666	19384
816.807	19270
816.948	19362
817.089	19335
817.23	19331
817.371	19209
817.512	19266
817.653	19168
817.793	19297
817.934	19324
818.075	19285
818.216	19278
818.356	19247
818.497	19080
818.638	18856
818.778	18909
818.919	18977
819.06	18989
819.2	19107
819.341	19228
819.481	19270
819.622	19331
819.762	19441
819.903	19369
820.043	19266
820.184	19240
820.324	19263
820.465	19308
820.605	19244
820.746	19156
820.886	19114
821.026	19129
821.167	19122
821.307	19263
821.447	19198
821.588	19027
821.728	18993
821.868	18829
822.008	18700
822.149	18639
822.289	18608
822.429	18353
822.569	18372
822.709	18388
822.849	18281
822.99	18144
823.13	18129
823.27	17973
823.41	18053
823.55	17885
823.69	17942
823.83	17942
823.97	17996
824.11	17741
824.25	17615
824.389	17638
824.529	17798
824.669	17767
824.809	17832
824.949	17745
825.089	17805
825.228	17798
825.368	17619
825.508	17581
825.648	17493
825.787	17638
825.927	17695
826.067	17539
826.206	17410
826.346	17604
826.485	17383
826.625	17425
826.765	17577
826.904	17577
827.044	17356
827.183	17231
827.323	17094
827.462	17235
827.601	17208
827.741	17143
827.88	17151
828.02	17151
828.159	17231
828.298	17242
828.437	17250
828.577	17140
828.716	17322
828.855	17227
828.994	16942
829.134	17022
829.273	17098
829.412	16892
829.551	16987
829.69	16930
829.829	17041
829.968	16995
830.107	16949
830.246	17094
830.385	16919
830.524	16755
830.663	16748
830.802	16816
830.941	16535
831.08	16580
831.219	16683
831.357	16645
831.496	16725
831.635	16527
831.774	16656
831.913	16497
832.051	16421
832.19	16295
832.329	16447
832.467	16242
832.606	16325
832.744	16310
832.883	16291
833.022	16265
833.16	16261
833.299	16261
833.437	16341
833.576	16318
833.714	16360
833.852	16360
833.991	16322
834.129	16386
834.267	16367
834.406	16325
834.544	16413
834.682	16436
834.821	16394
834.959	16478
835.097	16306
835.235	16497
835.373	16379
835.511	16390
835.65	16253
835.788	16234
835.926	16223
836.064	15892
836.202	16116
836.34	16196
836.478	16356
836.615	16280
836.753	16280
836.891	16329
837.029	16261
837.167	16314
837.305	16249
837.443	16223
837.58	16150
837.718	16215
837.856	16143
837.993	16097
838.131	16093
838.269	16082
838.406	16105
838.544	15941
838.681	15903
838.819	15778
838.956	15644
839.094	15633
839.231	15751
839.369	15831
839.506	16032
839.643	15972
839.781	15857
839.918	15610
840.055	15755
840.193	15652
840.33	15675
840.467	15732
840.604	15705
840.742	15991
840.879	15454
841.016	15622
841.153	15622
841.29	15922
841.427	15781
841.564	15743
841.701	15732
841.838	15610
841.975	15614
842.112	15622
842.249	15481
842.385	15496
842.522	15637
842.659	15500
842.796	15443
842.933	15576
843.069	15447
843.206	15431
843.343	15542
843.479	15496
843.616	15572
843.752	15321
843.889	15351
844.025	15416
844.162	15230
844.298	15439
844.435	15298
844.571	15310
844.708	15420
844.844	15450
844.98	15439
845.117	15382
845.253	15161
845.389	15123
845.525	15161
845.661	15161
845.798	15032
845.934	15161
846.07	14979
846.206	15138
846.342	15142
846.478	14998
846.614	14944
846.75	14735
846.886	14777
847.022	14925
847.158	14872
847.294	14899
847.429	14819
847.565	14899
847.701	15009
847.837	14724
847.972	14530
848.108	14632
848.244	14708
848.379	14507
848.515	14442
848.65	14461
848.786	14457
848.921	14442
849.057	14579
849.192	14518
849.328	14476
849.463	14434
849.598	14427
849.734	14400
849.869	14313
850.004	14210
850.14	14328
850.275	14210
850.41	14168
850.545	14157
850.68	14248
850.815	14176
850.95	14164
851.085	14313
851.22	14244
851.355	14199
851.49	14187
851.625	14123
851.76	14100
851.895	14107
852.03	14092
852.165	14149
852.299	14256
852.434	14351
852.569	14278
852.703	14263
852.838	14282
852.973	14328
853.107	14415
853.242	14187
853.376	14096
853.511	13974
853.645	14012
853.78	14290
853.914	14202
854.048	14039
854.183	14050
854.317	14065
854.451	14355
854.585	14123
854.72	13959
854.854	14210
854.988	13955
855.122	14062
855.256	13940
855.39	14092
855.524	14161
855.658	14149
855.792	14005
855.926	14107
856.06	14111
856.194	14157
856.327	14058
856.461	14183
856.595	14081
856.729	14073
856.862	14191
856.996	14130
857.13	14005
857.263	14199
857.397	14298
857.53	14111
857.664	14172
857.797	14191
857.931	14218
858.064	14130
858.197	14161
858.331	14130
858.464	13982
858.597	13986
858.731	14027
858.864	13978
858.997	14077
859.13	14081
859.263	14172
859.396	14278
859.529	14077
859.662	14069
859.795	14043
859.928	14046
860.061	14290
860.194	14290
860.327	14073
860.46	14119
860.592	14259
860.725	14111
860.858	14210
860.99	14081
861.123	14031
861.256	13993
861.388	14084
861.521	14864
861.653	13993
861.786	13791
861.918	13814
862.05	14043
862.183	14008
862.315	14092
862.447	14073
862.58	14058
862.712	13833
862.844	13833
862.976	14035
863.108	13894
863.24	14218
863.372	13822
863.504	13822
863.636	13879
863.768	13898
863.9	13871
864.032	13883
864.164	13894
864.296	13814
864.428	14012
864.559	13982
864.691	13997
864.823	13982
864.954	13982
865.086	13959
865.217	13849
865.349	13845
865.48	13883
865.612	13803
865.743	14035
865.875	13883
866.006	13753
866.137	13833
866.269	13845
866.4	13871
866.531	13791
866.662	13860
866.793	13761
866.924	13845
867.055	13917
867.186	13818
867.317	13830
867.448	13662
867.579	13837
867.71	13704
867.841	13795
867.972	13822
868.103	13898
868.233	13913
868.364	13814
868.495	13936
868.625	13986
868.756	14164
868.886	14027
869.017	14119
869.147	14153
869.278	14240
869.408	14214
869.539	14008
869.669	14199
869.799	14111
869.929	14206
870.06	14225
870.19	14499
870.32	14362
870.45	14347
870.58	14579
870.71	14701
870.84	14629
870.97	14545
871.1	14549
871.23	14716
871.36	14705
871.489	14610
871.619	14583
871.749	14705
871.879	14705
872.008	14788
872.138	14682
872.267	14693
872.397	14621
872.526	14564
872.656	14610
872.785	14575
872.915	14785
873.044	14773
873.173	14758
873.303	14727
873.432	14777
873.561	14842
873.69	14785
873.819	14686
873.948	14845
874.077	14792
874.206	14746
874.335	14800
874.464	14975
874.593	15119
874.722	15009
874.851	15119
874.979	15036
875.108	15055
875.237	15055
875.365	15058
875.494	15104
875.623	15180
875.751	15093
875.88	15104
876.008	15302
876.136	15332
876.265	15534
876.393	15599
876.521	15606
876.65	15595
876.778	15595
876.906	15439
877.034	15481
877.162	15416
877.29	15431
877.418	15595
877.546	15557
877.674	15534
877.802	15504
877.93	15496
878.058	15405
878.185	15382
878.313	15454
878.441	15408
878.568	15226
878.696	15443
878.824	15595
878.951	15545
879.079	15736
879.206	15827
879.333	15633
879.461	15580
879.588	15641
879.715	15679
879.842	15819
879.97	15606
880.097	15386
880.224	15256
880.351	15435
880.478	15386
880.605	15405
880.732	15416
880.859	15698
880.986	15431
881.112	15447
881.239	15264
881.366	15093
881.493	15013
881.619	14982
881.746	15165
881.872	15036
881.999	14948
882.125	14944
882.252	15135
882.378	14990
882.505	15203
882.631	14998
882.757	14826
882.883	14883
883.01	14876
883.136	14754
883.262	14712
883.388	14754
883.514	14804
883.64	14830
883.766	14906
883.892	14651
884.018	14701
884.143	14762
884.269	14971
884.395	14560
884.52	14583
884.646	14621
884.772	14415
884.897	14492
885.023	14514
885.148	14670
885.274	14613
885.399	14693
885.524	14655
885.65	14594
885.775	14590
885.9	14514
886.025	14689
886.15	14617
886.275	14518
886.4	14461
886.525	14511
886.65	14495
886.775	14457
886.9	14712
887.025	14750
887.149	14492
887.274	14370
887.399	14393
887.523	14400
887.648	14358
887.773	14275
887.897	14347
888.021	14473
888.146	14355
888.27	14434
888.395	14480
888.519	14385
888.643	14457
888.767	14404
888.891	14298
889.015	14244
889.139	14324
889.263	14187
889.387	14396
889.511	14495
889.635	14286
889.759	14229
889.883	14199
890.006	14229
890.13	14286
890.254	14157
890.377	14229
890.501	14073
890.624	14020
890.748	14077
890.871	14088
890.995	13898
891.118	13822
891.241	13902
891.364	13879
891.488	14012
891.611	13989
891.734	13974
891.857	14043
891.98	14008
892.103	14054
892.226	14069
892.349	13890
892.471	13719
892.594	13898
892.717	13921
892.839	13913
892.962	13864
893.085	13921
893.207	13955
893.33	13913
893.452	13906
893.575	14001
893.697	13982
893.819	14119
893.941	14168
894.064	14199
894.186	13906
894.308	13906
894.43	13986
894.552	14191
894.674	14058
894.796	13860
894.918	14039
895.04	13989
895.161	14134
895.283	14035
895.405	13947
895.526	14111
895.648	14077
895.769	14065
895.891	14107
896.012	14100
896.134	14183
896.255	14126
896.376	14100
896.498	14024
896.619	14233
896.74	14202
896.861	14191
896.982	14400
897.103	14613
897.224	14419
897.345	14347
897.466	14305
897.587	14320
897.708	14526
897.828	14381
897.949	14480
898.07	14206
898.19	14362
898.311	14469
898.431	14377
898.552	14450
898.672	14590
898.792	14610
898.913	14499
899.033	14495
899.153	14377
899.273	14248
899.393	14298
899.513	14290
899.633	14366
899.753	14438
899.873	14313
899.993	14320
900.113	14305
900.232	14347
900.352	14252
900.472	14172
900.591	14096
900.711	14202
900.83	14138
900.95	14214
901.069	14229
901.189	14164
901.308	13921
901.427	13811
901.546	13845
901.665	13894
901.784	13780
901.904	13765
902.023	13662
902.141	13491
902.26	13415
902.379	13472
902.498	13445
902.617	13434
902.735	13525
902.854	13438
902.973	13365
903.091	13110
903.21	13232
903.328	13168
903.446	13095
903.565	13069
903.683	12989
903.801	12875
903.919	12954
904.038	12958
904.156	12882
904.274	12871
904.392	12741
904.51	12779
904.627	12719
904.745	12844
904.863	12878
904.981	12650
905.098	12475
905.216	12578
905.334	12464
905.451	12563
905.569	12532
905.686	12563
905.803	12521
905.921	12350
906.038	12437
906.155	12361
906.272	12205
906.389	12342
906.506	12095
906.623	12079
906.74	12102
906.857	12041
906.974	12060
907.091	12175
907.208	12308
907.324	12209
907.441	12068
907.557	11889
907.674	11764
907.79	11824
907.907	11901
908.023	11908
908.139	11855
908.256	11840
908.372	11859
908.488	11779
908.604	11649
908.72	11589
908.836	11668
908.952	11642
909.068	11608
909.184	11718
909.3	11661
909.415	11733
909.531	11634
909.647	11372
909.762	11410
909.878	11337
909.993	11383
910.108	11497
910.224	11391
910.339	11493
910.454	11296
910.57	11284
910.685	11193
910.8	11459
910.915	11448
911.03	11280
911.145	11212
911.259	11174
911.374	11105
911.489	11014
911.604	10987
911.718	10847
911.833	10850
911.947	10736
912.062	10645
912.176	10828
912.291	10927
912.405	10869
912.519	11079
912.633	11113
912.748	10938
912.862	10839
912.976	10801
913.09	10653
913.204	10679
913.318	10805
913.431	10858
913.545	10892
913.659	10904
913.772	10733
913.886	10626
914	10653
914.113	10637
914.226	10748
914.34	10649
914.453	10546
914.566	10645
914.68	10618
914.793	10588
914.906	10402
915.019	10341
915.132	10390
915.245	10299
915.358	10413
915.47	10402
915.583	10440
915.696	10356
915.809	10516
915.921	10580
916.034	10314
916.146	10318
916.259	10291
916.371	10432
916.483	10348
916.595	10204
916.708	10318
916.82	10299
916.932	10341
917.044	10272
917.156	10234
917.268	10211
917.38	10219
917.491	10192
917.603	10181
917.715	10310
917.826	10329
917.938	10272
918.049	10055
918.161	10215
918.272	10314
918.384	10265
918.495	10207
918.606	10048
918.717	10032
918.828	10116
918.939	10124
919.05	10002
919.161	10109
919.272	9922
919.383	9968
919.494	10143
919.604	10284
919.715	10135
919.826	9998
919.936	10067
920.047	10109
920.157	10139
920.267	10348
920.378	10219
920.488	10067
920.598	10268
920.708	10478
920.818	10352
920.928	10318
921.038	10440
921.148	10432
921.258	10090
921.368	10116
921.477	10013
921.587	10002
921.697	9869
921.806	10017
921.916	9873
922.025	9675
922.134	9728
922.244	9618
922.353	9720
922.462	9568
922.571	9507
922.68	9462
922.789	9397
922.898	9302
923.007	9344
923.116	9412
923.224	9363
923.333	9378
923.442	9310
923.55	9195
923.659	9264
923.767	9389
923.876	9207
923.984	9397
924.092	9188
924.201	9294
924.309	9260
924.417	9245
924.525	9226
924.633	9176
924.741	9915
924.849	8994
924.956	9150
925.064	9024
925.172	8914
925.279	9039
925.387	9051
925.494	8994
925.602	9203
925.709	9100
925.816	8944
925.924	9062
926.031	9138
926.138	8998
926.245	9119
926.352	8956
926.459	9093
926.566	9135
926.673	8998
926.779	8864
926.886	8838
926.993	8746
927.099	8785
927.206	8686
927.312	8670
927.419	8819
927.525	8739
927.631	8819
927.737	8571
927.843	8674
927.95	8522
928.056	8602
928.162	8674
928.267	8625
928.373	9245
928.479	8708
928.585	8526
928.69	8590
928.796	8655
928.901	8571
929.007	8465
929.112	8480
929.218	8537
929.323	8450
929.428	8431
929.533	8556
929.638	8412
929.743	8408
929.848	8454
929.953	8465
930.058	8317
930.163	8240
930.267	8271
930.372	8423
930.477	8233
930.581	8381
930.685	8256
930.79	8202
930.894	8195
930.998	8123
931.103	8305
931.207	8016
931.311	7936
931.415	7822
931.519	7670
931.623	7742
