Data from test_V78500241_256.txt Node
Date: Fri Mar 25 14:35:30 CST 2022
User: usil
Spectrometer: V785-0024
Trigger mode: 0
Integration Time (sec): 4.000000E-1
Scans to average: 1
Nonlinearity correction enabled: false
Boxcar width: 0
Storing dark spectrum: false
XAxis mode: Wavelengths
Number of Pixels in Spectrum: 1024
>>>>>Begin Spectral Data<<<<<
801.071	27492
801.214	27439
801.356	27233
801.499	27085
801.641	26899
801.783	26849
801.926	26944
802.068	26815
802.211	26720
802.353	26708
802.496	26549
802.638	26499
802.78	26423
802.923	26400
803.065	26313
803.208	26484
803.35	26259
803.492	26453
803.635	26408
803.777	26545
803.919	26446
804.061	26762
804.204	26450
804.346	26282
804.488	26374
804.63	26313
804.773	26218
804.915	26393
805.057	26571
805.199	26374
805.341	26415
805.483	26469
805.626	26480
805.768	26389
805.91	26514
806.052	26461
806.194	26412
806.336	26670
806.478	26507
806.62	26453
806.762	26446
806.904	26617
807.046	26872
807.188	26739
807.33	26804
807.472	26967
807.614	26788
807.756	26785
807.898	26693
808.04	26629
808.182	26663
808.324	26769
808.465	26750
808.607	26933
808.749	27020
808.891	27218
809.033	27283
809.174	27192
809.316	27203
809.458	27176
809.6	27032
809.741	27058
809.883	27081
810.025	27096
810.166	27146
810.308	27378
810.45	26994
810.591	27154
810.733	26895
810.875	26948
811.016	26727
811.158	26651
811.299	26853
811.441	27020
811.582	26815
811.724	26838
811.865	26861
812.007	26819
812.148	26838
812.29	26701
812.431	26986
812.573	27199
812.714	27142
812.855	27245
812.997	27355
813.138	27625
813.279	27348
813.421	27427
813.562	27264
813.703	27157
813.845	26925
813.986	26655
814.127	26575
814.268	26389
814.41	26404
814.551	26518
814.692	26404
814.833	26366
814.974	26240
815.115	26412
815.256	26252
815.397	26195
815.539	26157
815.68	26290
815.821	26100
815.962	26081
816.103	26031
816.244	26096
816.385	25799
816.526	25753
816.666	25567
816.807	25567
816.948	25567
817.089	25578
817.23	25575
817.371	25457
817.512	25453
817.653	25609
817.793	25331
817.934	25487
818.075	25529
818.216	25483
818.356	25495
818.497	25324
818.638	25076
818.778	25171
818.919	25175
819.06	25358
819.2	25346
819.341	25312
819.481	25316
819.622	25449
819.762	25666
819.903	25628
820.043	25521
820.184	25373
820.324	25460
820.465	25586
820.605	25411
820.746	25544
820.886	25259
821.026	25464
821.167	25491
821.307	25537
821.447	25343
821.588	25270
821.728	25194
821.868	24928
822.008	24825
822.149	24863
822.289	24791
822.429	24555
822.569	24445
822.709	24410
822.849	24311
822.99	24369
823.13	24281
823.27	24258
823.41	24007
823.55	24076
823.69	24018
823.83	24060
823.97	24072
824.11	23908
824.25	23802
824.389	23824
824.529	23889
824.669	23817
824.809	23958
824.949	23923
825.089	23885
825.228	23916
825.368	23680
825.508	23722
825.648	23710
825.787	23748
825.927	23638
826.067	23615
826.206	23657
826.346	23543
826.485	23615
826.625	23649
826.765	23672
826.904	23707
827.044	23353
827.183	23417
827.323	23277
827.462	23315
827.601	23220
827.741	23311
827.88	23360
828.02	23208
828.159	23326
828.298	23227
828.437	23360
828.577	23265
828.716	23299
828.855	23136
828.994	22991
829.134	22896
829.273	23105
829.412	23033
829.551	22946
829.69	22972
829.829	22980
829.968	23014
830.107	23010
830.246	23056
830.385	22831
830.524	22793
830.663	22854
830.802	22752
830.941	22599
831.08	22592
831.219	22694
831.357	22527
831.496	22755
831.635	22474
831.774	22481
831.913	22341
832.051	22344
832.19	22333
832.329	22341
832.467	22135
832.606	22166
832.744	22143
832.883	22230
833.022	22211
833.16	22272
833.299	22177
833.437	22249
833.576	22166
833.714	22226
833.852	22219
833.991	22143
834.129	22204
834.267	22337
834.406	22303
834.544	22150
834.682	22219
834.821	22147
834.959	22284
835.097	22143
835.235	22135
835.373	22207
835.511	22230
835.65	22029
835.788	22074
835.926	21876
836.064	21857
836.202	21831
836.34	22112
836.478	22044
836.615	22029
836.753	22097
836.891	22032
837.029	22196
837.167	21945
837.305	21949
837.443	21972
837.58	21842
837.718	21945
837.856	21907
837.993	21846
838.131	21972
838.269	21842
838.406	21728
838.544	21743
838.681	21625
838.819	21477
838.956	21291
839.094	21256
839.231	21359
839.369	21382
839.506	21732
839.643	21447
839.781	21173
839.918	21237
840.055	21218
840.193	21260
840.33	21142
840.467	21329
840.604	21275
840.742	21408
840.879	21077
841.016	21047
841.153	21081
841.29	21192
841.427	21169
841.564	21218
841.701	21123
841.838	21009
841.975	20960
842.112	21062
842.249	20986
842.385	20952
842.522	20994
842.659	20872
842.796	20902
842.933	20929
843.069	20994
843.206	20880
843.343	20921
843.479	20979
843.616	20845
843.752	20773
843.889	20807
844.025	20849
844.162	20545
844.298	20743
844.435	20526
844.571	20651
844.708	20609
844.844	20842
844.98	20724
845.117	20792
845.253	20629
845.389	20621
845.525	20590
845.661	20716
845.798	20663
845.934	20697
846.07	20617
846.206	20659
846.342	20667
846.478	20568
846.614	20313
846.75	20237
846.886	20088
847.022	20218
847.158	20115
847.294	20229
847.429	20164
847.565	20084
847.701	20415
847.837	19784
847.972	19811
848.108	19932
848.244	19951
848.379	19776
848.515	19685
848.65	19723
848.786	19628
848.921	19647
849.057	19674
849.192	19921
849.328	19765
849.463	19704
849.598	19605
849.734	19563
849.869	19540
850.004	19407
850.14	19449
850.275	19411
850.41	19392
850.545	19346
850.68	19502
850.815	19365
850.95	19502
851.085	19533
851.22	19552
851.355	19453
851.49	19502
851.625	19407
851.76	19282
851.895	19343
852.03	19225
852.165	19419
852.299	19468
852.434	19491
852.569	19491
852.703	19331
852.838	19491
852.973	19491
853.107	19506
853.242	19282
853.376	19225
853.511	19183
853.645	19133
853.78	19327
853.914	19221
854.048	19194
854.183	19145
854.317	19240
854.451	19331
854.585	19251
854.72	19209
854.854	19198
854.988	19118
855.122	19232
855.256	19129
855.39	19221
855.524	19278
855.658	19339
855.792	19232
855.926	19183
856.06	19240
856.194	19301
856.327	19164
856.461	19042
856.595	19072
856.729	19236
856.862	19339
856.996	19304
857.13	19343
857.263	19285
857.397	19213
857.53	19179
857.664	19228
857.797	19301
857.931	19308
858.064	19148
858.197	19190
858.331	19148
858.464	19148
858.597	19015
858.731	19179
858.864	19076
858.997	19008
859.13	19198
859.263	19171
859.396	19213
859.529	19080
859.662	18996
859.795	19183
859.928	19236
860.061	19285
860.194	19316
860.327	19187
860.46	19072
860.592	19198
860.725	19263
860.858	19221
860.99	19190
861.123	19080
861.256	19031
861.388	19107
861.521	19696
861.653	19152
861.786	19012
861.918	18993
862.05	19076
862.183	19133
862.315	19114
862.447	19289
862.58	19152
862.712	18985
862.844	18913
862.976	18970
863.108	19027
863.24	19137
863.372	18825
863.504	18859
863.636	18901
863.768	18947
863.9	18791
864.032	18798
864.164	18856
864.296	18856
864.428	18852
864.559	18970
864.691	18928
864.823	18905
864.954	18726
865.086	18817
865.217	18779
865.349	18768
865.48	18833
865.612	18837
865.743	18844
865.875	18669
866.006	18703
866.137	18810
866.269	18787
866.4	18779
866.531	18722
866.662	18681
866.793	18517
866.924	18665
867.055	18722
867.186	18730
867.317	18631
867.448	18658
867.579	18604
867.71	18715
867.841	18635
867.972	18719
868.103	18745
868.233	18806
868.364	18741
868.495	18837
868.625	18958
868.756	19088
868.886	18878
869.017	18856
869.147	19065
869.278	19164
869.408	18890
869.539	18993
869.669	19179
869.799	19015
869.929	19069
870.06	19038
870.19	19346
870.32	19225
870.45	19327
870.58	19407
870.71	19495
870.84	19411
870.97	19415
871.1	19373
871.23	19457
871.36	19537
871.489	19362
871.619	19457
871.749	19453
871.879	19514
872.008	19609
872.138	19590
872.267	19499
872.397	19358
872.526	19369
872.656	19388
872.785	19301
872.915	19487
873.044	19540
873.173	19510
873.303	19613
873.432	19556
873.561	19670
873.69	19548
873.819	19605
873.948	19597
874.077	19533
874.206	19396
874.335	19525
874.464	19776
874.593	19833
874.722	19814
874.851	19864
874.979	19803
875.108	19879
875.237	19753
875.365	19803
875.494	19841
875.623	19959
875.751	19868
875.88	19845
876.008	19967
876.136	20084
876.265	20187
876.393	20351
876.521	20259
876.65	20286
876.778	20252
876.906	20176
877.034	20191
877.162	20138
877.29	20081
877.418	20263
877.546	20172
877.674	20153
877.802	20153
877.93	20180
878.058	20077
878.185	20043
878.313	20195
878.441	20168
878.568	19993
878.696	20115
878.824	20347
878.951	20309
879.079	20400
879.206	20655
879.333	20495
879.461	20358
879.588	20389
879.715	20461
879.842	20606
879.97	20374
880.097	20130
880.224	20115
880.351	20206
880.478	20176
880.605	19951
880.732	20126
880.859	20351
880.986	20130
881.112	20008
881.239	20024
881.366	19944
881.493	19776
881.619	19788
881.746	19727
881.872	19719
881.999	19662
882.125	19681
882.252	19750
882.378	19746
882.505	19860
882.631	19567
882.757	19491
882.883	19651
883.01	19502
883.136	19445
883.262	19266
883.388	19255
883.514	19525
883.64	19506
883.766	19415
883.892	19213
884.018	19266
884.143	19381
884.269	19518
884.395	19088
884.52	19057
884.646	19160
884.772	19118
884.897	18973
885.023	19141
885.148	19217
885.274	19236
885.399	19198
885.524	19107
885.65	19126
885.775	19034
885.9	18970
886.025	19194
886.15	19175
886.275	19019
886.4	19038
886.525	19038
886.65	18993
886.775	18989
886.9	19160
887.025	19274
887.149	19053
887.274	18894
887.399	18852
887.523	18779
887.648	18795
887.773	18776
887.897	18909
888.021	18897
888.146	18772
888.27	18928
888.395	18882
888.519	18852
888.643	18852
888.767	18894
888.891	18623
889.015	18650
889.139	18700
889.263	18681
889.387	18631
889.511	18673
889.635	18814
889.759	18677
889.883	18616
890.006	18620
890.13	18696
890.254	18486
890.377	18555
890.501	18467
890.624	18441
890.748	18388
890.871	18300
890.995	18106
891.118	18209
891.241	18319
891.364	18327
891.488	18289
891.611	18251
891.734	18194
891.857	18357
891.98	18296
892.103	18285
892.226	18285
892.349	18129
892.471	18133
892.594	18152
892.717	18167
892.839	18152
892.962	18152
893.085	18289
893.207	18232
893.33	18140
893.452	18125
893.575	18224
893.697	18216
893.819	18311
893.941	18350
894.064	18289
894.186	18174
894.308	18026
894.43	18182
894.552	18369
894.674	18327
894.796	18076
894.918	18171
895.04	18079
895.161	18369
895.283	18277
895.405	18186
895.526	18110
895.648	18205
895.769	18182
895.891	18258
896.012	18346
896.134	18273
896.255	18220
896.376	18289
896.498	18235
896.619	18277
896.74	18365
896.861	18273
896.982	18616
897.103	18745
897.224	18498
897.345	18509
897.466	18452
897.587	18506
897.708	18589
897.828	18414
897.949	18536
898.07	18300
898.19	18506
898.311	18593
898.431	18369
898.552	18422
898.672	18502
898.792	18627
898.913	18479
899.033	18350
899.153	18289
899.273	18182
899.393	18190
899.513	18182
899.633	18251
899.753	18220
899.873	18224
899.993	18140
900.113	18155
900.232	18216
900.352	18155
900.472	18076
900.591	17973
900.711	18060
900.83	17965
900.95	18148
901.069	18155
901.189	17939
901.308	17783
901.427	17665
901.546	17764
901.665	17741
901.784	17581
901.904	17589
902.023	17463
902.141	17242
902.26	17254
902.379	17265
902.498	17200
902.617	17048
902.735	17166
902.854	17083
902.973	16991
903.091	16911
903.21	16938
903.328	16847
903.446	16721
903.565	16782
903.683	16752
903.801	16622
903.919	16622
904.038	16542
904.156	16542
904.274	16523
904.392	16447
904.51	16325
904.627	16508
904.745	16474
904.863	16489
904.981	16219
905.098	16105
905.216	16143
905.334	16135
905.451	16166
905.569	16051
905.686	16105
905.803	16131
905.921	15998
906.038	15949
906.155	15956
906.272	15793
906.389	15644
906.506	15728
906.623	15610
906.74	15713
906.857	15538
906.974	15507
907.091	15743
907.208	15720
907.324	15785
907.441	15644
907.557	15348
907.674	15405
907.79	15291
907.907	15408
908.023	15340
908.139	15256
908.256	15291
908.372	15233
908.488	15272
908.604	15081
908.72	15028
908.836	15093
908.952	15005
909.068	15055
909.184	15184
909.3	15085
909.415	15066
909.531	15062
909.647	14773
909.762	14769
909.878	14769
909.993	14792
910.108	14731
910.224	14777
910.339	14796
910.454	14720
910.57	14560
910.685	14438
910.8	14754
910.915	14739
911.03	14621
911.145	14461
911.259	14275
911.374	14412
911.489	14389
911.604	14259
911.718	14153
911.833	14096
911.947	14035
912.062	13921
912.176	14039
912.291	14043
912.405	14096
912.519	14237
912.633	14248
912.748	14218
912.862	14115
912.976	13955
913.09	13947
913.204	13879
913.318	13997
913.431	14058
913.545	14065
913.659	14084
913.772	13932
913.886	13841
914	13727
914.113	13860
914.226	13879
914.34	13742
914.453	13723
914.566	13826
914.68	13651
914.793	13700
914.906	13533
915.019	13487
915.132	13438
915.245	13483
915.358	13487
915.47	13407
915.583	13518
915.696	13457
915.809	13487
915.921	13586
916.034	13415
916.146	13343
916.259	13381
916.371	13297
916.483	13464
916.595	13373
916.708	13221
916.82	13388
916.932	13327
917.044	13232
917.156	13221
917.268	13160
917.38	13194
917.491	13088
917.603	13160
917.715	13168
917.826	13209
917.938	13046
918.049	13000
918.161	13095
918.272	13278
918.384	13217
918.495	13141
918.606	13015
918.717	12863
918.828	12977
918.939	12951
919.05	12852
919.161	12894
919.272	12700
919.383	12722
919.494	12943
919.604	13164
919.715	12939
919.826	12840
919.936	12897
920.047	12890
920.157	12913
920.267	13076
920.378	12981
920.488	12829
920.598	13034
920.708	13251
920.818	12951
920.928	12970
921.038	13206
921.148	13152
921.258	12856
921.368	12791
921.477	12715
921.587	12665
921.697	12631
921.806	12646
921.916	12517
922.025	12372
922.134	12365
922.244	12292
922.353	12353
922.462	12254
922.571	12106
922.68	12019
922.789	11939
922.898	12003
923.007	11767
923.116	11939
923.224	11984
923.333	11996
923.442	11901
923.55	11889
923.659	11821
923.767	11802
923.876	11775
923.984	11908
924.092	11733
924.201	11756
924.309	11805
924.417	11756
924.525	11703
924.633	11752
924.741	12703
924.849	11547
924.956	11592
925.064	11535
925.172	11478
925.279	11448
925.387	11490
925.494	11528
925.602	11615
925.709	11516
925.816	11448
925.924	11471
926.031	11524
926.138	11421
926.245	11440
926.352	11440
926.459	11463
926.566	11406
926.673	11383
926.779	11353
926.886	11296
926.993	11086
927.099	11090
927.206	11079
927.312	11113
927.419	11159
927.525	11105
927.631	11109
927.737	11003
927.843	10991
927.95	10850
928.056	10866
928.162	10908
928.267	11006
928.373	11558
928.479	11022
928.585	10816
928.69	10995
928.796	10968
928.901	10736
929.007	10668
929.112	10839
929.218	10752
929.323	10748
929.428	10645
929.533	10858
929.638	10607
929.743	10645
929.848	10729
929.953	10660
930.058	10512
930.163	10432
930.267	10462
930.372	10542
930.477	10333
930.581	10580
930.685	10519
930.79	10299
930.894	10287
930.998	10207
931.103	10394
931.207	9979
931.311	9964
931.415	9922
931.519	9740
931.623	9679
