Data from test_V78500241_2123.txt Node
Date: Fri Mar 25 14:48:29 CST 2022
User: usil
Spectrometer: V785-0024
Trigger mode: 0
Integration Time (sec): 4.000000E-1
Scans to average: 1
Nonlinearity correction enabled: false
Boxcar width: 0
Storing dark spectrum: false
XAxis mode: Wavelengths
Number of Pixels in Spectrum: 1024
>>>>>Begin Spectral Data<<<<<
801.071	22177
801.214	22135
801.356	21762
801.499	21656
801.641	21576
801.783	21359
801.926	21587
802.068	21416
802.211	21317
802.353	21237
802.496	21100
802.638	20952
802.78	20941
802.923	20838
803.065	20701
803.208	20735
803.35	20842
803.492	20967
803.635	20963
803.777	20842
803.919	20880
804.061	21154
804.204	21005
804.346	20796
804.488	20648
804.63	20872
804.773	20750
804.915	20785
805.057	20769
805.199	20651
805.341	20906
805.483	20807
805.626	20838
805.768	20644
805.91	20701
806.052	20758
806.194	20678
806.336	20883
806.478	20804
806.62	20705
806.762	20739
806.904	20925
807.046	21169
807.188	21077
807.33	21154
807.472	21104
807.614	20838
807.756	20979
807.898	20887
808.04	20804
808.182	20895
808.324	20902
808.465	20861
808.607	21017
808.749	21131
808.891	21233
809.033	21256
809.174	21135
809.316	21100
809.458	21165
809.6	21051
809.741	21233
809.883	21211
810.025	21313
810.166	21313
810.308	21230
810.45	21203
810.591	21146
810.733	21024
810.875	20937
811.016	20788
811.158	20800
811.299	20941
811.441	21024
811.582	20914
811.724	20800
811.865	20921
812.007	20880
812.148	20724
812.29	20963
812.431	21028
812.573	21241
812.714	21214
812.855	21469
812.997	21523
813.138	21595
813.279	21462
813.421	21374
813.562	21310
813.703	21043
813.845	21028
813.986	20765
814.127	20598
814.268	20488
814.41	20499
814.551	20499
814.692	20552
814.833	20412
814.974	20332
815.115	20298
815.256	20290
815.397	20263
815.539	20332
815.68	20180
815.821	20096
815.962	20271
816.103	20088
816.244	20065
816.385	20005
816.526	19955
816.666	19712
816.807	19620
816.948	19696
817.089	19723
817.23	19559
817.371	19609
817.512	19495
817.653	19567
817.793	19609
817.934	19594
818.075	19559
818.216	19468
818.356	19472
818.497	19400
818.638	19247
818.778	19183
818.919	19190
819.06	19282
819.2	19445
819.341	19350
819.481	19369
819.622	19700
819.762	19871
819.903	19632
820.043	19582
820.184	19548
820.324	19540
820.465	19609
820.605	19472
820.746	19506
820.886	19388
821.026	19548
821.167	19518
821.307	19445
821.447	19499
821.588	19468
821.728	19244
821.868	19156
822.008	19057
822.149	18924
822.289	18802
822.429	18734
822.569	18574
822.709	18700
822.849	18475
822.99	18502
823.13	18456
823.27	18437
823.41	18323
823.55	18129
823.69	18285
823.83	18266
823.97	18205
824.11	18114
824.25	18015
824.389	18125
824.529	18060
824.669	17996
824.809	18098
824.949	18064
825.089	17988
825.228	17977
825.368	17855
825.508	17882
825.648	17775
825.787	17824
825.927	17961
826.067	17794
826.206	17828
826.346	17885
826.485	17851
826.625	17824
826.765	17969
826.904	17729
827.044	17676
827.183	17532
827.323	17562
827.462	17490
827.601	17543
827.741	17406
827.88	17471
828.02	17330
828.159	17493
828.298	17467
828.437	17535
828.577	17425
828.716	17577
828.855	17581
828.994	17292
829.134	17235
829.273	17193
829.412	17242
829.551	17121
829.69	17269
829.829	17235
829.968	17318
830.107	17299
830.246	17303
830.385	17220
830.524	17132
830.663	17018
830.802	17018
830.941	16843
831.08	16919
831.219	16942
831.357	16949
831.496	17189
831.635	16961
831.774	16771
831.913	16748
832.051	16656
832.19	16615
832.329	16843
832.467	16516
832.606	16538
832.744	16542
832.883	16653
833.022	16481
833.16	16569
833.299	16592
833.437	16710
833.576	16615
833.714	16664
833.852	16569
833.991	16706
834.129	16717
834.267	16664
834.406	16504
834.544	16733
834.682	16580
834.821	16634
834.959	16759
835.097	16531
835.235	16649
835.373	16668
835.511	16683
835.65	16481
835.788	16470
835.926	16405
836.064	16341
836.202	16409
836.34	16512
836.478	16603
836.615	16398
836.753	16573
836.891	16603
837.029	16485
837.167	16405
837.305	16550
837.443	16500
837.58	16306
837.718	16424
837.856	16318
837.993	16169
838.131	16447
838.269	16234
838.406	16295
838.544	16272
838.681	16223
838.819	16010
838.956	15968
839.094	15884
839.231	16029
839.369	16059
839.506	16310
839.643	16162
839.781	16006
839.918	15895
840.055	15903
840.193	16029
840.33	15941
840.467	15873
840.604	15869
840.742	16177
840.879	15762
841.016	15755
841.153	15781
841.29	16074
841.427	16013
841.564	15934
841.701	15911
841.838	15800
841.975	15831
842.112	15907
842.249	15739
842.385	15644
842.522	15880
842.659	15698
842.796	15728
842.933	15766
843.069	15599
843.206	15732
843.343	15766
843.479	15652
843.616	15690
843.752	15500
843.889	15408
844.025	15637
844.162	15519
844.298	15572
844.435	15462
844.571	15504
844.708	15561
844.844	15690
844.98	15648
845.117	15561
845.253	15523
845.389	15405
845.525	15439
845.661	15401
845.798	15321
845.934	15329
846.07	15211
846.206	15393
846.342	15374
846.478	15325
846.614	15154
846.75	15051
846.886	15066
847.022	15180
847.158	15024
847.294	15024
847.429	15062
847.565	15081
847.701	15268
847.837	14842
847.972	14765
848.108	14838
848.244	14948
848.379	14705
848.515	14701
848.65	14705
848.786	14682
848.921	14651
849.057	14765
849.192	14743
849.328	14777
849.463	14651
849.598	14686
849.734	14644
849.869	14568
850.004	14465
850.14	14537
850.275	14476
850.41	14370
850.545	14324
850.68	14339
850.815	14423
850.95	14438
851.085	14594
851.22	14457
851.355	14404
851.49	14385
851.625	14419
851.76	14518
851.895	14370
852.03	14389
852.165	14393
852.299	14503
852.434	14492
852.569	14419
852.703	14389
852.838	14518
852.973	14526
853.107	14659
853.242	14438
853.376	14324
853.511	14195
853.645	14225
853.78	14461
853.914	14267
854.048	14271
854.183	14275
854.317	14374
854.451	14507
854.585	14305
854.72	14328
854.854	14454
854.988	14214
855.122	14324
855.256	14134
855.39	14305
855.524	14336
855.658	14374
855.792	14332
855.926	14389
856.06	14412
856.194	14419
856.327	14237
856.461	14229
856.595	14282
856.729	14366
856.862	14408
856.996	14317
857.13	14457
857.263	14431
857.397	14404
857.53	14355
857.664	14343
857.797	14442
857.931	14419
858.064	14298
858.197	14408
858.331	14244
858.464	14256
858.597	14229
858.731	14290
858.864	14244
858.997	14290
859.13	14347
859.263	14351
859.396	14431
859.529	14366
859.662	14271
859.795	14294
859.928	14320
860.061	14488
860.194	14526
860.327	14389
860.46	14339
860.592	14415
860.725	14362
860.858	14442
860.99	14229
861.123	14218
861.256	14202
861.388	14358
861.521	14956
861.653	14134
861.786	14046
861.918	14180
862.05	14221
862.183	14187
862.315	14332
862.447	14358
862.58	14240
862.712	14111
862.844	14062
862.976	14153
863.108	14149
863.24	14594
863.372	13959
863.504	14043
863.636	14084
863.768	14077
863.9	14100
864.032	14062
864.164	13932
864.296	14043
864.428	14142
864.559	14225
864.691	14157
864.823	14210
864.954	14123
865.086	14077
865.217	14092
865.349	14043
865.48	14065
865.612	14043
865.743	14126
865.875	14153
866.006	14016
866.137	14100
866.269	14084
866.4	14008
866.531	14073
866.662	14024
866.793	14027
866.924	14024
867.055	14084
867.186	14058
867.317	13890
867.448	13967
867.579	13986
867.71	14039
867.841	13940
867.972	14115
868.103	14107
868.233	14134
868.364	14065
868.495	14187
868.625	14324
868.756	14473
868.886	14149
869.017	14214
869.147	14339
869.278	14389
869.408	14412
869.539	14339
869.669	14408
869.799	14358
869.929	14339
870.06	14343
870.19	14648
870.32	14507
870.45	14545
870.58	14727
870.71	14891
870.84	14880
870.97	14678
871.1	14701
871.23	14876
871.36	14830
871.489	14823
871.619	14861
871.749	14933
871.879	14857
872.008	15081
872.138	14918
872.267	14883
872.397	14807
872.526	14842
872.656	14788
872.785	14716
872.915	14887
873.044	15070
873.173	14883
873.303	14986
873.432	15051
873.561	15093
873.69	14952
873.819	14960
873.948	15039
874.077	14990
874.206	15028
874.335	14960
874.464	15100
874.593	15249
874.722	15112
874.851	15386
874.979	15272
875.108	15386
875.237	15184
875.365	15249
875.494	15226
875.623	15291
875.751	15169
875.88	15237
876.008	15462
876.136	15507
876.265	15660
876.393	15857
876.521	15808
876.65	15720
876.778	15671
876.906	15625
877.034	15663
877.162	15797
877.29	15717
877.418	15549
877.546	15671
877.674	15637
877.802	15641
877.93	15686
878.058	15622
878.185	15576
878.313	15618
878.441	15770
878.568	15504
878.696	15686
878.824	15644
878.951	15793
879.079	15911
879.206	16002
879.333	15869
879.461	15637
879.588	15755
879.715	15819
879.842	15960
879.97	15724
880.097	15507
880.224	15526
880.351	15618
880.478	15561
880.605	15405
880.732	15584
880.859	15876
880.986	15595
881.112	15466
881.239	15416
881.366	15359
881.493	15321
881.619	15146
881.746	15218
881.872	15298
881.999	15157
882.125	15157
882.252	15237
882.378	15199
882.505	15355
882.631	15154
882.757	14998
882.883	15112
883.01	15131
883.136	14910
883.262	14899
883.388	14887
883.514	14975
883.64	15058
883.766	14956
883.892	14906
884.018	14887
884.143	15001
884.269	15039
884.395	14796
884.52	14655
884.646	14762
884.772	14648
884.897	14617
885.023	14750
885.148	14830
885.274	14887
885.399	14807
885.524	14796
885.65	14781
885.775	14735
885.9	14750
886.025	14918
886.15	14769
886.275	14705
886.4	14590
886.525	14773
886.65	14686
886.775	14659
886.9	14941
887.025	14921
887.149	14693
887.274	14541
887.399	14495
887.523	14530
887.648	14431
887.773	14488
887.897	14575
888.021	14625
888.146	14488
888.27	14632
888.395	14716
888.519	14670
888.643	14682
888.767	14625
888.891	14541
889.015	14488
889.139	14385
889.263	14248
889.387	14476
889.511	14587
889.635	14499
889.759	14461
889.883	14488
890.006	14473
890.13	14511
890.254	14339
890.377	14377
890.501	14301
890.624	14164
890.748	14343
890.871	14149
890.995	14050
891.118	14058
891.241	14176
891.364	14065
891.488	14294
891.611	14084
891.734	14199
891.857	14176
891.98	14069
892.103	14210
892.226	14130
892.349	13986
892.471	13947
892.594	14142
892.717	14206
892.839	14111
892.962	14119
893.085	14221
893.207	14077
893.33	13932
893.452	14001
893.575	14039
893.697	14088
893.819	14278
893.941	14446
894.064	14343
894.186	14001
894.308	14050
894.43	14259
894.552	14290
894.674	14210
894.796	14050
894.918	14191
895.04	14126
895.161	14298
895.283	14252
895.405	14111
895.526	14248
895.648	14206
895.769	14290
895.891	14332
896.012	14309
896.134	14347
896.255	14294
896.376	14271
896.498	14229
896.619	14362
896.74	14301
896.861	14252
896.982	14640
897.103	14834
897.224	14610
897.345	14617
897.466	14476
897.587	14583
897.708	14686
897.828	14632
897.949	14518
898.07	14480
898.19	14518
898.311	14861
898.431	14613
898.552	14621
898.672	14705
898.792	14743
898.913	14735
899.033	14549
899.153	14488
899.273	14385
899.393	14492
899.513	14526
899.633	14503
899.753	14522
899.873	14461
899.993	14571
900.113	14503
900.232	14568
900.352	14484
900.472	14442
900.591	14309
900.711	14351
900.83	14404
900.95	14419
901.069	14492
901.189	14355
901.308	14069
901.427	14012
901.546	14058
901.665	14005
901.784	13963
901.904	13932
902.023	13795
902.141	13677
902.26	13666
902.379	13693
902.498	13537
902.617	13506
902.735	13677
902.854	13636
902.973	13594
903.091	13259
903.21	13327
903.328	13320
903.446	13236
903.565	13240
903.683	13152
903.801	13122
903.919	13076
904.038	13122
904.156	13038
904.274	13053
904.392	13008
904.51	12932
904.627	13019
904.745	13091
904.863	12993
904.981	12837
905.098	12745
905.216	12715
905.334	12662
905.451	12654
905.569	12707
905.686	12730
905.803	12684
905.921	12486
906.038	12700
906.155	12585
906.272	12407
906.389	12452
906.506	12300
906.623	12273
906.74	12247
906.857	12163
906.974	12178
907.091	12319
907.208	12521
907.324	12235
907.441	12178
907.557	12053
907.674	12076
907.79	12057
907.907	11965
908.023	12057
908.139	11946
908.256	11973
908.372	11950
908.488	11836
908.604	11889
908.72	11786
908.836	11851
908.952	11790
909.068	11733
909.184	11965
909.3	11722
909.415	11824
909.531	11760
909.647	11539
909.762	11554
909.878	11562
909.993	11528
910.108	11558
910.224	11474
910.339	11501
910.454	11444
910.57	11395
910.685	11311
910.8	11535
910.915	11535
911.03	11368
911.145	11296
911.259	11204
911.374	11258
911.489	11147
911.604	11098
911.718	11018
911.833	11014
911.947	10866
912.062	10812
912.176	11029
912.291	11029
912.405	10957
912.519	11185
912.633	11197
912.748	11048
912.862	11075
912.976	10877
913.09	10740
913.204	10763
913.318	10889
913.431	10896
913.545	10949
913.659	10980
913.772	10946
913.886	10809
914	10736
914.113	10767
914.226	10854
914.34	10847
914.453	10717
914.566	10835
914.68	10736
914.793	10721
914.906	10531
915.019	10519
915.132	10481
915.245	10569
915.358	10493
915.47	10573
915.583	10577
915.696	10577
915.809	10702
915.921	10637
916.034	10489
916.146	10512
916.259	10481
916.371	10542
916.483	10546
916.595	10421
916.708	10421
916.82	10462
916.932	10451
917.044	10428
917.156	10306
917.268	10352
917.38	10318
917.491	10341
917.603	10413
917.715	10413
917.826	10466
917.938	10363
918.049	10261
918.161	10348
918.272	10478
918.384	10459
918.495	10344
918.606	10280
918.717	10147
918.828	10246
918.939	10185
919.05	10150
919.161	10200
919.272	9968
919.383	10169
919.494	10344
919.604	10382
919.715	10246
919.826	10154
919.936	10204
920.047	10348
920.157	10295
920.267	10428
920.378	10227
920.488	10219
920.598	10424
920.708	10493
920.818	10455
920.928	10462
921.038	10630
921.148	10493
921.258	10261
921.368	10242
921.477	10204
921.587	9998
921.697	10017
921.806	10128
921.916	9972
922.025	9816
922.134	9800
922.244	9724
922.353	9850
922.462	9648
922.571	9660
922.68	9549
922.789	9485
922.898	9488
923.007	9340
923.116	9515
923.224	9473
923.333	9523
923.442	9420
923.55	9351
923.659	9420
923.767	9416
923.876	9313
923.984	9412
924.092	9313
924.201	9306
924.309	9397
924.417	9321
924.525	9256
924.633	9344
924.741	10268
924.849	9135
924.956	9230
925.064	9218
925.172	8979
925.279	9112
925.387	9176
925.494	9154
925.602	9268
925.709	9233
925.816	9089
925.924	9123
926.031	9199
926.138	9169
926.245	9176
926.352	9017
926.459	9214
926.566	9211
926.673	9116
926.779	9017
926.886	8990
926.993	8853
927.099	8906
927.206	8857
927.312	8807
927.419	8857
927.525	8880
927.631	8986
927.737	8746
927.843	8773
927.95	8644
928.056	8708
928.162	8788
928.267	8880
928.373	9291
928.479	8838
928.585	8651
928.69	8792
928.796	8762
928.901	8594
929.007	8518
929.112	8689
929.218	8667
929.323	8678
929.428	8579
929.533	8686
929.638	8598
929.743	8629
929.848	8575
929.953	8530
930.058	8461
930.163	8381
930.267	8336
930.372	8522
930.477	8347
930.581	8613
930.685	8465
930.79	8233
930.894	8339
930.998	8244
931.103	8389
931.207	8096
931.311	8012
931.415	8031
931.519	7807
931.623	7776
