Data from test_V78500241_1273.txt Node
Date: Fri Mar 25 14:42:34 CST 2022
User: usil
Spectrometer: V785-0024
Trigger mode: 0
Integration Time (sec): 4.000000E-1
Scans to average: 1
Nonlinearity correction enabled: false
Boxcar width: 0
Storing dark spectrum: false
XAxis mode: Wavelengths
Number of Pixels in Spectrum: 1024
>>>>>Begin Spectral Data<<<<<
801.071	22493
801.214	22314
801.356	22090
801.499	21838
801.641	21724
801.783	21770
801.926	21831
802.068	21701
802.211	21599
802.353	21454
802.496	21294
802.638	21291
802.78	21074
802.923	21180
803.065	21096
803.208	21077
803.35	20929
803.492	21165
803.635	21146
803.777	21096
803.919	21123
804.061	21405
804.204	21203
804.346	20883
804.488	20975
804.63	21013
804.773	20963
804.915	20948
805.057	21142
805.199	21055
805.341	21066
805.483	21062
805.626	21028
805.768	20857
805.91	21017
806.052	21055
806.194	20902
806.336	21142
806.478	21058
806.62	21028
806.762	21070
806.904	21222
807.046	21462
807.188	21378
807.33	21382
807.472	21469
807.614	21306
807.756	21481
807.898	21211
808.04	21062
808.182	21119
808.324	21173
808.465	21252
808.607	21370
808.749	21568
808.891	21542
809.033	21637
809.174	21477
809.316	21412
809.458	21526
809.6	21507
809.741	21481
809.883	21542
810.025	21633
810.166	21500
810.308	21652
810.45	21435
810.591	21420
810.733	21294
810.875	21165
811.016	21066
811.158	21119
811.299	21237
811.441	21378
811.582	21207
811.724	21325
811.865	21146
812.007	21142
812.148	21180
812.29	21123
812.431	21382
812.573	21492
812.714	21507
812.855	21614
812.997	21743
813.138	21842
813.279	21720
813.421	21770
813.562	21629
813.703	21431
813.845	21294
813.986	21062
814.127	20819
814.268	20804
814.41	20674
814.551	20758
814.692	20765
814.833	20720
814.974	20598
815.115	20670
815.256	20514
815.397	20686
815.539	20514
815.68	20461
815.821	20545
815.962	20446
816.103	20423
816.244	20324
816.385	20267
816.526	20119
816.666	20073
816.807	20043
816.948	20065
817.089	20024
817.23	19944
817.371	19879
817.512	19902
817.653	19871
817.793	19742
817.934	19909
818.075	19925
818.216	19845
818.356	19750
818.497	19628
818.638	19586
818.778	19624
818.919	19548
819.06	19632
819.2	19723
819.341	19628
819.481	19750
819.622	19875
819.762	20145
819.903	20111
820.043	19883
820.184	19894
820.324	19951
820.465	19947
820.605	19982
820.746	19909
820.886	19719
821.026	19849
821.167	19864
821.307	19925
821.447	19765
821.588	19693
821.728	19605
821.868	19396
822.008	19259
822.149	19171
822.289	19251
822.429	19152
822.569	18993
822.709	18939
822.849	18772
822.99	18726
823.13	18745
823.27	18745
823.41	18544
823.55	18544
823.69	18661
823.83	18528
823.97	18483
824.11	18399
824.25	18323
824.389	18330
824.529	18486
824.669	18311
824.809	18418
824.949	18327
825.089	18433
825.228	18334
825.368	18068
825.508	18159
825.648	18216
825.787	18163
825.927	18171
826.067	18117
826.206	18110
826.346	18136
826.485	18045
826.625	18197
826.765	18144
826.904	18038
827.044	17908
827.183	17813
827.323	17794
827.462	17779
827.601	17832
827.741	17836
827.88	17821
828.02	17748
828.159	17885
828.298	17847
828.437	17866
828.577	17824
828.716	17946
828.855	17828
828.994	17539
829.134	17623
829.273	17653
829.412	17501
829.551	17452
829.69	17551
829.829	17433
829.968	17665
830.107	17562
830.246	17577
830.385	17433
830.524	17478
830.663	17402
830.802	17299
830.941	17189
831.08	17239
831.219	17356
831.357	17280
831.496	17395
831.635	17398
831.774	17121
831.913	17159
832.051	17010
832.19	16911
832.329	17067
832.467	16858
832.606	16923
832.744	16881
832.883	16896
833.022	16911
833.16	16938
833.299	16900
833.437	16927
833.576	16946
833.714	16995
833.852	17075
833.991	17071
834.129	17022
834.267	17045
834.406	16980
834.544	17014
834.682	17025
834.821	16889
834.959	17083
835.097	16923
835.235	17048
835.373	17033
835.511	16980
835.65	16946
835.788	16831
835.926	16805
836.064	16649
836.202	16717
836.34	16946
836.478	16961
836.615	16839
836.753	16858
836.891	16968
837.029	16957
837.167	16892
837.305	16839
837.443	16790
837.58	16691
837.718	16816
837.856	16862
837.993	16702
838.131	16858
838.269	16596
838.406	16721
838.544	16656
838.681	16405
838.819	16462
838.956	16238
839.094	16169
839.231	16329
839.369	16459
839.506	16748
839.643	16489
839.781	16382
839.918	16204
840.055	16284
840.193	16246
840.33	16318
840.467	16181
840.604	16352
840.742	16508
840.879	16200
841.016	16188
841.153	16185
841.29	16325
841.427	16344
841.564	16344
841.701	16303
841.838	16295
841.975	16143
842.112	16207
842.249	16131
842.385	16074
842.522	16169
842.659	16067
842.796	16048
842.933	16067
843.069	15922
843.206	15960
843.343	16105
843.479	16128
843.616	16048
843.752	15888
843.889	15857
844.025	15968
844.162	15759
844.298	16002
844.435	15869
844.571	15884
844.708	15956
844.844	15964
844.98	15994
845.117	15979
845.253	15842
845.389	15667
845.525	15831
845.661	15869
845.798	15785
845.934	15880
846.07	15846
846.206	15907
846.342	15861
846.478	15774
846.614	15473
846.75	15348
846.886	15473
847.022	15530
847.158	15458
847.294	15466
847.429	15466
847.565	15412
847.701	15580
847.837	15165
847.972	15089
848.108	15260
848.244	15161
848.379	15081
848.515	15104
848.65	15020
848.786	14998
848.921	14986
849.057	15043
849.192	15104
849.328	15097
849.463	15070
849.598	14921
849.734	15005
849.869	14880
850.004	14842
850.14	14815
850.275	14758
850.41	14754
850.545	14819
850.68	14678
850.815	14819
850.95	14754
851.085	14864
851.22	14845
851.355	14826
851.49	14750
851.625	14804
851.76	14826
851.895	14708
852.03	14610
852.165	14758
852.299	14746
852.434	14910
852.569	14750
852.703	14777
852.838	14804
852.973	14960
853.107	14891
853.242	14739
853.376	14655
853.511	14590
853.645	14617
853.78	14777
853.914	14648
854.048	14678
854.183	14564
854.317	14701
854.451	14834
854.585	14613
854.72	14590
854.854	14708
854.988	14689
855.122	14621
855.256	14404
855.39	14617
855.524	14720
855.658	14663
855.792	14705
855.926	14674
856.06	14720
856.194	14807
856.327	14655
856.461	14568
856.595	14594
856.729	14530
856.862	14838
856.996	14731
857.13	14689
857.263	14773
857.397	14758
857.53	14644
857.664	14785
857.797	14727
857.931	14750
858.064	14610
858.197	14743
858.331	14701
858.464	14590
858.597	14526
858.731	14583
858.864	14640
858.997	14621
859.13	14579
859.263	14640
859.396	14781
859.529	14686
859.662	14587
859.795	14617
859.928	14579
860.061	14788
860.194	14769
860.327	14663
860.46	14594
860.592	14731
860.725	14880
860.858	14792
860.99	14640
861.123	14537
861.256	14533
861.388	14560
861.521	15329
861.653	14701
861.786	14526
861.918	14530
862.05	14598
862.183	14594
862.315	14693
862.447	14648
862.58	14594
862.712	14404
862.844	14366
862.976	14427
863.108	14533
863.24	14857
863.372	14434
863.504	14484
863.636	14298
863.768	14503
863.9	14431
864.032	14336
864.164	14400
864.296	14434
864.428	14571
864.559	14533
864.691	14457
864.823	14507
864.954	14476
865.086	14377
865.217	14370
865.349	14377
865.48	14393
865.612	14457
865.743	14568
865.875	14396
866.006	14434
866.137	14469
866.269	14332
866.4	14347
866.531	14404
866.662	14305
866.793	14415
866.924	14514
867.055	14446
867.186	14412
867.317	14434
867.448	14396
867.579	14427
867.71	14358
867.841	14336
867.972	14400
868.103	14473
868.233	14362
868.364	14454
868.495	14514
868.625	14629
868.756	14811
868.886	14621
869.017	14689
869.147	14796
869.278	14727
869.408	14754
869.539	14762
869.669	14800
869.799	14743
869.929	14708
870.06	14701
870.19	14982
870.32	14906
870.45	15009
870.58	15116
870.71	15233
870.84	15218
870.97	15214
871.1	15097
871.23	15298
871.36	15283
871.489	15176
871.619	15256
871.749	15291
871.879	15302
872.008	15336
872.138	15230
872.267	15218
872.397	15127
872.526	15093
872.656	15104
872.785	15100
872.915	15321
873.044	15306
873.173	15287
873.303	15291
873.432	15485
873.561	15416
873.69	15344
873.819	15389
873.948	15405
874.077	15313
874.206	15252
874.335	15363
874.464	15393
874.593	15641
874.722	15603
874.851	15675
874.979	15610
875.108	15789
875.237	15641
875.365	15534
875.494	15542
875.623	15724
875.751	15557
875.88	15663
876.008	15736
876.136	15922
876.265	16086
876.393	16185
876.521	16166
876.65	16093
876.778	16090
876.906	16078
877.034	15960
877.162	16067
877.29	15827
877.418	16112
877.546	16082
877.674	15987
877.802	16048
877.93	16101
878.058	16032
878.185	15915
878.313	16051
878.441	16025
878.568	15960
878.696	15987
878.824	16112
878.951	16135
879.079	16287
879.206	16409
879.333	16181
879.461	16143
879.588	16211
879.715	16306
879.842	16440
879.97	16181
880.097	15903
880.224	15922
880.351	16032
880.478	15922
880.605	15888
880.732	15854
880.859	16147
880.986	15930
881.112	15960
881.239	15934
881.366	15728
881.493	15755
881.619	15530
881.746	15580
881.872	15618
881.999	15545
882.125	15507
882.252	15458
882.378	15622
882.505	15606
882.631	15542
882.757	15386
882.883	15428
883.01	15424
883.136	15222
883.262	15275
883.388	15249
883.514	15386
883.64	15511
883.766	15420
883.892	15249
884.018	15268
884.143	15310
884.269	15416
884.395	15127
884.52	15036
884.646	15097
884.772	15051
884.897	14967
885.023	15077
885.148	15135
885.274	15211
885.399	15100
885.524	15085
885.65	15074
885.775	15074
885.9	15123
886.025	15127
886.15	15100
886.275	15097
886.4	15070
886.525	14933
886.65	15066
886.775	14963
886.9	15237
887.025	15233
887.149	15097
887.274	14921
887.399	14933
887.523	14838
887.648	14842
887.773	14735
887.897	14918
888.021	14994
888.146	14929
888.27	15036
888.395	15013
888.519	14979
888.643	14982
888.767	14918
888.891	14857
889.015	14754
889.139	14792
889.263	14670
889.387	14842
889.511	14918
889.635	14872
889.759	14746
889.883	14807
890.006	14769
890.13	14887
890.254	14743
890.377	14735
890.501	14571
890.624	14571
890.748	14571
890.871	14507
890.995	14298
891.118	14385
891.241	14488
891.364	14442
891.488	14457
891.611	14404
891.734	14511
891.857	14541
891.98	14317
892.103	14587
892.226	14613
892.349	14370
892.471	14271
892.594	14374
892.717	14446
892.839	14469
892.962	14385
893.085	14522
893.207	14431
893.33	14298
893.452	14259
893.575	14484
893.697	14450
893.819	14533
893.941	14720
894.064	14560
894.186	14381
894.308	14415
894.43	14587
894.552	14617
894.674	14640
894.796	14381
894.918	14377
895.04	14530
895.161	14552
895.283	14476
895.405	14423
895.526	14473
895.648	14473
895.769	14571
895.891	14587
896.012	14674
896.134	14621
896.255	14670
896.376	14663
896.498	14583
896.619	14545
896.74	14712
896.861	14560
896.982	14876
897.103	15161
897.224	14887
897.345	14773
897.466	14857
897.587	14819
897.708	14937
897.828	14975
897.949	14887
898.07	14777
898.19	14819
898.311	14979
898.431	14902
898.552	14925
898.672	14971
898.792	15036
898.913	14914
899.033	14838
899.153	14773
899.273	14708
899.393	14781
899.513	14773
899.633	14792
899.753	14830
899.873	14807
899.993	14849
900.113	14720
900.232	14834
900.352	14804
900.472	14777
900.591	14583
900.711	14583
900.83	14636
900.95	14743
901.069	14697
901.189	14617
901.308	14377
901.427	14282
901.546	14256
901.665	14305
901.784	14351
901.904	14214
902.023	14096
902.141	13879
902.26	13875
902.379	13951
902.498	13944
902.617	13784
902.735	14024
902.854	13803
902.973	13833
903.091	13605
903.21	13613
903.328	13578
903.446	13533
903.565	13396
903.683	13468
903.801	13430
903.919	13354
904.038	13422
904.156	13285
904.274	13339
904.392	13183
904.51	13171
904.627	13209
904.745	13335
904.863	13304
904.981	13141
905.098	12958
905.216	12973
905.334	13000
905.451	13004
905.569	12962
905.686	12943
905.803	12928
905.921	12719
906.038	12829
906.155	12768
906.272	12635
906.389	12764
906.506	12623
906.623	12623
906.74	12486
906.857	12479
906.974	12467
907.091	12544
907.208	12688
907.324	12566
907.441	12509
907.557	12346
907.674	12205
907.79	12163
907.907	12220
908.023	12277
908.139	12247
908.256	12254
908.372	12213
908.488	12220
908.604	12079
908.72	12003
908.836	11992
908.952	11965
909.068	12068
909.184	12068
909.3	12057
909.415	12140
909.531	12064
909.647	11813
909.762	11847
909.878	11760
909.993	11882
910.108	11813
910.224	11741
910.339	11885
910.454	11695
910.57	11615
910.685	11570
910.8	11859
910.915	11897
911.03	11600
911.145	11474
911.259	11376
911.374	11490
911.489	11379
911.604	11307
911.718	11239
911.833	11261
911.947	11124
912.062	11098
912.176	11162
912.291	11162
912.405	11299
912.519	11372
912.633	11463
912.748	11280
912.862	11258
912.976	11128
913.09	11029
913.204	11090
913.318	11121
913.431	11151
913.545	11132
913.659	11227
913.772	11170
913.886	11048
914	10877
914.113	11117
914.226	11109
914.34	11041
914.453	10972
914.566	11014
914.68	10843
914.793	10927
914.906	10755
915.019	10656
915.132	10626
915.245	10740
915.358	10637
915.47	10820
915.583	10683
915.696	10774
915.809	10904
915.921	10923
916.034	10721
916.146	10786
916.259	10599
916.371	10858
916.483	10744
916.595	10637
916.708	10618
916.82	10664
916.932	10668
917.044	10599
917.156	10611
917.268	10565
917.38	10584
917.491	10462
917.603	10592
917.715	10656
917.826	10725
917.938	10569
918.049	10455
918.161	10542
918.272	10706
918.384	10729
918.495	10618
918.606	10508
918.717	10344
918.828	10443
918.939	10504
919.05	10360
919.161	10382
919.272	10272
919.383	10306
919.494	10455
919.604	10729
919.715	10466
919.826	10405
919.936	10417
920.047	10508
920.157	10348
920.267	10630
920.378	10474
920.488	10508
920.598	10664
920.708	10809
920.818	10565
920.928	10653
921.038	10805
921.148	10771
921.258	10516
921.368	10379
921.477	10325
921.587	10249
921.697	10181
921.806	10287
921.916	10139
922.025	10040
922.134	9918
922.244	9994
922.353	10082
922.462	9831
922.571	9857
922.68	9648
922.789	9667
922.898	9751
923.007	9561
923.116	9781
923.224	9720
923.333	9713
923.442	9526
923.55	9614
923.659	9580
923.767	9629
923.876	9534
923.984	9549
924.092	9447
924.201	9572
924.309	9523
924.417	9568
924.525	9542
924.633	9496
924.741	10276
924.849	9272
924.956	9519
925.064	9310
925.172	9279
925.279	9321
925.387	9310
925.494	9340
925.602	9454
925.709	9386
925.816	9275
925.924	9317
926.031	9348
926.138	9275
926.245	9443
926.352	9207
926.459	9405
926.566	9363
926.673	9268
926.779	9154
926.886	9176
926.993	9013
927.099	8963
927.206	8979
927.312	9047
927.419	9085
927.525	9001
927.631	9058
927.737	8925
927.843	8948
927.95	8785
928.056	8834
928.162	8899
928.267	8967
928.373	9561
928.479	8956
928.585	8758
928.69	8929
928.796	8883
928.901	8853
929.007	8758
929.112	8830
929.218	8880
929.323	8739
929.428	8773
929.533	8868
929.638	8689
929.743	8724
929.848	8781
929.953	8743
930.058	8636
930.163	8522
930.267	8484
930.372	8610
930.477	8514
930.581	8678
930.685	8503
930.79	8415
930.894	8427
930.998	8495
931.103	8594
931.207	8214
931.311	8248
931.415	8126
931.519	7989
931.623	7936
