Data from test_V78500241_1682.txt Node
Date: Fri Mar 25 14:45:25 CST 2022
User: usil
Spectrometer: V785-0024
Trigger mode: 0
Integration Time (sec): 4.000000E-1
Scans to average: 1
Nonlinearity correction enabled: false
Boxcar width: 0
Storing dark spectrum: false
XAxis mode: Wavelengths
Number of Pixels in Spectrum: 1024
>>>>>Begin Spectral Data<<<<<
801.071	22097
801.214	22150
801.356	21975
801.499	21800
801.641	21603
801.783	21603
801.926	21595
802.068	21629
802.211	21576
802.353	21466
802.496	21176
802.638	21135
802.78	21085
802.923	21096
803.065	21009
803.208	20975
803.35	20941
803.492	21157
803.635	21161
803.777	20899
803.919	21085
804.061	21264
804.204	21157
804.346	20895
804.488	20842
804.63	20929
804.773	20899
804.915	20872
805.057	21013
805.199	20910
805.341	20967
805.483	20963
805.626	20948
805.768	20785
805.91	20845
806.052	20929
806.194	20804
806.336	21039
806.478	20952
806.62	20765
806.762	21100
806.904	21081
807.046	21218
807.188	21256
807.33	21272
807.472	21264
807.614	21188
807.756	21146
807.898	21081
808.04	20849
808.182	21077
808.324	20906
808.465	21100
808.607	21237
808.749	21363
808.891	21439
809.033	21523
809.174	21306
809.316	21203
809.458	21260
809.6	21207
809.741	21408
809.883	21359
810.025	21481
810.166	21500
810.308	21450
810.45	21363
810.591	21340
810.733	21222
810.875	21123
811.016	20982
811.158	21062
811.299	21108
811.441	21195
811.582	21214
811.724	21173
811.865	21123
812.007	21104
812.148	20971
812.29	21150
812.431	21294
812.573	21424
812.714	21401
812.855	21515
812.997	21717
813.138	21819
813.279	21705
813.421	21660
813.562	21496
813.703	21317
813.845	21195
813.986	21009
814.127	20785
814.268	20682
814.41	20674
814.551	20556
814.692	20655
814.833	20526
814.974	20629
815.115	20606
815.256	20328
815.397	20560
815.539	20423
815.68	20454
815.821	20240
815.962	20442
816.103	20282
816.244	20221
816.385	20221
816.526	20157
816.666	19947
816.807	19693
816.948	19856
817.089	19811
817.23	19765
817.371	19830
817.512	19742
817.653	19814
817.793	19807
817.934	19696
818.075	19814
818.216	19666
818.356	19685
818.497	19559
818.638	19499
818.778	19384
818.919	19396
819.06	19445
819.2	19544
819.341	19586
819.481	19742
819.622	19769
819.762	19928
819.903	19879
820.043	19765
820.184	19674
820.324	19757
820.465	19772
820.605	19727
820.746	19632
820.886	19556
821.026	19753
821.167	19658
821.307	19693
821.447	19674
821.588	19590
821.728	19525
821.868	19206
822.008	19076
822.149	19206
822.289	19015
822.429	18741
822.569	18783
822.709	18806
822.849	18627
822.99	18642
823.13	18601
823.27	18513
823.41	18433
823.55	18403
823.69	18559
823.83	18380
823.97	18266
824.11	18262
824.25	18159
824.389	18178
824.529	18418
824.669	18102
824.809	18350
824.949	18224
825.089	18350
825.228	18194
825.368	18038
825.508	17969
825.648	18064
825.787	18133
825.927	18072
826.067	17950
826.206	17920
826.346	17992
826.485	17988
826.625	18019
826.765	18121
826.904	18098
827.044	17741
827.183	17805
827.323	17611
827.462	17661
827.601	17623
827.741	17592
827.88	17581
828.02	17566
828.159	17570
828.298	17634
828.437	17733
828.577	17592
828.716	17783
828.855	17630
828.994	17501
829.134	17417
829.273	17512
829.412	17448
829.551	17383
829.69	17501
829.829	17539
829.968	17589
830.107	17410
830.246	17421
830.385	17398
830.524	17315
830.663	17277
830.802	17109
830.941	16995
831.08	17071
831.219	17121
831.357	17147
831.496	17307
831.635	17010
831.774	16965
831.913	16919
832.051	16850
832.19	16862
832.329	16934
832.467	16702
832.606	16679
832.744	16740
832.883	16679
833.022	16713
833.16	16664
833.299	16744
833.437	16797
833.576	16847
833.714	16812
833.852	16729
833.991	16866
834.129	16999
834.267	16930
834.406	16778
834.544	16908
834.682	16839
834.821	16752
834.959	16949
835.097	16778
835.235	16831
835.373	16828
835.511	16930
835.65	16706
835.788	16740
835.926	16550
836.064	16489
836.202	16481
836.34	16622
836.478	16774
836.615	16672
836.753	16801
836.891	16759
837.029	16713
837.167	16710
837.305	16603
837.443	16599
837.58	16611
837.718	16668
837.856	16603
837.993	16478
838.131	16577
838.269	16417
838.406	16542
838.544	16592
838.681	16402
838.819	16295
838.956	16097
839.094	16188
839.231	16169
839.369	16200
839.506	16516
839.643	16356
839.781	16120
839.918	16093
840.055	16207
840.193	16101
840.33	16139
840.467	16101
840.604	16105
840.742	16337
840.879	16002
841.016	15949
841.153	16040
841.29	16200
841.427	16128
841.564	16101
841.701	16135
841.838	16097
841.975	16051
842.112	15937
842.249	15956
842.385	15778
842.522	16109
842.659	15850
842.796	15888
842.933	15850
843.069	15823
843.206	15842
843.343	16048
843.479	15907
843.616	15873
843.752	15762
843.889	15637
844.025	15736
844.162	15755
844.298	15778
844.435	15660
844.571	15641
844.708	15778
844.844	15785
844.98	15846
845.117	15755
845.253	15705
845.389	15473
845.525	15663
845.661	15610
845.798	15526
845.934	15606
846.07	15458
846.206	15644
846.342	15641
846.478	15523
846.614	15264
846.75	15195
846.886	15199
847.022	15249
847.158	15233
847.294	15203
847.429	15272
847.565	15188
847.701	15466
847.837	15020
847.972	14990
848.108	15097
848.244	15123
848.379	14792
848.515	14834
848.65	14826
848.786	14876
848.921	14944
849.057	14929
849.192	14971
849.328	14807
849.463	14853
849.598	14861
849.734	14819
849.869	14735
850.004	14636
850.14	14648
850.275	14629
850.41	14476
850.545	14522
850.68	14598
850.815	14632
850.95	14556
851.085	14868
851.22	14590
851.355	14621
851.49	14644
851.625	14651
851.76	14537
851.895	14518
852.03	14503
852.165	14625
852.299	14670
852.434	14648
852.569	14712
852.703	14575
852.838	14735
852.973	14807
853.107	14727
853.242	14568
853.376	14545
853.511	14438
853.645	14492
853.78	14610
853.914	14518
854.048	14446
854.183	14537
854.317	14537
854.451	14667
854.585	14438
854.72	14446
854.854	14415
854.988	14446
855.122	14480
855.256	14332
855.39	14366
855.524	14545
855.658	14571
855.792	14423
855.926	14511
856.06	14541
856.194	14560
856.327	14511
856.461	14332
856.595	14518
856.729	14412
856.862	14564
856.996	14450
857.13	14457
857.263	14560
857.397	14606
857.53	14465
857.664	14541
857.797	14518
857.931	14568
858.064	14541
858.197	14621
858.331	14404
858.464	14328
858.597	14328
858.731	14438
858.864	14450
858.997	14465
859.13	14560
859.263	14469
859.396	14552
859.529	14476
859.662	14507
859.795	14393
859.928	14488
860.061	14697
860.194	14651
860.327	14488
860.46	14511
860.592	14541
860.725	14640
860.858	14610
860.99	14431
861.123	14469
861.256	14446
861.388	14408
861.521	15028
861.653	14408
861.786	14225
861.918	14412
862.05	14366
862.183	14454
862.315	14450
862.447	14549
862.58	14438
862.712	14164
862.844	14180
862.976	14317
863.108	14374
863.24	14781
863.372	14100
863.504	14225
863.636	14229
863.768	14351
863.9	14313
864.032	14168
864.164	14225
864.296	14301
864.428	14423
864.559	14298
864.691	14271
864.823	14301
864.954	14218
865.086	14309
865.217	14256
865.349	14138
865.48	14305
865.612	14233
865.743	14412
865.875	14275
866.006	14149
866.137	14176
866.269	14229
866.4	14214
866.531	14210
866.662	14164
866.793	14218
866.924	14252
867.055	14187
867.186	14305
867.317	14153
867.448	14107
867.579	14225
867.71	14126
867.841	14107
867.972	14161
868.103	14164
868.233	14157
868.364	14191
868.495	14278
868.625	14446
868.756	14594
868.886	14427
869.017	14503
869.147	14701
869.278	14526
869.408	14507
869.539	14473
869.669	14568
869.799	14560
869.929	14575
870.06	14579
870.19	14838
870.32	14781
870.45	14845
870.58	14880
870.71	14944
870.84	14979
870.97	14868
871.1	14781
871.23	14975
871.36	15051
871.489	15036
871.619	15001
871.749	14956
871.879	15157
872.008	15188
872.138	15112
872.267	15013
872.397	14963
872.526	14929
872.656	14895
872.785	14906
872.915	15097
873.044	15233
873.173	15150
873.303	15214
873.432	15085
873.561	15150
873.69	15142
873.819	15199
873.948	15211
874.077	15127
874.206	15100
874.335	15180
874.464	15359
874.593	15405
874.722	15397
874.851	15382
874.979	15507
875.108	15519
875.237	15389
875.365	15378
875.494	15412
875.623	15412
875.751	15340
875.88	15462
876.008	15622
876.136	15728
876.265	15907
876.393	16048
876.521	15892
876.65	15895
876.778	15895
876.906	15785
877.034	15835
877.162	15797
877.29	15861
877.418	15751
877.546	15865
877.674	15812
877.802	15778
877.93	15873
878.058	15854
878.185	15766
878.313	15785
878.441	15865
878.568	15759
878.696	15816
878.824	15846
878.951	15895
879.079	16131
879.206	16169
879.333	15972
879.461	15876
879.588	15953
879.715	15983
879.842	16021
879.97	15975
880.097	15785
880.224	15568
880.351	15732
880.478	15724
880.605	15660
880.732	15614
880.859	15873
880.986	15812
881.112	15629
881.239	15542
881.366	15401
881.493	15363
881.619	15287
881.746	15348
881.872	15408
881.999	15416
882.125	15317
882.252	15443
882.378	15378
882.505	15492
882.631	15275
882.757	15131
882.883	15211
883.01	15218
883.136	15138
883.262	14948
883.388	14990
883.514	15214
883.64	15203
883.766	15135
883.892	14990
884.018	15055
884.143	15192
884.269	15245
884.395	14876
884.52	14792
884.646	14906
884.772	14845
884.897	14758
885.023	14864
885.148	14929
885.274	15055
885.399	14990
885.524	14853
885.65	14868
885.775	14838
885.9	14826
886.025	14982
886.15	14853
886.275	14819
886.4	14731
886.525	14838
886.65	14834
886.775	14716
886.9	14971
887.025	15180
887.149	14925
887.274	14705
887.399	14716
887.523	14667
887.648	14499
887.773	14575
887.897	14743
888.021	14792
888.146	14708
888.27	14800
888.395	14788
888.519	14743
888.643	14792
888.767	14727
888.891	14617
889.015	14541
889.139	14583
889.263	14545
889.387	14648
889.511	14777
889.635	14602
889.759	14617
889.883	14507
890.006	14556
890.13	14712
890.254	14533
890.377	14476
890.501	14423
890.624	14244
890.748	14454
890.871	14278
890.995	14202
891.118	14210
891.241	14256
891.364	14263
891.488	14320
891.611	14142
891.734	14328
891.857	14301
891.98	14385
892.103	14355
892.226	14271
892.349	14153
892.471	14130
892.594	14214
892.717	14153
892.839	14214
892.962	14263
893.085	14305
893.207	14263
893.33	14210
893.452	14145
893.575	14275
893.697	14145
893.819	14351
893.941	14415
894.064	14328
894.186	14164
894.308	14259
894.43	14385
894.552	14476
894.674	14366
894.796	14225
894.918	14248
895.04	14244
895.161	14366
895.283	14275
895.405	14320
895.526	14248
895.648	14454
895.769	14370
895.891	14408
896.012	14545
896.134	14389
896.255	14442
896.376	14393
896.498	14434
896.619	14480
896.74	14469
896.861	14476
896.982	14708
897.103	14876
897.224	14720
897.345	14708
897.466	14670
897.587	14598
897.708	14769
897.828	14727
897.949	14632
898.07	14507
898.19	14610
898.311	14781
898.431	14724
898.552	14830
898.672	14811
898.792	14830
898.913	14750
899.033	14712
899.153	14590
899.273	14469
899.393	14598
899.513	14594
899.633	14598
899.753	14705
899.873	14571
899.993	14598
900.113	14549
900.232	14708
900.352	14712
900.472	14594
900.591	14412
900.711	14583
900.83	14442
900.95	14568
901.069	14556
901.189	14541
901.308	14180
901.427	14206
901.546	14164
901.665	14149
901.784	14145
901.904	13978
902.023	14027
902.141	13742
902.26	13795
902.379	13788
902.498	13765
902.617	13670
902.735	13803
902.854	13639
902.973	13670
903.091	13430
903.21	13396
903.328	13464
903.446	13434
903.565	13209
903.683	13308
903.801	13255
903.919	13251
904.038	13259
904.156	13065
904.274	13118
904.392	13110
904.51	13053
904.627	13072
904.745	13057
904.863	13133
904.981	12901
905.098	12760
905.216	12776
905.334	12738
905.451	12852
905.569	12783
905.686	12875
905.803	12825
905.921	12631
906.038	12791
906.155	12631
906.272	12551
906.389	12555
906.506	12369
906.623	12426
906.74	12391
906.857	12262
906.974	12353
907.091	12395
907.208	12494
907.324	12422
907.441	12395
907.557	12106
907.674	12167
907.79	12083
907.907	12083
908.023	12091
908.139	12155
908.256	12152
908.372	11980
908.488	11942
908.604	12034
908.72	11805
908.836	11855
908.952	11809
909.068	11882
909.184	11984
909.3	11832
909.415	11923
909.531	11859
909.647	11729
909.762	11722
909.878	11665
909.993	11608
910.108	11630
910.224	11581
910.339	11668
910.454	11505
910.57	11512
910.685	11440
910.8	11733
910.915	11615
911.03	11566
911.145	11318
911.259	11318
911.374	11250
911.489	11292
911.604	11220
911.718	11056
911.833	11216
911.947	10942
912.062	10869
912.176	11102
912.291	11025
912.405	11064
912.519	11326
912.633	11322
912.748	11136
912.862	11086
912.976	10972
913.09	10904
913.204	10911
913.318	11033
913.431	11045
913.545	11079
913.659	11067
913.772	10980
913.886	10927
914	10869
914.113	10892
914.226	10915
914.34	10908
914.453	10729
914.566	10984
914.68	10835
914.793	10866
914.906	10645
915.019	10611
915.132	10470
915.245	10577
915.358	10504
915.47	10649
915.583	10603
915.696	10683
915.809	10801
915.921	10755
916.034	10637
916.146	10577
916.259	10561
916.371	10660
916.483	10592
916.595	10504
916.708	10596
916.82	10519
916.932	10481
917.044	10542
917.156	10542
917.268	10466
917.38	10394
917.491	10394
917.603	10451
917.715	10478
917.826	10493
917.938	10428
918.049	10234
918.161	10421
918.272	10535
918.384	10565
918.495	10402
918.606	10402
918.717	10219
918.828	10337
918.939	10352
919.05	10230
919.161	10337
919.272	10067
919.383	10215
919.494	10276
919.604	10573
919.715	10268
919.826	10242
919.936	10227
920.047	10398
920.157	10295
920.267	10466
920.378	10261
920.488	10280
920.598	10550
920.708	10691
920.818	10508
920.928	10462
921.038	10599
921.148	10607
921.258	10417
921.368	10265
921.477	10181
921.587	10105
921.697	10029
921.806	10162
921.916	10044
922.025	9869
922.134	9835
922.244	9774
922.353	9918
922.462	9747
922.571	9679
922.68	9572
922.789	9584
922.898	9523
923.007	9466
923.116	9587
923.224	9606
923.333	9572
923.442	9477
923.55	9378
923.659	9534
923.767	9526
923.876	9401
923.984	9504
924.092	9355
924.201	9393
924.309	9450
924.417	9393
924.525	9401
924.633	9382
924.741	10329
924.849	9260
924.956	9359
925.064	9214
925.172	9119
925.279	9188
925.387	9237
925.494	9241
925.602	9351
925.709	9237
925.816	9108
925.924	9222
926.031	9298
926.138	9233
926.245	9192
926.352	9169
926.459	9192
926.566	9275
926.673	9237
926.779	9161
926.886	9097
926.993	9005
927.099	8956
927.206	8853
927.312	8883
927.419	8967
927.525	8967
927.631	9001
927.737	8838
927.843	8769
927.95	8769
928.056	8762
928.162	8872
928.267	8876
928.373	9416
928.479	8948
928.585	8735
928.69	8838
928.796	8849
928.901	8663
929.007	8564
929.112	8716
929.218	8659
929.323	8659
929.428	8705
929.533	8838
929.638	8571
929.743	8625
929.848	8644
929.953	8610
930.058	8488
930.163	8396
930.267	8450
930.372	8556
930.477	8355
930.581	8571
930.685	8442
930.79	8339
930.894	8381
930.998	8377
931.103	8450
931.207	8145
931.311	8054
931.415	8001
931.519	7917
931.623	7822
