Data from test_V78500241_2400.txt Node
Date: Fri Mar 25 14:50:25 CST 2022
User: usil
Spectrometer: V785-0024
Trigger mode: 0
Integration Time (sec): 4.000000E-1
Scans to average: 1
Nonlinearity correction enabled: false
Boxcar width: 0
Storing dark spectrum: false
XAxis mode: Wavelengths
Number of Pixels in Spectrum: 1024
>>>>>Begin Spectral Data<<<<<
801.071	22105
801.214	22051
801.356	21701
801.499	21774
801.641	21610
801.783	21519
801.926	21450
802.068	21397
802.211	21260
802.353	21272
802.496	21096
802.638	20952
802.78	20864
802.923	20883
803.065	20796
803.208	20842
803.35	20864
803.492	20914
803.635	21039
803.777	20720
803.919	20941
804.061	21207
804.204	20899
804.346	20811
804.488	20739
804.63	20929
804.773	20686
804.915	20762
805.057	20826
805.199	20667
805.341	20739
805.483	20857
805.626	20785
805.768	20708
805.91	20746
806.052	20758
806.194	20587
806.336	20872
806.478	20754
806.62	20754
806.762	20857
806.904	20921
807.046	21195
807.188	21123
807.33	21173
807.472	21142
807.614	21085
807.756	21017
807.898	20826
808.04	20773
808.182	20868
808.324	20769
808.465	20849
808.607	20979
808.749	21112
808.891	21230
809.033	21291
809.174	21104
809.316	21028
809.458	21032
809.6	21032
809.741	21123
809.883	21264
810.025	21359
810.166	21298
810.308	21218
810.45	21165
810.591	21009
810.733	20861
810.875	20929
811.016	20819
811.158	20800
811.299	20929
811.441	21051
811.582	20952
811.724	21001
811.865	20899
812.007	20933
812.148	20971
812.29	20994
812.431	21119
812.573	21150
812.714	21233
812.855	21306
812.997	21648
813.138	21690
813.279	21458
813.421	21382
813.562	21211
813.703	21100
813.845	21100
813.986	20765
814.127	20689
814.268	20545
814.41	20583
814.551	20442
814.692	20503
814.833	20233
814.974	20442
815.115	20393
815.256	20290
815.397	20244
815.539	20358
815.68	20126
815.821	20145
815.962	20149
816.103	20043
816.244	20020
816.385	19845
816.526	19830
816.666	19772
816.807	19544
816.948	19704
817.089	19651
817.23	19647
817.371	19533
817.512	19567
817.653	19540
817.793	19499
817.934	19468
818.075	19510
818.216	19624
818.356	19556
818.497	19438
818.638	19118
818.778	19282
818.919	19316
819.06	19297
819.2	19407
819.341	19430
819.481	19411
819.622	19540
819.762	19811
819.903	19624
820.043	19594
820.184	19460
820.324	19472
820.465	19655
820.605	19609
820.746	19464
820.886	19510
821.026	19529
821.167	19495
821.307	19540
821.447	19460
821.588	19183
821.728	19194
821.868	19168
822.008	18909
822.149	18985
822.289	18795
822.429	18692
822.569	18673
822.709	18642
822.849	18475
822.99	18327
823.13	18422
823.27	18414
823.41	18251
823.55	18254
823.69	18281
823.83	18243
823.97	18254
824.11	17980
824.25	18117
824.389	18011
824.529	18121
824.669	18121
824.809	18117
824.949	18068
825.089	18068
825.228	18026
825.368	17832
825.508	17828
825.648	17790
825.787	17855
825.927	17843
826.067	17729
826.206	17847
826.346	17786
826.485	17897
826.625	17695
826.765	17874
826.904	17775
827.044	17562
827.183	17547
827.323	17573
827.462	17512
827.601	17414
827.741	17516
827.88	17547
828.02	17345
828.159	17505
828.298	17433
828.437	17528
828.577	17417
828.716	17695
828.855	17406
828.994	17277
829.134	17231
829.273	17246
829.412	17178
829.551	17250
829.69	17193
829.829	17269
829.968	17398
830.107	17254
830.246	17318
830.385	17098
830.524	17105
830.663	17064
830.802	16980
830.941	16847
831.08	16683
831.219	16930
831.357	16968
831.496	17041
831.635	16927
831.774	16850
831.913	16748
832.051	16546
832.19	16615
832.329	16637
832.467	16596
832.606	16573
832.744	16481
832.883	16527
833.022	16462
833.16	16497
833.299	16668
833.437	16615
833.576	16615
833.714	16554
833.852	16679
833.991	16664
834.129	16717
834.267	16584
834.406	16611
834.544	16584
834.682	16615
834.821	16561
834.959	16767
835.097	16573
835.235	16626
835.373	16603
835.511	16717
835.65	16554
835.788	16485
835.926	16436
836.064	16200
836.202	16276
836.34	16542
836.478	16561
836.615	16405
836.753	16421
836.891	16516
837.029	16523
837.167	16386
837.305	16428
837.443	16405
837.58	16257
837.718	16413
837.856	16367
837.993	16188
838.131	16390
838.269	16200
838.406	16261
838.544	16226
838.681	16131
838.819	15983
838.956	15903
839.094	15941
839.231	15998
839.369	16055
839.506	16223
839.643	16177
839.781	15949
839.918	15918
840.055	15880
840.193	15831
840.33	15812
840.467	15907
840.604	15899
840.742	15987
840.879	15743
841.016	15766
841.153	15755
841.29	16036
841.427	15808
841.564	15930
841.701	15892
841.838	15854
841.975	15770
842.112	15915
842.249	15857
842.385	15584
842.522	15816
842.659	15633
842.796	15610
842.933	15717
843.069	15705
843.206	15690
843.343	15698
843.479	15732
843.616	15766
843.752	15367
843.889	15458
844.025	15576
844.162	15389
844.298	15564
844.435	15603
844.571	15348
844.708	15526
844.844	15568
844.98	15644
845.117	15587
845.253	15359
845.389	15412
845.525	15374
845.661	15424
845.798	15291
845.934	15355
846.07	15230
846.206	15401
846.342	15325
846.478	15146
846.614	15058
846.75	14994
846.886	14986
847.022	15066
847.158	15112
847.294	14979
847.429	15036
847.565	14952
847.701	15237
847.837	14823
847.972	14727
848.108	14853
848.244	14921
848.379	14655
848.515	14648
848.65	14552
848.786	14629
848.921	14659
849.057	14731
849.192	14708
849.328	14670
849.463	14587
849.598	14575
849.734	14659
849.869	14511
850.004	14446
850.14	14434
850.275	14450
850.41	14320
850.545	14358
850.68	14404
850.815	14263
850.95	14469
851.085	14629
851.22	14541
851.355	14393
851.49	14332
851.625	14370
851.76	14339
851.895	14370
852.03	14271
852.165	14328
852.299	14450
852.434	14492
852.569	14374
852.703	14362
852.838	14446
852.973	14583
853.107	14530
853.242	14317
853.376	14374
853.511	14218
853.645	14195
853.78	14415
853.914	14267
854.048	14275
854.183	14332
854.317	14191
854.451	14423
854.585	14263
854.72	14123
854.854	14332
854.988	14069
855.122	14130
855.256	14176
855.39	14275
855.524	14366
855.658	14286
855.792	14320
855.926	14206
856.06	14377
856.194	14324
856.327	14286
856.461	14157
856.595	14195
856.729	14195
856.862	14301
856.996	14305
857.13	14282
857.263	14328
857.397	14408
857.53	14278
857.664	14298
857.797	14404
857.931	14267
858.064	14324
858.197	14389
858.331	14195
858.464	14210
858.597	14138
858.731	14233
858.864	14081
858.997	14290
859.13	14210
859.263	14298
859.396	14339
859.529	14298
859.662	14157
859.795	14130
859.928	14244
860.061	14400
860.194	14545
860.327	14298
860.46	14324
860.592	14374
860.725	14389
860.858	14336
860.99	14183
861.123	14111
861.256	14172
861.388	14256
861.521	14788
861.653	14088
861.786	14107
861.918	14088
862.05	14172
862.183	14256
862.315	14244
862.447	14271
862.58	14100
862.712	14069
862.844	13974
862.976	14191
863.108	14073
863.24	14374
863.372	14012
863.504	14202
863.636	14058
863.768	14107
863.9	14073
864.032	13944
864.164	14016
864.296	14073
864.428	14218
864.559	14195
864.691	14103
864.823	14088
864.954	14024
865.086	14115
865.217	14039
865.349	13967
865.48	14065
865.612	14092
865.743	14088
865.875	14130
866.006	13917
866.137	14096
866.269	14043
866.4	13989
866.531	14016
866.662	13932
866.793	13955
866.924	13963
867.055	14043
867.186	14100
867.317	13974
867.448	13986
867.579	13906
867.71	14016
867.841	13936
867.972	14058
868.103	13993
868.233	14012
868.364	13928
868.495	14161
868.625	14240
868.756	14355
868.886	14134
869.017	14252
869.147	14339
869.278	14317
869.408	14271
869.539	14290
869.669	14389
869.799	14294
869.929	14427
870.06	14301
870.19	14632
870.32	14564
870.45	14560
870.58	14731
870.71	14743
870.84	14769
870.97	14705
871.1	14625
871.23	14910
871.36	14830
871.489	14804
871.619	14796
871.749	14899
871.879	14975
872.008	14994
872.138	14887
872.267	14804
872.397	14758
872.526	14648
872.656	14659
872.785	14724
872.915	14994
873.044	14971
873.173	14876
873.303	14895
873.432	14956
873.561	15013
873.69	14937
873.819	14906
873.948	15043
874.077	15051
874.206	14891
874.335	14902
874.464	15089
874.593	15252
874.722	15085
874.851	15226
874.979	15138
875.108	15241
875.237	15207
875.365	15154
875.494	15207
875.623	15325
875.751	15252
875.88	15214
876.008	15374
876.136	15481
876.265	15606
876.393	15800
876.521	15713
876.65	15770
876.778	15728
876.906	15614
877.034	15580
877.162	15618
877.29	15599
877.418	15682
877.546	15663
877.674	15682
877.802	15671
877.93	15625
878.058	15606
878.185	15584
878.313	15660
878.441	15641
878.568	15549
878.696	15671
878.824	15705
878.951	15648
879.079	15774
879.206	16017
879.333	15838
879.461	15759
879.588	15743
879.715	15762
879.842	16010
879.97	15747
880.097	15553
880.224	15466
880.351	15488
880.478	15534
880.605	15408
880.732	15485
880.859	15770
880.986	15587
881.112	15542
881.239	15393
881.366	15272
881.493	15184
881.619	15173
881.746	15176
881.872	15062
881.999	15146
882.125	15066
882.252	15214
882.378	15127
882.505	15279
882.631	15112
882.757	15032
882.883	14998
883.01	14933
883.136	15020
883.262	14876
883.388	14834
883.514	15024
883.64	15051
883.766	14982
883.892	14743
884.018	14834
884.143	14910
884.269	15036
884.395	14750
884.52	14583
884.646	14686
884.772	14606
884.897	14560
885.023	14625
885.148	14773
885.274	14933
885.399	14830
885.524	14636
885.65	14625
885.775	14689
885.9	14625
886.025	14739
886.15	14701
886.275	14686
886.4	14564
886.525	14735
886.65	14598
886.775	14518
886.9	14849
887.025	14834
887.149	14632
887.274	14549
887.399	14503
887.523	14480
887.648	14412
887.773	14377
887.897	14598
888.021	14541
888.146	14427
888.27	14663
888.395	14655
888.519	14568
888.643	14507
888.767	14431
888.891	14469
889.015	14347
889.139	14431
889.263	14324
889.387	14568
889.511	14632
889.635	14385
889.759	14317
889.883	14347
890.006	14423
890.13	14556
890.254	14286
890.377	14298
890.501	14058
890.624	14119
890.748	14214
890.871	14084
890.995	14005
891.118	13940
891.241	14081
891.364	14107
891.488	14286
891.611	14035
891.734	14031
891.857	14126
891.98	14103
892.103	14123
892.226	14206
892.349	14081
892.471	13909
892.594	14027
892.717	14031
892.839	14027
892.962	14130
893.085	14199
893.207	14005
893.33	13925
893.452	13940
893.575	14138
893.697	14001
893.819	14244
893.941	14275
894.064	14157
894.186	14031
894.308	14081
894.43	14271
894.552	14336
894.674	14233
894.796	14069
894.918	14187
895.04	14130
895.161	14244
895.283	14176
895.405	14138
895.526	14123
895.648	14218
895.769	14103
895.891	14229
896.012	14286
896.134	14309
896.255	14286
896.376	14267
896.498	14130
896.619	14271
896.74	14229
896.861	14362
896.982	14606
897.103	14758
897.224	14511
897.345	14503
897.466	14408
897.587	14552
897.708	14613
897.828	14530
897.949	14522
898.07	14431
898.19	14457
898.311	14541
898.431	14549
898.552	14587
898.672	14716
898.792	14621
898.913	14689
899.033	14590
899.153	14488
899.273	14404
899.393	14415
899.513	14446
899.633	14476
899.753	14484
899.873	14499
899.993	14511
900.113	14415
900.232	14495
900.352	14381
900.472	14385
900.591	14358
900.711	14282
900.83	14336
900.95	14492
901.069	14396
901.189	14229
901.308	13993
901.427	14020
901.546	13970
901.665	13959
901.784	14027
901.904	13799
902.023	13723
902.141	13582
902.26	13537
902.379	13658
902.498	13616
902.617	13537
902.735	13723
902.854	13506
902.973	13537
903.091	13304
903.21	13247
903.328	13274
903.446	13232
903.565	13099
903.683	13133
903.801	13072
903.919	13175
904.038	13133
904.156	12905
904.274	12989
904.392	12901
904.51	12878
904.627	12989
904.745	12977
904.863	13015
904.981	12745
905.098	12700
905.216	12608
905.334	12627
905.451	12658
905.569	12585
905.686	12745
905.803	12715
905.921	12490
906.038	12566
906.155	12407
906.272	12357
906.389	12498
906.506	12243
906.623	12216
906.74	12292
906.857	12201
906.974	12125
907.091	12292
907.208	12391
907.324	12273
907.441	12270
907.557	12083
907.674	12064
907.79	11942
907.907	12060
908.023	12011
908.139	11988
908.256	12007
908.372	11969
908.488	11832
908.604	11798
908.72	11699
908.836	11733
908.952	11843
909.068	11794
909.184	11897
909.3	11847
909.415	11931
909.531	11798
909.647	11486
909.762	11611
909.878	11528
909.993	11600
910.108	11554
910.224	11474
910.339	11596
910.454	11467
910.57	11417
910.685	11356
910.8	11611
910.915	11539
911.03	11391
911.145	11273
911.259	11345
911.374	11216
911.489	11261
911.604	11162
911.718	10991
911.833	11014
911.947	10968
912.062	10854
912.176	10980
912.291	11033
912.405	10976
912.519	11246
912.633	11189
912.748	11025
912.862	10987
912.976	10850
913.09	10854
913.204	10873
913.318	10923
913.431	10938
913.545	10980
913.659	11006
913.772	10831
913.886	10835
914	10835
914.113	10790
914.226	10889
914.34	10831
914.453	10729
914.566	10843
914.68	10755
914.793	10706
914.906	10550
915.019	10436
915.132	10413
915.245	10455
915.358	10504
915.47	10546
915.583	10504
915.696	10554
915.809	10561
915.921	10672
916.034	10531
916.146	10462
916.259	10447
916.371	10561
916.483	10599
916.595	10386
916.708	10481
916.82	10440
916.932	10329
917.044	10424
917.156	10432
917.268	10291
917.38	10310
917.491	10310
917.603	10352
917.715	10382
917.826	10417
917.938	10299
918.049	10196
918.161	10333
918.272	10489
918.384	10424
918.495	10367
918.606	10093
918.717	10192
918.828	10230
918.939	10238
919.05	10109
919.161	10249
919.272	9934
919.383	10082
919.494	10234
919.604	10436
919.715	10211
919.826	10188
919.936	10158
920.047	10295
920.157	10310
920.267	10413
920.378	10306
920.488	10276
920.598	10455
920.708	10672
920.818	10500
920.928	10455
921.038	10645
921.148	10645
921.258	10303
921.368	10200
921.477	10093
921.587	10086
921.697	9998
921.806	10044
921.916	9987
922.025	9857
922.134	9835
922.244	9740
922.353	9899
922.462	9656
922.571	9572
922.68	9496
922.789	9492
922.898	9523
923.007	9416
923.116	9545
923.224	9466
923.333	9492
923.442	9389
923.55	9287
923.659	9359
923.767	9405
923.876	9325
923.984	9401
924.092	9329
924.201	9363
924.309	9393
924.417	9332
924.525	9363
924.633	9317
924.741	10116
924.849	9131
924.956	9192
925.064	9135
925.172	9074
925.279	9024
925.387	9169
925.494	9089
925.602	9256
925.709	9275
925.816	9108
925.924	9154
926.031	9279
926.138	9154
926.245	9146
926.352	9138
926.459	9131
926.566	9184
926.673	9123
926.779	9024
926.886	9017
926.993	8830
927.099	8895
927.206	8766
927.312	8819
927.419	8933
927.525	8887
927.631	8861
927.737	8777
927.843	8731
927.95	8655
928.056	8727
928.162	8792
928.267	8834
928.373	9424
928.479	8880
928.585	8602
928.69	8735
928.796	8800
928.901	8659
929.007	8484
929.112	8663
929.218	8613
929.323	8587
929.428	8625
929.533	8815
929.638	8499
929.743	8560
929.848	8598
929.953	8503
930.058	8419
930.163	8404
930.267	8389
930.372	8499
930.477	8309
930.581	8545
930.685	8442
930.79	8317
930.894	8320
930.998	8214
931.103	8419
931.207	8077
931.311	8054
931.415	7883
931.519	7795
931.623	7860
