Data from test_V78500241_3350.txt Node
Date: Fri Mar 25 14:57:02 CST 2022
User: usil
Spectrometer: V785-0024
Trigger mode: 0
Integration Time (sec): 4.000000E-1
Scans to average: 1
Nonlinearity correction enabled: false
Boxcar width: 0
Storing dark spectrum: false
XAxis mode: Wavelengths
Number of Pixels in Spectrum: 1024
>>>>>Begin Spectral Data<<<<<
801.071	21949
801.214	21819
801.356	21675
801.499	21496
801.641	21416
801.783	21370
801.926	21393
802.068	21321
802.211	21112
802.353	20998
802.496	20994
802.638	20868
802.78	20746
802.923	20651
803.065	20609
803.208	20606
803.35	20667
803.492	20815
803.635	20724
803.777	20678
803.919	20670
804.061	20925
804.204	20667
804.346	20594
804.488	20731
804.63	20545
804.773	20473
804.915	20568
805.057	20564
805.199	20431
805.341	20632
805.483	20731
805.626	20583
805.768	20518
805.91	20480
806.052	20469
806.194	20511
806.336	20670
806.478	20568
806.62	20419
806.762	20446
806.904	20617
807.046	20823
807.188	20849
807.33	20796
807.472	20921
807.614	20689
807.756	20891
807.898	20663
808.04	20689
808.182	20636
808.324	20621
808.465	20712
808.607	20857
808.749	20849
808.891	20967
809.033	20956
809.174	21013
809.316	20804
809.458	20925
809.6	20826
809.741	20899
809.883	20910
810.025	21028
810.166	21169
810.308	21051
810.45	20941
810.591	20937
810.733	20769
810.875	20629
811.016	20613
811.158	20541
811.299	20651
811.441	20853
811.582	20800
811.724	20689
811.865	20594
812.007	20560
812.148	20735
812.29	20674
812.431	20746
812.573	20880
812.714	21039
812.855	21104
812.997	21207
813.138	21447
813.279	21329
813.421	21142
813.562	20956
813.703	20857
813.845	20857
813.986	20427
814.127	20381
814.268	20122
814.41	20286
814.551	20157
814.692	20366
814.833	20157
814.974	20161
815.115	20126
815.256	19982
815.397	19982
815.539	20157
815.68	19780
815.821	19833
815.962	19974
816.103	19883
816.244	19765
816.385	19639
816.526	19620
816.666	19483
816.807	19308
816.948	19521
817.089	19487
817.23	19263
817.371	19434
817.512	19270
817.653	19247
817.793	19251
817.934	19350
818.075	19278
818.216	19232
818.356	19331
818.497	19095
818.638	18951
818.778	18993
818.919	18920
819.06	19057
819.2	19118
819.341	19168
819.481	19160
819.622	19240
819.762	19548
819.903	19476
820.043	19422
820.184	19324
820.324	19312
820.465	19369
820.605	19312
820.746	19388
820.886	19114
821.026	19179
821.167	19343
821.307	19304
821.447	19274
821.588	19152
821.728	18954
821.868	18951
822.008	18745
822.149	18719
822.289	18741
822.429	18483
822.569	18502
822.709	18464
822.849	18186
822.99	18338
823.13	18251
823.27	18068
823.41	18091
823.55	17935
823.69	18079
823.83	18019
823.97	17935
824.11	17836
824.25	17748
824.389	17832
824.529	17874
824.669	17748
824.809	17851
824.949	17870
825.089	17897
825.228	17752
825.368	17497
825.508	17630
825.648	17615
825.787	17577
825.927	17634
826.067	17505
826.206	17619
826.346	17592
826.485	17657
826.625	17524
826.765	17615
826.904	17672
827.044	17486
827.183	17303
827.323	17318
827.462	17280
827.601	17292
827.741	17223
827.88	17334
828.02	17056
828.159	17288
828.298	17178
828.437	17277
828.577	17189
828.716	17417
828.855	17227
828.994	17124
829.134	17029
829.273	17075
829.412	17052
829.551	16904
829.69	16987
829.829	16946
829.968	17109
830.107	17052
830.246	17121
830.385	17052
830.524	16835
830.663	16850
830.802	16698
830.941	16592
831.08	16512
831.219	16736
831.357	16694
831.496	16801
831.635	16702
831.774	16508
831.913	16497
832.051	16443
832.19	16398
832.329	16421
832.467	16268
832.606	16398
832.744	16348
832.883	16337
833.022	16306
833.16	16306
833.299	16360
833.437	16493
833.576	16322
833.714	16459
833.852	16390
833.991	16402
834.129	16390
834.267	16432
834.406	16402
834.544	16402
834.682	16390
834.821	16257
834.959	16607
835.097	16375
835.235	16443
835.373	16341
835.511	16398
835.65	16341
835.788	16306
835.926	16295
836.064	16040
836.202	16192
836.34	16360
836.478	16413
836.615	16356
836.753	16246
836.891	16402
837.029	16253
837.167	16276
837.305	16329
837.443	16143
837.58	16135
837.718	16242
837.856	16147
837.993	16185
838.131	16249
838.269	16097
838.406	16112
838.544	16147
838.681	15808
838.819	15964
838.956	15793
839.094	15762
839.231	15823
839.369	15804
839.506	16143
839.643	16067
839.781	15766
839.918	15622
840.055	15732
840.193	15819
840.33	15724
840.467	15797
840.604	15694
840.742	15949
840.879	15606
841.016	15717
841.153	15660
841.29	15888
841.427	15785
841.564	15797
841.701	15838
841.838	15736
841.975	15675
842.112	15690
842.249	15671
842.385	15534
842.522	15781
842.659	15526
842.796	15561
842.933	15576
843.069	15557
843.206	15538
843.343	15633
843.479	15709
843.616	15523
843.752	15332
843.889	15416
844.025	15507
844.162	15291
844.298	15481
844.435	15355
844.571	15302
844.708	15435
844.844	15443
844.98	15542
845.117	15545
845.253	15298
845.389	15313
845.525	15325
845.661	15252
845.798	15131
845.934	15146
846.07	15192
846.206	15211
846.342	15249
846.478	15169
846.614	15047
846.75	14975
846.886	14819
847.022	14971
847.158	14910
847.294	14925
847.429	14971
847.565	14906
847.701	15165
847.837	14731
847.972	14610
848.108	14754
848.244	14705
848.379	14640
848.515	14537
848.65	14610
848.786	14541
848.921	14511
849.057	14587
849.192	14617
849.328	14602
849.463	14545
849.598	14503
849.734	14469
849.869	14343
850.004	14324
850.14	14385
850.275	14309
850.41	14275
850.545	14218
850.68	14259
850.815	14298
850.95	14244
851.085	14374
851.22	14370
851.355	14324
851.49	14259
851.625	14168
851.76	14225
851.895	14214
852.03	14191
852.165	14374
852.299	14221
852.434	14355
852.569	14347
852.703	14248
852.838	14221
852.973	14465
853.107	14282
853.242	14328
853.376	14187
853.511	14164
853.645	14096
853.78	14267
853.914	14149
854.048	14168
854.183	14183
854.317	14168
854.451	14237
854.585	14062
854.72	14100
854.854	14286
854.988	14138
855.122	14103
855.256	14020
855.39	14153
855.524	14218
855.658	14172
855.792	14221
855.926	14214
856.06	14168
856.194	14286
856.327	14180
856.461	14172
856.595	14168
856.729	14115
856.862	14248
856.996	14210
857.13	14286
857.263	14286
857.397	14286
857.53	14164
857.664	14351
857.797	14271
857.931	14275
858.064	14176
858.197	14233
858.331	14145
858.464	14062
858.597	14107
858.731	14164
858.864	14126
858.997	14130
859.13	14187
859.263	14210
859.396	14202
859.529	14290
859.662	14149
859.795	14100
859.928	14149
860.061	14446
860.194	14427
860.327	14202
860.46	14210
860.592	14278
860.725	14259
860.858	14309
860.99	14263
861.123	14149
861.256	14123
861.388	14145
861.521	15032
861.653	14046
861.786	14065
861.918	13928
862.05	14103
862.183	14111
862.315	14229
862.447	14267
862.58	14043
862.712	13852
862.844	13879
862.976	13917
863.108	13963
863.24	14294
863.372	13902
863.504	14054
863.636	13928
863.768	13970
863.9	14058
864.032	13921
864.164	13936
864.296	13989
864.428	14012
864.559	14134
864.691	13982
864.823	13947
864.954	13947
865.086	13982
865.217	13993
865.349	13883
865.48	13997
865.612	13936
865.743	14115
865.875	13951
866.006	13917
866.137	13997
866.269	13871
866.4	13894
866.531	13852
866.662	13875
866.793	13928
866.924	13879
867.055	13909
867.186	13997
867.317	13818
867.448	13715
867.579	13883
867.71	13841
867.841	13849
867.972	13986
868.103	13928
868.233	13917
868.364	13951
868.495	14111
868.625	14271
868.756	14237
868.886	14164
869.017	14206
869.147	14259
869.278	14381
869.408	14233
869.539	14210
869.669	14305
869.799	14259
869.929	14286
870.06	14267
870.19	14533
870.32	14530
870.45	14606
870.58	14575
870.71	14648
870.84	14716
870.97	14571
871.1	14571
871.23	14762
871.36	14731
871.489	14674
871.619	14781
871.749	14735
871.879	14826
872.008	14998
872.138	14853
872.267	14823
872.397	14712
872.526	14606
872.656	14632
872.785	14689
872.915	14804
873.044	14864
873.173	14758
873.303	14788
873.432	14876
873.561	14902
873.69	14899
873.819	14849
873.948	14914
874.077	14849
874.206	14727
874.335	14963
874.464	15036
874.593	15142
874.722	15001
874.851	15188
874.979	15249
875.108	15241
875.237	15123
875.365	15077
875.494	15173
875.623	15241
875.751	15180
875.88	15173
876.008	15325
876.136	15359
876.265	15469
876.393	15701
876.521	15701
876.65	15610
876.778	15538
876.906	15587
877.034	15526
877.162	15504
877.29	15420
877.418	15564
877.546	15637
877.674	15599
877.802	15492
877.93	15542
878.058	15603
878.185	15454
878.313	15595
878.441	15530
878.568	15454
878.696	15534
878.824	15538
878.951	15682
879.079	15739
879.206	15819
879.333	15800
879.461	15561
879.588	15713
879.715	15766
879.842	15873
879.97	15663
880.097	15408
880.224	15382
880.351	15477
880.478	15424
880.605	15420
880.732	15370
880.859	15698
880.986	15462
881.112	15473
881.239	15306
881.366	15150
881.493	15161
881.619	15066
881.746	15074
881.872	15165
881.999	15017
882.125	15100
882.252	15085
882.378	15150
882.505	15211
882.631	14937
882.757	15013
882.883	14960
883.01	14918
883.136	14876
883.262	14788
883.388	14754
883.514	14941
883.64	14929
883.766	14834
883.892	14678
884.018	14686
884.143	14952
884.269	15020
884.395	14640
884.52	14621
884.646	14537
884.772	14564
884.897	14511
885.023	14670
885.148	14815
885.274	14773
885.399	14705
885.524	14629
885.65	14526
885.775	14594
885.9	14678
886.025	14731
886.15	14636
886.275	14533
886.4	14492
886.525	14457
886.65	14469
886.775	14636
886.9	14754
887.025	14800
887.149	14667
887.274	14427
887.399	14298
887.523	14476
887.648	14282
887.773	14343
887.897	14632
888.021	14476
888.146	14495
888.27	14541
888.395	14507
888.519	14415
888.643	14503
888.767	14606
888.891	14389
889.015	14233
889.139	14389
889.263	14298
889.387	14423
889.511	14499
889.635	14461
889.759	14309
889.883	14294
890.006	14278
890.13	14427
890.254	14195
890.377	14339
890.501	14130
890.624	14050
890.748	14100
890.871	14054
890.995	13997
891.118	13875
891.241	14031
891.364	14062
891.488	14142
891.611	14008
891.734	14035
891.857	14058
891.98	13989
892.103	14081
892.226	13959
892.349	13951
892.471	13841
892.594	14012
892.717	14005
892.839	13959
892.962	13913
893.085	14043
893.207	14027
893.33	13890
893.452	13951
893.575	14142
893.697	13936
893.819	14126
893.941	14199
894.064	14202
894.186	14012
894.308	13906
894.43	14202
894.552	14248
894.674	14134
894.796	13963
894.918	13989
895.04	14020
895.161	14229
895.283	14115
895.405	13978
895.526	14115
895.648	14111
895.769	14084
895.891	14259
896.012	14267
896.134	14309
896.255	14214
896.376	14206
896.498	14168
896.619	14298
896.74	14107
896.861	14358
896.982	14533
897.103	14587
897.224	14533
897.345	14495
897.466	14408
897.587	14473
897.708	14541
897.828	14484
897.949	14415
898.07	14267
898.19	14450
898.311	14522
898.431	14431
898.552	14579
898.672	14636
898.792	14518
898.913	14575
899.033	14339
899.153	14434
899.273	14275
899.393	14362
899.513	14355
899.633	14381
899.753	14366
899.873	14339
899.993	14514
900.113	14404
900.232	14404
900.352	14366
900.472	14278
900.591	14176
900.711	14286
900.83	14240
900.95	14259
901.069	14358
901.189	14138
901.308	13898
901.427	13894
901.546	13894
901.665	13932
901.784	13864
901.904	13883
902.023	13757
902.141	13483
902.26	13544
902.379	13578
902.498	13388
902.617	13460
902.735	13548
902.854	13460
902.973	13396
903.091	13293
903.21	13228
903.328	13274
903.446	13209
903.565	13110
903.683	13069
903.801	12905
903.919	12996
904.038	13122
904.156	12935
904.274	12989
904.392	12791
904.51	12886
904.627	12821
904.745	12970
904.863	12977
904.981	12688
905.098	12597
905.216	12574
905.334	12589
905.451	12513
905.569	12623
905.686	12627
905.803	12525
905.921	12380
906.038	12502
906.155	12460
906.272	12266
906.389	12315
906.506	12190
906.623	12258
906.74	12159
906.857	11984
906.974	12064
907.091	12235
907.208	12239
907.324	12167
907.441	12076
907.557	11973
907.674	11904
907.79	11813
907.907	11824
908.023	11912
908.139	11893
908.256	11973
908.372	11775
908.488	11794
908.604	11733
908.72	11649
908.836	11661
908.952	11573
909.068	11737
909.184	11802
909.3	11691
909.415	11756
909.531	11726
909.647	11497
909.762	11440
909.878	11535
909.993	11501
910.108	11463
910.224	11372
910.339	11474
910.454	11372
910.57	11193
910.685	11239
910.8	11509
910.915	11509
911.03	11284
911.145	11159
911.259	11208
911.374	11174
911.489	11045
911.604	11117
911.718	10873
911.833	10934
911.947	10824
912.062	10736
912.176	10858
912.291	10881
912.405	10915
912.519	11216
912.633	11155
912.748	11029
912.862	10873
912.976	10790
913.09	10698
913.204	10759
913.318	10797
913.431	10847
913.545	10896
913.659	10866
913.772	10774
913.886	10660
914	10611
914.113	10733
914.226	10820
914.34	10702
914.453	10599
914.566	10755
914.68	10523
914.793	10721
914.906	10417
915.019	10447
915.132	10318
915.245	10352
915.358	10413
915.47	10402
915.583	10432
915.696	10428
915.809	10519
915.921	10622
916.034	10428
916.146	10417
916.259	10261
916.371	10428
916.483	10440
916.595	10363
916.708	10386
916.82	10287
916.932	10276
917.044	10360
917.156	10276
917.268	10234
917.38	10265
917.491	10238
917.603	10265
917.715	10367
917.826	10394
917.938	10147
918.049	10143
918.161	10230
918.272	10428
918.384	10344
918.495	10314
918.606	10124
918.717	10109
918.828	10124
918.939	10128
919.05	10059
919.161	10090
919.272	9876
919.383	10048
919.494	10257
919.604	10276
919.715	10124
919.826	10116
919.936	10173
920.047	10287
920.157	10120
920.267	10371
920.378	10162
920.488	10120
920.598	10261
920.708	10481
920.818	10291
920.928	10356
921.038	10462
921.148	10508
921.258	10158
921.368	10135
921.477	10021
921.587	9994
921.697	9800
921.806	9983
921.916	9861
922.025	9743
922.134	9732
922.244	9663
922.353	9694
922.462	9595
922.571	9507
922.68	9405
922.789	9374
922.898	9374
923.007	9355
923.116	9412
923.224	9454
923.333	9317
923.442	9348
923.55	9264
923.659	9249
923.767	9291
923.876	9279
923.984	9325
924.092	9233
924.201	9294
924.309	9287
924.417	9325
924.525	9272
924.633	9294
924.741	10147
924.849	9043
924.956	9237
925.064	9062
925.172	8952
925.279	8967
925.387	9146
925.494	9093
925.602	9310
925.709	9180
925.816	9028
925.924	9001
926.031	9173
926.138	9093
926.245	9093
926.352	9097
926.459	9116
926.566	9146
926.673	9055
926.779	8921
926.886	8941
926.993	8769
927.099	8845
927.206	8693
927.312	8773
927.419	8819
927.525	8773
927.631	8826
927.737	8659
927.843	8708
927.95	8613
928.056	8689
928.162	8655
928.267	8667
928.373	9397
928.479	8762
928.585	8552
928.69	8648
928.796	8659
928.901	8632
929.007	8514
929.112	8549
929.218	8518
929.323	8511
929.428	8530
929.533	8651
929.638	8396
929.743	8492
929.848	8514
929.953	8503
930.058	8336
930.163	8202
930.267	8317
930.372	8434
930.477	8195
930.581	8457
930.685	8328
930.79	8191
930.894	8206
930.998	8218
931.103	8290
931.207	8027
931.311	8008
931.415	7906
931.519	7685
931.623	7734
