Data from test_V78500241_1000.txt Node
Date: Fri Mar 25 14:40:40 CST 2022
User: usil
Spectrometer: V785-0024
Trigger mode: 0
Integration Time (sec): 4.000000E-1
Scans to average: 1
Nonlinearity correction enabled: false
Boxcar width: 0
Storing dark spectrum: false
XAxis mode: Wavelengths
Number of Pixels in Spectrum: 1024
>>>>>Begin Spectral Data<<<<<
801.071	23098
801.214	23006
801.356	22850
801.499	22580
801.641	22516
801.783	22462
801.926	22573
802.068	22382
802.211	22344
802.353	22268
802.496	22040
802.638	21911
802.78	21926
802.923	21846
803.065	21819
803.208	21911
803.35	21755
803.492	21854
803.635	21945
803.777	21762
803.919	22055
804.061	22219
804.204	21983
804.346	21785
804.488	21629
804.63	21709
804.773	21713
804.915	21846
805.057	21911
805.199	21804
805.341	21778
805.483	21880
805.626	21800
805.768	21690
805.91	21724
806.052	21831
806.194	21713
806.336	21941
806.478	21789
806.62	21835
806.762	21911
806.904	22021
807.046	22204
807.188	22295
807.33	22253
807.472	22329
807.614	22253
807.756	22314
807.898	22459
808.04	22318
808.182	22424
808.324	22557
808.465	22816
808.607	23048
808.749	23383
808.891	23512
809.033	23570
809.174	23356
809.316	23155
809.458	23060
809.6	22748
809.741	22702
809.883	22637
810.025	22626
810.166	22550
810.308	22516
810.45	22455
810.591	22371
810.733	22192
810.875	22074
811.016	22093
811.158	22036
811.299	22128
811.441	22181
811.582	22257
811.724	22139
811.865	22010
812.007	22059
812.148	21949
812.29	22090
812.431	22188
812.573	22329
812.714	22341
812.855	22504
812.997	22573
813.138	22710
813.279	22599
813.421	22538
813.562	22535
813.703	22131
813.845	22181
813.986	21983
814.127	21774
814.268	21606
814.41	21606
814.551	21652
814.692	21675
814.833	21355
814.974	21500
815.115	21519
815.256	21420
815.397	21302
815.539	21355
815.68	21245
815.821	21207
815.962	21329
816.103	21188
816.244	21123
816.385	20956
816.526	21013
816.666	20788
816.807	20530
816.948	20777
817.089	20811
817.23	20781
817.371	20659
817.512	20716
817.653	20629
817.793	20724
817.934	20796
818.075	20746
818.216	20632
818.356	20560
818.497	20492
818.638	20332
818.778	20275
818.919	20358
819.06	20362
819.2	20499
819.341	20465
819.481	20511
819.622	20636
819.762	20857
819.903	20842
820.043	20693
820.184	20655
820.324	20560
820.465	20773
820.605	20697
820.746	20571
820.886	20499
821.026	20484
821.167	20575
821.307	20712
821.447	20545
821.588	20374
821.728	20332
821.868	20153
822.008	19955
822.149	20081
822.289	20100
822.429	19852
822.569	19715
822.709	19655
822.849	19601
822.99	19476
823.13	19647
823.27	19487
823.41	19377
823.55	19175
823.69	19354
823.83	19324
823.97	19206
824.11	19137
824.25	19137
824.389	19008
824.529	19175
824.669	19103
824.809	19133
824.949	19168
825.089	19293
825.228	19137
825.368	18871
825.508	18970
825.648	19046
825.787	18966
825.927	18958
826.067	18810
826.206	18821
826.346	18916
826.485	18859
826.625	18886
826.765	18970
826.904	18913
827.044	18696
827.183	18719
827.323	18642
827.462	18673
827.601	18639
827.741	18475
827.88	18532
828.02	18506
828.159	18551
828.298	18623
828.437	18639
828.577	18509
828.716	18700
828.855	18521
828.994	18315
829.134	18372
829.273	18384
829.412	18239
829.551	18315
829.69	18285
829.829	18361
829.968	18251
830.107	18228
830.246	18258
830.385	18266
830.524	18148
830.663	18121
830.802	18045
830.941	17893
831.08	17946
831.219	17977
831.357	18060
831.496	18015
831.635	17783
831.774	17847
831.913	17798
832.051	17684
832.19	17726
832.329	17813
832.467	17646
832.606	17657
832.744	17615
832.883	17653
833.022	17619
833.16	17638
833.299	17699
833.437	17649
833.576	17752
833.714	17714
833.852	17676
833.991	17775
834.129	17760
834.267	17729
834.406	17687
834.544	17722
834.682	17684
834.821	17695
834.959	17745
835.097	17634
835.235	17764
835.373	17695
835.511	17707
835.65	17745
835.788	17634
835.926	17474
836.064	17368
836.202	17353
836.34	17512
836.478	17695
836.615	17539
836.753	17554
836.891	17676
837.029	17589
837.167	17493
837.305	17376
837.443	17467
837.58	17429
837.718	17512
837.856	17364
837.993	17383
838.131	17452
838.269	17254
838.406	17395
838.544	17204
838.681	17147
838.819	17056
838.956	16900
839.094	16805
839.231	16949
839.369	16961
839.506	17322
839.643	17174
839.781	16946
839.918	16786
840.055	17003
840.193	16862
840.33	16881
840.467	16892
840.604	16896
840.742	17189
840.879	16812
841.016	16721
841.153	16889
841.29	16946
841.427	16877
841.564	16930
841.701	16957
841.838	16858
841.975	16771
842.112	16828
842.249	16740
842.385	16675
842.522	16885
842.659	16744
842.796	16660
842.933	16698
843.069	16698
843.206	16569
843.343	16736
843.479	16656
843.616	16771
843.752	16375
843.889	16565
844.025	16683
844.162	16485
844.298	16675
844.435	16523
844.571	16493
844.708	16493
844.844	16691
844.98	16664
845.117	16710
845.253	16672
845.389	16523
845.525	16782
845.661	17090
845.798	17136
845.934	17646
846.07	17722
846.206	17722
846.342	17562
846.478	17143
846.614	16664
846.75	16306
846.886	16257
847.022	16238
847.158	16188
847.294	16044
847.429	16013
847.565	16044
847.701	16310
847.837	15854
847.972	15724
848.108	15880
848.244	15915
848.379	15690
848.515	15530
848.65	15523
848.786	15584
848.921	15595
849.057	15732
849.192	15778
849.328	15648
849.463	15648
849.598	15549
849.734	15568
849.869	15424
850.004	15397
850.14	15428
850.275	15351
850.41	15241
850.545	15294
850.68	15348
850.815	15428
850.95	15370
851.085	15523
851.22	15568
851.355	15405
851.49	15348
851.625	15393
851.76	15287
851.895	15264
852.03	15268
852.165	15374
852.299	15485
852.434	15412
852.569	15332
852.703	15450
852.838	15428
852.973	15530
853.107	15580
853.242	15386
853.376	15249
853.511	15180
853.645	15218
853.78	15332
853.914	15325
854.048	15207
854.183	15176
854.317	15218
854.451	15469
854.585	15272
854.72	15214
854.854	15272
854.988	15173
855.122	15226
855.256	15039
855.39	15135
855.524	15298
855.658	15268
855.792	15355
855.926	15329
856.06	15283
856.194	15454
856.327	15097
856.461	15176
856.595	15199
856.729	15180
856.862	15302
856.996	15348
857.13	15340
857.263	15416
857.397	15405
857.53	15252
857.664	15188
857.797	15325
857.931	15321
858.064	15249
858.197	15241
858.331	15154
858.464	15260
858.597	15097
858.731	15184
858.864	15203
858.997	15127
859.13	15298
859.263	15222
859.396	15313
859.529	15188
859.662	15226
859.795	15211
859.928	15233
860.061	15275
860.194	15363
860.327	15306
860.46	15230
860.592	15348
860.725	15412
860.858	15329
860.99	15214
861.123	15211
861.256	15157
861.388	15302
861.521	15945
861.653	15138
861.786	15017
861.918	15032
862.05	15180
862.183	15203
862.315	15176
862.447	15252
862.58	15230
862.712	14963
862.844	14910
862.976	15112
863.108	15070
863.24	15359
863.372	14899
863.504	14960
863.636	14975
863.768	14982
863.9	14921
864.032	14960
864.164	14918
864.296	15005
864.428	15108
864.559	15135
864.691	15062
864.823	15077
864.954	15009
865.086	15032
865.217	14902
865.349	14868
865.48	14960
865.612	14956
865.743	15142
865.875	14944
866.006	14994
866.137	14982
866.269	14925
866.4	14952
866.531	14998
866.662	14929
866.793	14933
866.924	14902
867.055	14929
867.186	14891
867.317	14944
867.448	14792
867.579	14845
867.71	14895
867.841	14902
867.972	14956
868.103	15055
868.233	14963
868.364	14918
868.495	15047
868.625	15142
868.756	15222
868.886	15104
869.017	15100
869.147	15294
869.278	15272
869.408	15211
869.539	15214
869.669	15302
869.799	15249
869.929	15382
870.06	15374
870.19	15454
870.32	15469
870.45	15492
870.58	15622
870.71	15675
870.84	15667
870.97	15443
871.1	15614
871.23	15751
871.36	15732
871.489	15755
871.619	15732
871.749	15789
871.879	15846
872.008	15888
872.138	15842
872.267	15766
872.397	15610
872.526	15618
872.656	15618
872.785	15663
872.915	15831
873.044	15831
873.173	15793
873.303	15876
873.432	15892
873.561	15846
873.69	15869
873.819	15804
873.948	16013
874.077	15831
874.206	15850
874.335	15941
874.464	16105
874.593	16112
874.722	16090
874.851	16238
874.979	16268
875.108	16223
875.237	16128
875.365	16040
875.494	16173
875.623	16211
875.751	16090
875.88	16196
876.008	16242
876.136	16375
876.265	16577
876.393	16698
876.521	16679
876.65	16675
876.778	16538
876.906	16512
877.034	16656
877.162	16630
877.29	16500
877.418	16611
877.546	16656
877.674	16630
877.802	16622
877.93	16656
878.058	16596
878.185	16706
878.313	16611
878.441	16630
878.568	16527
878.696	16767
878.824	16778
878.951	16934
879.079	17048
879.206	17227
879.333	17292
879.461	17261
879.588	17356
879.715	17474
879.842	17547
879.97	17208
880.097	16915
880.224	16790
880.351	16778
880.478	16843
880.605	16615
880.732	16664
880.859	16824
880.986	16687
881.112	16641
881.239	16550
881.366	16371
881.493	16287
881.619	16154
881.746	16226
881.872	16249
881.999	16268
882.125	16162
882.252	16382
882.378	16295
882.505	16447
882.631	16150
882.757	16093
882.883	16200
883.01	16090
883.136	15972
883.262	15873
883.388	15930
883.514	16124
883.64	16169
883.766	15907
883.892	15816
884.018	15945
884.143	16116
884.269	16131
884.395	15922
884.52	15679
884.646	15736
884.772	15732
884.897	15717
885.023	15701
885.148	15903
885.274	15876
885.399	15781
885.524	15774
885.65	15682
885.775	15762
885.9	15717
886.025	15895
886.15	15720
886.275	15732
886.4	15595
886.525	15633
886.65	15686
886.775	15709
886.9	15835
887.025	15850
887.149	15724
887.274	15526
887.399	15367
887.523	15431
887.648	15439
887.773	15389
887.897	15504
888.021	15500
888.146	15416
888.27	15542
888.395	15576
888.519	15534
888.643	15469
888.767	15530
888.891	15428
889.015	15302
889.139	15298
889.263	15317
889.387	15370
889.511	15477
889.635	15496
889.759	15256
889.883	15294
890.006	15222
890.13	15485
890.254	15157
890.377	15252
890.501	15055
890.624	14967
890.748	15104
890.871	14979
890.995	14944
891.118	14933
891.241	14990
891.364	15017
891.488	15135
891.611	14975
891.734	14902
891.857	14948
891.98	14963
892.103	15066
892.226	14982
892.349	14891
892.471	14765
892.594	14941
892.717	14990
892.839	15013
892.962	15009
893.085	14899
893.207	14948
893.33	14682
893.452	14887
893.575	15058
893.697	14902
893.819	15093
893.941	15169
894.064	15131
894.186	14838
894.308	14914
894.43	15135
894.552	15032
894.674	15119
894.796	14853
894.918	14853
895.04	14880
895.161	15074
895.283	14982
895.405	14883
895.526	14906
895.648	14937
895.769	15085
895.891	15055
896.012	15154
896.134	15089
896.255	15028
896.376	15017
896.498	15058
896.619	15112
896.74	15047
896.861	15176
896.982	15393
897.103	15576
897.224	15397
897.345	15348
897.466	15260
897.587	15291
897.708	15481
897.828	15401
897.949	15233
898.07	15169
898.19	15393
898.311	15462
898.431	15325
898.552	15329
898.672	15488
898.792	15386
898.913	15488
899.033	15344
899.153	15249
899.273	15154
899.393	15279
899.513	15226
899.633	15245
899.753	15275
899.873	15199
899.993	15325
900.113	15233
900.232	15287
900.352	15245
900.472	15146
900.591	15127
900.711	15112
900.83	15047
900.95	15203
901.069	15348
901.189	14944
901.308	14872
901.427	14720
901.546	14705
901.665	14838
901.784	14842
901.904	14602
902.023	14526
902.141	14301
902.26	14434
902.379	14503
902.498	14309
902.617	14313
902.735	14385
902.854	14317
902.973	14225
903.091	13967
903.21	13989
903.328	14138
903.446	14065
903.565	13852
903.683	13894
903.801	13795
903.919	13833
904.038	13894
904.156	13791
904.274	13738
904.392	13632
904.51	13693
904.627	13723
904.745	13719
904.863	13765
904.981	13533
905.098	13415
905.216	13362
905.334	13350
905.451	13316
905.569	13282
905.686	13403
905.803	13289
905.921	13141
906.038	13270
906.155	13213
906.272	13046
906.389	13061
906.506	12935
906.623	12958
906.74	12890
906.857	12779
906.974	12871
907.091	13072
907.208	13031
907.324	12928
907.441	12802
907.557	12749
907.674	12711
907.79	12669
907.907	12673
908.023	12730
908.139	12658
908.256	12608
908.372	12513
908.488	12608
908.604	12521
908.72	12456
908.836	12441
908.952	12403
909.068	12445
909.184	12517
909.3	12380
909.415	12441
909.531	12403
909.647	12186
909.762	12186
909.878	12140
909.993	12133
910.108	12163
910.224	12121
910.339	12228
910.454	12072
910.57	12057
910.685	11939
910.8	12235
910.915	12205
911.03	12060
911.145	11889
911.259	11828
911.374	11866
911.489	11729
911.604	11710
911.718	11596
911.833	11657
911.947	11512
912.062	11490
912.176	11570
912.291	11592
912.405	11615
912.519	11756
912.633	11779
912.748	11726
912.862	11535
912.976	11509
913.09	11341
913.204	11414
913.318	11459
913.431	11596
913.545	11592
913.659	11665
913.772	11547
913.886	11372
914	11250
914.113	11433
914.226	11452
914.34	11471
914.453	11250
914.566	11376
914.68	11299
914.793	11299
914.906	11128
915.019	11003
915.132	11060
915.245	11094
915.358	11121
915.47	11079
915.583	11109
915.696	11113
915.809	11113
915.921	11292
916.034	11075
916.146	11022
916.259	11060
916.371	11136
916.483	11071
916.595	11006
916.708	11071
916.82	11025
916.932	10946
917.044	10984
917.156	10930
917.268	10812
917.38	10892
917.491	10873
917.603	10858
917.715	10957
917.826	11060
917.938	10835
918.049	10816
918.161	10919
918.272	10953
918.384	10999
918.495	10904
918.606	10687
918.717	10668
918.828	10835
918.939	10729
919.05	10687
919.161	10763
919.272	10611
919.383	10603
919.494	10801
919.604	10908
919.715	10771
919.826	10679
919.936	10687
920.047	10831
920.157	10752
920.267	10896
920.378	10805
920.488	10774
920.598	11006
920.708	11117
920.818	10934
920.928	10968
921.038	11052
921.148	11086
921.258	10835
921.368	10717
921.477	10649
921.587	10588
921.697	10519
921.806	10622
921.916	10470
922.025	10299
922.134	10284
922.244	10162
922.353	10386
922.462	10242
922.571	10166
922.68	9987
922.789	10017
922.898	9960
923.007	9911
923.116	10010
923.224	9994
923.333	9907
923.442	9873
923.55	9861
923.659	9876
923.767	9915
923.876	9869
923.984	9915
924.092	9785
924.201	9831
924.309	9838
924.417	9793
924.525	9781
924.633	9838
924.741	10786
924.849	9648
924.956	9755
925.064	9584
925.172	9519
925.279	9553
925.387	9705
925.494	9644
925.602	9717
925.709	9698
925.816	9568
925.924	9622
926.031	9682
926.138	9641
926.245	9587
926.352	9511
926.459	9720
926.566	9625
926.673	9553
926.779	9420
926.886	9408
926.993	9370
927.099	9253
927.206	9313
927.312	9268
927.419	9317
927.525	9283
927.631	9351
927.737	9165
927.843	9180
927.95	9077
928.056	9203
928.162	9150
928.267	9302
928.373	9743
928.479	9340
928.585	8948
928.69	9176
928.796	9123
928.901	9135
929.007	8975
929.112	9116
929.218	9062
929.323	9009
929.428	9036
929.533	9161
929.638	8952
929.743	8986
929.848	9051
929.953	9043
930.058	8891
930.163	8705
930.267	8872
930.372	8845
930.477	8735
930.581	9024
930.685	8853
930.79	8712
930.894	8708
930.998	8689
931.103	8834
931.207	8507
931.311	8476
931.415	8347
931.519	8145
931.623	8191
