Data from test_V78500241_1204.txt Node
Date: Fri Mar 25 14:42:05 CST 2022
User: usil
Spectrometer: V785-0024
Trigger mode: 0
Integration Time (sec): 4.000000E-1
Scans to average: 1
Nonlinearity correction enabled: false
Boxcar width: 0
Storing dark spectrum: false
XAxis mode: Wavelengths
Number of Pixels in Spectrum: 1024
>>>>>Begin Spectral Data<<<<<
801.071	22440
801.214	22424
801.356	21998
801.499	21949
801.641	21865
801.783	21846
801.926	21797
802.068	21713
802.211	21675
802.353	21553
802.496	21275
802.638	21348
802.78	21214
802.923	21154
803.065	21237
803.208	21096
803.35	21161
803.492	21195
803.635	21336
803.777	21036
803.919	21279
804.061	21542
804.204	21252
804.346	21081
804.488	21100
804.63	21116
804.773	21028
804.915	21138
805.057	21245
805.199	21184
805.341	21150
805.483	21252
805.626	21180
805.768	20948
805.91	21032
806.052	21005
806.194	21001
806.336	21108
806.478	21047
806.62	21051
806.762	21154
806.904	21310
807.046	21519
807.188	21393
807.33	21291
807.472	21629
807.614	21348
807.756	21306
807.898	21161
808.04	21165
808.182	21275
808.324	21211
808.465	21313
808.607	21431
808.749	21530
808.891	21679
809.033	21838
809.174	21701
809.316	21557
809.458	21511
809.6	21466
809.741	21542
809.883	21580
810.025	21682
810.166	21606
810.308	21690
810.45	21504
810.591	21534
810.733	21359
810.875	21397
811.016	21131
811.158	21096
811.299	21279
811.441	21317
811.582	21325
811.724	21165
811.865	21245
812.007	21192
812.148	21222
812.29	21230
812.431	21454
812.573	21492
812.714	21660
812.855	21614
812.997	21808
813.138	21865
813.279	21823
813.421	21736
813.562	21690
813.703	21511
813.845	21447
813.986	21085
814.127	20929
814.268	20842
814.41	20853
814.551	20701
814.692	20823
814.833	20701
814.974	20796
815.115	20830
815.256	20560
815.397	20632
815.539	20621
815.68	20434
815.821	20450
815.962	20590
816.103	20499
816.244	20366
816.385	20240
816.526	20244
816.666	20149
816.807	19997
816.948	19967
817.089	20153
817.23	20001
817.371	19986
817.512	19963
817.653	19898
817.793	19986
817.934	20016
818.075	19940
818.216	19887
818.356	19799
818.497	19757
818.638	19693
818.778	19704
818.919	19594
819.06	19704
819.2	19761
819.341	19833
819.481	19849
819.622	19986
819.762	20043
819.903	20073
820.043	19982
820.184	19974
820.324	19833
820.465	20058
820.605	19947
820.746	19871
820.886	19696
821.026	19894
821.167	19811
821.307	19845
821.447	19947
821.588	19769
821.728	19670
821.868	19510
822.008	19247
822.149	19335
822.289	19236
822.429	19091
822.569	19031
822.709	18935
822.849	18722
822.99	18867
823.13	18905
823.27	18722
823.41	18768
823.55	18616
823.69	18608
823.83	18658
823.97	18555
824.11	18403
824.25	18353
824.389	18486
824.529	18559
824.669	18433
824.809	18525
824.949	18563
825.089	18475
825.228	18498
825.368	18380
825.508	18289
825.648	18174
825.787	18270
825.927	18300
826.067	18083
826.206	18095
826.346	18171
826.485	18220
826.625	18201
826.765	18372
826.904	18289
827.044	18034
827.183	17904
827.323	17866
827.462	17961
827.601	17904
827.741	17969
827.88	17870
828.02	17817
828.159	18003
828.298	17916
828.437	18034
828.577	17767
828.716	18030
828.855	17771
828.994	17665
829.134	17722
829.273	17726
829.412	17680
829.551	17661
829.69	17604
829.829	17649
829.968	17752
830.107	17695
830.246	17722
830.385	17634
830.524	17539
830.663	17535
830.802	17383
830.941	17246
831.08	17288
831.219	17353
831.357	17425
831.496	17474
831.635	17265
831.774	17334
831.913	17212
832.051	17071
832.19	16908
832.329	17075
832.467	17003
832.606	16976
832.744	16934
832.883	17006
833.022	16930
833.16	17018
833.299	16999
833.437	16908
833.576	17029
833.714	16965
833.852	17178
833.991	17094
834.129	17162
834.267	17090
834.406	16904
834.544	17086
834.682	17094
834.821	17159
834.959	17178
835.097	17060
835.235	17067
835.373	17037
835.511	17155
835.65	16892
835.788	17045
835.926	16782
836.064	16740
836.202	16790
836.34	16885
836.478	17041
836.615	16885
836.753	16995
836.891	16980
837.029	16987
837.167	16968
837.305	16869
837.443	16839
837.58	16767
837.718	16877
837.856	16904
837.993	16790
838.131	16809
838.269	16683
838.406	16717
838.544	16656
838.681	16634
838.819	16531
838.956	16405
839.094	16306
839.231	16500
839.369	16519
839.506	16767
839.643	16565
839.781	16405
839.918	16284
840.055	16375
840.193	16424
840.33	16341
840.467	16348
840.604	16337
840.742	16588
840.879	16166
841.016	16310
841.153	16226
841.29	16394
841.427	16394
841.564	16341
841.701	16344
841.838	16341
841.975	16291
842.112	16265
842.249	16150
842.385	16002
842.522	16314
842.659	16196
842.796	16055
842.933	16048
843.069	16143
843.206	16101
843.343	16226
843.479	16105
843.616	16036
843.752	15899
843.889	15941
844.025	16029
844.162	15880
844.298	16032
844.435	15907
844.571	15968
844.708	15899
844.844	16048
844.98	16101
845.117	15994
845.253	15899
845.389	15854
845.525	15850
845.661	15888
845.798	15755
845.934	15857
846.07	15797
846.206	15880
846.342	15838
846.478	15770
846.614	15549
846.75	15469
846.886	15485
847.022	15603
847.158	15469
847.294	15549
847.429	15511
847.565	15504
847.701	15743
847.837	15237
847.972	15131
848.108	15321
848.244	15321
848.379	15180
848.515	15055
848.65	15001
848.786	15157
848.921	15123
849.057	15123
849.192	15268
849.328	15127
849.463	15097
849.598	15138
849.734	15039
849.869	14967
850.004	14944
850.14	14948
850.275	14914
850.41	14838
850.545	14830
850.68	14876
850.815	14899
850.95	14849
851.085	15112
851.22	14941
851.355	14952
851.49	14804
851.625	14891
851.76	14834
851.895	14758
852.03	14716
852.165	14830
852.299	14899
852.434	15005
852.569	14925
852.703	14849
852.838	14899
852.973	15024
853.107	14971
853.242	14773
853.376	14613
853.511	14674
853.645	14602
853.78	14834
853.914	14735
854.048	14708
854.183	14686
854.317	14682
854.451	14887
854.585	14678
854.72	14625
854.854	14769
854.988	14705
855.122	14765
855.256	14594
855.39	14686
855.524	14876
855.658	14845
855.792	14792
855.926	14648
856.06	14792
856.194	14834
856.327	14826
856.461	14712
856.595	14655
856.729	14606
856.862	14830
856.996	14785
857.13	14788
857.263	14765
857.397	14792
857.53	14727
857.664	14781
857.797	14807
857.931	14804
858.064	14857
858.197	14796
858.331	14667
858.464	14697
858.597	14545
858.731	14750
858.864	14765
858.997	14716
859.13	14727
859.263	14727
859.396	14765
859.529	14758
859.662	14621
859.795	14716
859.928	14689
860.061	14883
860.194	14815
860.327	14781
860.46	14743
860.592	14712
860.725	14872
860.858	14777
860.99	14819
861.123	14674
861.256	14629
861.388	14659
861.521	15420
861.653	14575
861.786	14625
861.918	14602
862.05	14617
862.183	14648
862.315	14739
862.447	14659
862.58	14621
862.712	14434
862.844	14412
862.976	14556
863.108	14530
863.24	14986
863.372	14366
863.504	14499
863.636	14545
863.768	14507
863.9	14503
864.032	14351
864.164	14423
864.296	14549
864.428	14655
864.559	14575
864.691	14503
864.823	14423
864.954	14613
865.086	14476
865.217	14438
865.349	14396
865.48	14427
865.612	14431
865.743	14583
865.875	14530
866.006	14476
866.137	14389
866.269	14396
866.4	14412
866.531	14415
866.662	14438
866.793	14476
866.924	14404
867.055	14465
867.186	14446
867.317	14415
867.448	14457
867.579	14381
867.71	14450
867.841	14450
867.972	14533
868.103	14499
868.233	14415
868.364	14473
868.495	14594
868.625	14762
868.756	14849
868.886	14648
869.017	14739
869.147	14842
869.278	14853
869.408	14693
869.539	14667
869.669	14674
869.799	14743
869.929	14845
870.06	14834
870.19	15058
870.32	15074
870.45	15043
870.58	15108
870.71	15237
870.84	15180
870.97	15066
871.1	15017
871.23	15226
871.36	15332
871.489	15146
871.619	15264
871.749	15306
871.879	15325
872.008	15340
872.138	15317
872.267	15237
872.397	15226
872.526	15173
872.656	15020
872.785	15112
872.915	15275
873.044	15466
873.173	15214
873.303	15424
873.432	15370
873.561	15466
873.69	15359
873.819	15344
873.948	15412
874.077	15397
874.206	15256
874.335	15294
874.464	15492
874.593	15629
874.722	15500
874.851	15762
874.979	15656
875.108	15781
875.237	15675
875.365	15610
875.494	15599
875.623	15850
875.751	15625
875.88	15679
876.008	15785
876.136	15895
876.265	16002
876.393	16169
876.521	16192
876.65	16071
876.778	16055
876.906	16010
877.034	15987
877.162	16040
877.29	16021
877.418	16147
877.546	16120
877.674	16051
877.802	16059
877.93	16097
878.058	16010
878.185	16025
878.313	16071
878.441	16124
878.568	15918
878.696	15979
878.824	16086
878.951	16169
879.079	16291
879.206	16428
879.333	16246
879.461	16173
879.588	16215
879.715	16291
879.842	16417
879.97	16249
880.097	15911
880.224	15857
880.351	16025
880.478	15994
880.605	15945
880.732	15907
880.859	16177
880.986	15922
881.112	15991
881.239	15895
881.366	15728
881.493	15679
881.619	15675
881.746	15572
881.872	15488
881.999	15511
882.125	15549
882.252	15625
882.378	15637
882.505	15816
882.631	15545
882.757	15462
882.883	15485
883.01	15348
883.136	15370
883.262	15279
883.388	15241
883.514	15389
883.64	15500
883.766	15355
883.892	15313
884.018	15287
884.143	15321
884.269	15504
884.395	15173
884.52	15116
884.646	15176
884.772	15081
884.897	14929
885.023	15104
885.148	15203
885.274	15241
885.399	15237
885.524	15108
885.65	15184
885.775	15142
885.9	15058
886.025	15214
886.15	15169
886.275	15123
886.4	14994
886.525	15058
886.65	14948
886.775	15017
886.9	15218
887.025	15329
887.149	15127
887.274	14925
887.399	14899
887.523	14868
887.648	14880
887.773	14838
887.897	14937
888.021	14975
888.146	14880
888.27	14979
888.395	15043
888.519	14960
888.643	14979
888.767	14963
888.891	14883
889.015	14800
889.139	14872
889.263	14724
889.387	14941
889.511	14933
889.635	14796
889.759	14792
889.883	14788
890.006	14845
890.13	14895
890.254	14746
890.377	14796
890.501	14583
890.624	14461
890.748	14560
890.871	14598
890.995	14412
891.118	14328
891.241	14499
891.364	14575
891.488	14598
891.611	14495
891.734	14511
891.857	14492
891.98	14492
892.103	14564
892.226	14465
892.349	14419
892.471	14393
892.594	14465
892.717	14518
892.839	14522
892.962	14431
893.085	14499
893.207	14431
893.33	14408
893.452	14419
893.575	14514
893.697	14465
893.819	14651
893.941	14739
894.064	14617
894.186	14408
894.308	14461
894.43	14499
894.552	14667
894.674	14571
894.796	14400
894.918	14533
895.04	14480
895.161	14552
895.283	14549
895.405	14530
895.526	14583
895.648	14556
895.769	14560
895.891	14537
896.012	14644
896.134	14667
896.255	14568
896.376	14590
896.498	14610
896.619	14724
896.74	14625
896.861	14724
896.982	14918
897.103	15058
897.224	14929
897.345	14815
897.466	14826
897.587	14910
897.708	14921
897.828	14899
897.949	14792
898.07	14773
898.19	14823
898.311	14994
898.431	14914
898.552	14979
898.672	15036
898.792	14963
898.913	15009
899.033	14910
899.153	14845
899.273	14754
899.393	14880
899.513	14769
899.633	14743
899.753	14777
899.873	14739
899.993	14830
900.113	14777
900.232	14864
900.352	14697
900.472	14621
900.591	14533
900.711	14663
900.83	14610
900.95	14746
901.069	14804
901.189	14621
901.308	14396
901.427	14404
901.546	14358
901.665	14351
901.784	14347
901.904	14252
902.023	14206
902.141	13898
902.26	13875
902.379	14024
902.498	13875
902.617	13830
902.735	13860
902.854	13909
902.973	13906
903.091	13544
903.21	13658
903.328	13639
903.446	13514
903.565	13411
903.683	13514
903.801	13335
903.919	13457
904.038	13335
904.156	13312
904.274	13339
904.392	13289
904.51	13316
904.627	13187
904.745	13350
904.863	13320
904.981	13088
905.098	12890
905.216	12985
905.334	13000
905.451	12932
905.569	12954
905.686	12939
905.803	12852
905.921	12814
906.038	12856
906.155	12791
906.272	12677
906.389	12726
906.506	12582
906.623	12589
906.74	12547
906.857	12456
906.974	12437
907.091	12585
907.208	12696
907.324	12604
907.441	12509
907.557	12281
907.674	12235
907.79	12254
907.907	12251
908.023	12281
908.139	12197
908.256	12186
908.372	12235
908.488	12224
908.604	12091
908.72	12091
908.836	12079
908.952	11977
909.068	12026
909.184	12243
909.3	12015
909.415	12022
909.531	12068
909.647	11866
909.762	11832
909.878	11718
909.993	11824
910.108	11805
910.224	11874
910.339	11813
910.454	11676
910.57	11726
910.685	11676
910.8	11897
910.915	11745
911.03	11608
911.145	11471
911.259	11471
911.374	11505
911.489	11387
911.604	11273
911.718	11322
911.833	11330
911.947	11086
912.062	11041
912.176	11269
912.291	11239
912.405	11334
912.519	11410
912.633	11417
912.748	11368
912.862	11231
912.976	11155
913.09	10976
913.204	11143
913.318	11098
913.431	11201
913.545	11143
913.659	11254
913.772	11147
913.886	11018
914	11022
914.113	11124
914.226	11170
914.34	11075
914.453	10896
914.566	11162
914.68	10968
914.793	10957
914.906	10744
915.019	10748
915.132	10710
915.245	10725
915.358	10714
915.47	10820
915.583	10771
915.696	10763
915.809	10915
915.921	10930
916.034	10748
916.146	10691
916.259	10637
916.371	10828
916.483	10805
916.595	10675
916.708	10592
916.82	10778
916.932	10618
917.044	10653
917.156	10660
917.268	10535
917.38	10611
917.491	10615
917.603	10592
917.715	10653
917.826	10641
917.938	10565
918.049	10546
918.161	10603
918.272	10721
918.384	10634
918.495	10584
918.606	10436
918.717	10360
918.828	10554
918.939	10409
919.05	10318
919.161	10428
919.272	10204
919.383	10299
919.494	10523
919.604	10717
919.715	10402
919.826	10409
919.936	10398
920.047	10535
920.157	10504
920.267	10637
920.378	10626
920.488	10386
920.598	10721
920.708	10809
920.818	10660
920.928	10668
921.038	10869
921.148	10824
921.258	10443
921.368	10443
921.477	10284
921.587	10280
921.697	10200
921.806	10356
921.916	10185
922.025	10029
922.134	10006
922.244	9945
922.353	10044
922.462	9930
922.571	9861
922.68	9755
922.789	9781
922.898	9762
923.007	9663
923.116	9781
923.224	9667
923.333	9656
923.442	9587
923.55	9557
923.659	9553
923.767	9622
923.876	9481
923.984	9663
924.092	9557
924.201	9584
924.309	9538
924.417	9557
924.525	9507
924.633	9492
924.741	10344
924.849	9389
924.956	9401
925.064	9279
925.172	9294
925.279	9294
925.387	9351
925.494	9401
925.602	9485
925.709	9370
925.816	9294
925.924	9382
926.031	9420
926.138	9420
926.245	9363
926.352	9283
926.459	9443
926.566	9473
926.673	9241
926.779	9218
926.886	9173
926.993	9104
927.099	9017
927.206	8986
927.312	9070
927.419	9036
927.525	9131
927.631	9135
927.737	9001
927.843	8918
927.95	8857
928.056	8929
928.162	8876
928.267	8998
928.373	9614
928.479	9100
928.585	8804
928.69	8994
928.796	8872
928.901	8830
929.007	8731
929.112	8864
929.218	8819
929.323	8845
929.428	8739
929.533	8830
929.638	8625
929.743	8762
929.848	8693
929.953	8693
930.058	8655
930.163	8537
930.267	8568
930.372	8727
930.477	8495
930.581	8705
930.685	8629
930.79	8495
930.894	8457
930.998	8377
931.103	8636
931.207	8237
931.311	8145
931.415	8142
931.519	7986
931.623	7940
