Data from test_V78500241_3457.txt Node
Date: Fri Mar 25 14:57:47 CST 2022
User: usil
Spectrometer: V785-0024
Trigger mode: 0
Integration Time (sec): 4.000000E-1
Scans to average: 1
Nonlinearity correction enabled: false
Boxcar width: 0
Storing dark spectrum: false
XAxis mode: Wavelengths
Number of Pixels in Spectrum: 1024
>>>>>Begin Spectral Data<<<<<
801.071	22021
801.214	21903
801.356	21606
801.499	21557
801.641	21348
801.783	21249
801.926	21408
802.068	21310
802.211	21203
802.353	21093
802.496	20853
802.638	20864
802.78	20674
802.923	20636
803.065	20571
803.208	20602
803.35	20575
803.492	20667
803.635	20712
803.777	20693
803.919	20743
804.061	20937
804.204	20678
804.346	20663
804.488	20537
804.63	20556
804.773	20598
804.915	20575
805.057	20682
805.199	20469
805.341	20583
805.483	20609
805.626	20629
805.768	20552
805.91	20511
806.052	20533
806.194	20309
806.336	20716
806.478	20484
806.62	20473
806.762	20560
806.904	20754
807.046	20891
807.188	20838
807.33	20864
807.472	21032
807.614	20788
807.756	20823
807.898	20602
808.04	20606
808.182	20632
808.324	20689
808.465	20629
808.607	20758
808.749	20830
808.891	21001
809.033	21036
809.174	20899
809.316	20765
809.458	20769
809.6	20868
809.741	20975
809.883	20815
810.025	20971
810.166	21085
810.308	21222
810.45	20895
810.591	20895
810.733	20705
810.875	20811
811.016	20530
811.158	20461
811.299	20659
811.441	20777
811.582	20716
811.724	20526
811.865	20667
812.007	20594
812.148	20598
812.29	20655
812.431	20712
812.573	21013
812.714	20998
812.855	21131
812.997	21203
813.138	21340
813.279	21195
813.421	21135
813.562	21062
813.703	20838
813.845	20777
813.986	20476
814.127	20313
814.268	20282
814.41	20271
814.551	20161
814.692	20305
814.833	20084
814.974	20092
815.115	20126
815.256	20054
815.397	20008
815.539	20092
815.68	19890
815.821	19811
815.962	19932
816.103	19883
816.244	19788
816.385	19769
816.526	19628
816.666	19480
816.807	19430
816.948	19430
817.089	19411
817.23	19453
817.371	19438
817.512	19346
817.653	19316
817.793	19156
817.934	19324
818.075	19343
818.216	19301
818.356	19179
818.497	19069
818.638	19038
818.778	18970
818.919	19008
819.06	19057
819.2	19072
819.341	19187
819.481	19297
819.622	19289
819.762	19537
819.903	19480
820.043	19453
820.184	19278
820.324	19308
820.465	19320
820.605	19388
820.746	19228
820.886	19072
821.026	19324
821.167	19263
821.307	19304
821.447	19217
821.588	19160
821.728	18958
821.868	18703
822.008	18639
822.149	18627
822.289	18692
822.429	18448
822.569	18285
822.709	18372
822.849	18338
822.99	18186
823.13	18140
823.27	18060
823.41	18068
823.55	17954
823.69	18019
823.83	18041
823.97	17851
824.11	17813
824.25	17756
824.389	17783
824.529	17813
824.669	17726
824.809	17866
824.949	17980
825.089	17874
825.228	17687
825.368	17642
825.508	17577
825.648	17592
825.787	17600
825.927	17615
826.067	17589
826.206	17440
826.346	17646
826.485	17665
826.625	17452
826.765	17665
826.904	17532
827.044	17379
827.183	17303
827.323	17136
827.462	17425
827.601	17193
827.741	17208
827.88	17208
828.02	17174
828.159	17239
828.298	17288
828.437	17284
828.577	17265
828.716	17444
828.855	17239
828.994	17037
829.134	16980
829.273	17121
829.412	17037
829.551	17010
829.69	17048
829.829	17128
829.968	17166
830.107	17136
830.246	17143
830.385	16987
830.524	16938
830.663	16862
830.802	16771
830.941	16740
831.08	16645
831.219	16793
831.357	16744
831.496	16889
831.635	16645
831.774	16649
831.913	16649
832.051	16519
832.19	16352
832.329	16512
832.467	16371
832.606	16234
832.744	16360
832.883	16333
833.022	16299
833.16	16303
833.299	16459
833.437	16440
833.576	16360
833.714	16459
833.852	16398
833.991	16493
834.129	16421
834.267	16523
834.406	16527
834.544	16462
834.682	16493
834.821	16424
834.959	16603
835.097	16443
835.235	16607
835.373	16455
835.511	16512
835.65	16303
835.788	16287
835.926	16150
836.064	16192
836.202	16112
836.34	16382
836.478	16440
836.615	16310
836.753	16447
836.891	16375
837.029	16246
837.167	16390
837.305	16219
837.443	16291
837.58	16147
837.718	16219
837.856	16211
837.993	16219
838.131	16120
838.269	16226
838.406	16131
838.544	16055
838.681	15880
838.819	15888
838.956	15789
839.094	15819
839.231	15869
839.369	15918
839.506	16280
839.643	15922
839.781	15770
839.918	15698
840.055	15842
840.193	15739
840.33	15797
840.467	15736
840.604	15797
840.742	15968
840.879	15622
841.016	15599
841.153	15679
841.29	15842
841.427	15846
841.564	15846
841.701	15838
841.838	15781
841.975	15656
842.112	15679
842.249	15553
842.385	15511
842.522	15751
842.659	15492
842.796	15488
842.933	15606
843.069	15473
843.206	15447
843.343	15656
843.479	15515
843.616	15705
843.752	15313
843.889	15329
844.025	15454
844.162	15363
844.298	15473
844.435	15283
844.571	15332
844.708	15340
844.844	15561
844.98	15496
845.117	15397
845.253	15313
845.389	15279
845.525	15226
845.661	15173
845.798	15081
845.934	15089
846.07	15173
846.206	15176
846.342	15192
846.478	15245
846.614	14971
846.75	14979
846.886	14902
847.022	15020
847.158	14921
847.294	15062
847.429	14979
847.565	14842
847.701	15161
847.837	14712
847.972	14602
848.108	14743
848.244	14781
848.379	14568
848.515	14533
848.65	14442
848.786	14518
848.921	14549
849.057	14552
849.192	14587
849.328	14488
849.463	14518
849.598	14495
849.734	14419
849.869	14427
850.004	14366
850.14	14324
850.275	14301
850.41	14202
850.545	14221
850.68	14263
850.815	14309
850.95	14259
851.085	14442
851.22	14434
851.355	14221
851.49	14275
851.625	14115
851.76	14256
851.895	14153
852.03	14126
852.165	14282
852.299	14271
852.434	14381
852.569	14324
852.703	14324
852.838	14320
852.973	14446
853.107	14457
853.242	14351
853.376	14153
853.511	14111
853.645	14172
853.78	14286
853.914	14123
854.048	14180
854.183	14069
854.317	14031
854.451	14275
854.585	14130
854.72	14123
854.854	14183
854.988	14054
855.122	14115
855.256	14130
855.39	14164
855.524	14218
855.658	14180
855.792	14176
855.926	14157
856.06	14271
856.194	14206
856.327	14187
856.461	14138
856.595	14130
856.729	14115
856.862	14313
856.996	14240
857.13	14161
857.263	14237
857.397	14210
857.53	14221
857.664	14176
857.797	14142
857.931	14294
858.064	14210
858.197	14218
858.331	14164
858.464	14107
858.597	14054
858.731	14176
858.864	14161
858.997	14172
859.13	14164
859.263	14145
859.396	14259
859.529	14134
859.662	14123
859.795	14100
859.928	14164
860.061	14271
860.194	14248
860.327	14126
860.46	14043
860.592	14286
860.725	14339
860.858	14336
860.99	14088
861.123	14149
861.256	14126
861.388	14210
861.521	14925
861.653	13959
861.786	14001
861.918	14130
862.05	14035
862.183	14161
862.315	14187
862.447	14187
862.58	14115
862.712	13925
862.844	13936
862.976	13989
863.108	13917
863.24	14336
863.372	13986
863.504	13860
863.636	13887
863.768	14001
863.9	13852
864.032	13906
864.164	13913
864.296	14005
864.428	14176
864.559	14084
864.691	14142
864.823	13902
864.954	13951
865.086	13932
865.217	13860
865.349	13845
865.48	13970
865.612	13928
865.743	14092
865.875	13955
866.006	13947
866.137	13936
866.269	14024
866.4	13845
866.531	13894
866.662	13890
866.793	13845
866.924	13951
867.055	13921
867.186	13932
867.317	13913
867.448	13849
867.579	13940
867.71	13807
867.841	13845
867.972	13959
868.103	14001
868.233	13986
868.364	13936
868.495	14096
868.625	14183
868.756	14237
868.886	14069
869.017	14172
869.147	14309
869.278	14305
869.408	14180
869.539	14187
869.669	14324
869.799	14339
869.929	14328
870.06	14221
870.19	14518
870.32	14522
870.45	14522
870.58	14602
870.71	14613
870.84	14686
870.97	14492
871.1	14613
871.23	14796
871.36	14804
871.489	14663
871.619	14823
871.749	14758
871.879	14708
872.008	14933
872.138	14830
872.267	14746
872.397	14655
872.526	14621
872.656	14583
872.785	14556
872.915	14842
873.044	14914
873.173	14826
873.303	14872
873.432	14811
873.561	14956
873.69	14849
873.819	14815
873.948	14956
874.077	14941
874.206	14708
874.335	14883
874.464	14986
874.593	15093
874.722	14990
874.851	15146
874.979	15142
875.108	15127
875.237	15062
875.365	15020
875.494	15135
875.623	15230
875.751	15077
875.88	15157
876.008	15237
876.136	15340
876.265	15526
876.393	15682
876.521	15701
876.65	15663
876.778	15587
876.906	15553
877.034	15549
877.162	15584
877.29	15424
877.418	15610
877.546	15652
877.674	15553
877.802	15625
877.93	15504
878.058	15557
878.185	15393
878.313	15538
878.441	15462
878.568	15408
878.696	15511
878.824	15595
878.951	15663
879.079	15682
879.206	15873
879.333	15743
879.461	15625
879.588	15633
879.715	15622
879.842	15892
879.97	15576
880.097	15439
880.224	15408
880.351	15443
880.478	15481
880.605	15420
880.732	15393
880.859	15637
880.986	15344
881.112	15393
881.239	15405
881.366	15142
881.493	15131
881.619	15157
881.746	15070
881.872	15043
881.999	15001
882.125	14982
882.252	15165
882.378	15100
882.505	15211
882.631	15017
882.757	14910
882.883	14937
883.01	14948
883.136	14883
883.262	14777
883.388	14750
883.514	14918
883.64	14986
883.766	14864
883.892	14682
884.018	14697
884.143	14876
884.269	14963
884.395	14602
884.52	14602
884.646	14526
884.772	14514
884.897	14473
885.023	14484
885.148	14716
885.274	14796
885.399	14682
885.524	14644
885.65	14621
885.775	14663
885.9	14583
886.025	14663
886.15	14701
886.275	14602
886.4	14457
886.525	14514
886.65	14499
886.775	14457
886.9	14674
887.025	14785
887.149	14610
887.274	14438
887.399	14415
887.523	14366
887.648	14389
887.773	14305
887.897	14549
888.021	14450
888.146	14290
888.27	14552
888.395	14556
888.519	14492
888.643	14537
888.767	14492
888.891	14320
889.015	14301
889.139	14313
889.263	14202
889.387	14423
889.511	14473
889.635	14431
889.759	14339
889.883	14244
890.006	14351
890.13	14419
890.254	14195
890.377	14210
890.501	14058
890.624	14248
890.748	14088
890.871	14058
890.995	13967
891.118	13978
891.241	14065
891.364	14035
891.488	14115
891.611	14005
891.734	13978
891.857	13978
891.98	14073
892.103	14084
892.226	14065
892.349	14058
892.471	13879
892.594	13913
892.717	14058
892.839	13932
892.962	14027
893.085	14096
893.207	13951
893.33	13852
893.452	13917
893.575	14058
893.697	14039
893.819	14214
893.941	14130
894.064	14084
894.186	13997
894.308	13921
894.43	14130
894.552	14195
894.674	14043
894.796	13974
894.918	14069
895.04	14035
895.161	14176
895.283	14206
895.405	14054
895.526	14031
895.648	14119
895.769	14214
895.891	14123
896.012	14123
896.134	14248
896.255	14191
896.376	14153
896.498	14164
896.619	14199
896.74	14100
896.861	14202
896.982	14587
897.103	14617
897.224	14332
897.345	14442
897.466	14415
897.587	14457
897.708	14571
897.828	14594
897.949	14442
898.07	14309
898.19	14423
898.311	14442
898.431	14514
898.552	14537
898.672	14583
898.792	14670
898.913	14560
899.033	14434
899.153	14377
899.273	14221
899.393	14381
899.513	14370
899.633	14362
899.753	14385
899.873	14339
899.993	14381
900.113	14377
900.232	14473
900.352	14320
900.472	14263
900.591	14229
900.711	14199
900.83	14168
900.95	14389
901.069	14419
901.189	14191
901.308	13906
901.427	13887
901.546	13822
901.665	13944
901.784	13909
901.904	13776
902.023	13712
902.141	13502
902.26	13495
902.379	13544
902.498	13430
902.617	13445
902.735	13548
902.854	13403
902.973	13419
903.091	13168
903.21	13206
903.328	13183
903.446	13129
903.565	13042
903.683	13004
903.801	12996
903.919	12989
904.038	13023
904.156	12833
904.274	12920
904.392	12897
904.51	12791
904.627	12817
904.745	12958
904.863	12916
904.981	12650
905.098	12490
905.216	12532
905.334	12631
905.451	12570
905.569	12566
905.686	12540
905.803	12563
905.921	12403
906.038	12483
906.155	12380
906.272	12216
906.389	12323
906.506	12205
906.623	12098
906.74	12197
906.857	12022
906.974	12083
907.091	12258
907.208	12319
907.324	12224
907.441	12110
907.557	11893
907.674	11866
907.79	11840
907.907	11973
908.023	11908
908.139	11874
908.256	11851
908.372	11843
908.488	11836
908.604	11672
908.72	11688
908.836	11737
908.952	11634
909.068	11688
909.184	11691
909.3	11703
909.415	11722
909.531	11691
909.647	11398
909.762	11467
909.878	11334
909.993	11474
910.108	11414
910.224	11318
910.339	11417
910.454	11360
910.57	11311
910.685	11296
910.8	11524
910.915	11478
911.03	11334
911.145	11071
911.259	11124
911.374	11166
911.489	11037
911.604	10965
911.718	10889
911.833	10892
911.947	10755
912.062	10683
912.176	10889
912.291	10908
912.405	10900
912.519	11033
912.633	11105
912.748	11022
912.862	10957
912.976	10782
913.09	10706
913.204	10744
913.318	10839
913.431	10869
913.545	10847
913.659	10919
913.772	10752
913.886	10679
914	10588
914.113	10767
914.226	10763
914.34	10854
914.453	10649
914.566	10702
914.68	10630
914.793	10622
914.906	10462
915.019	10405
915.132	10325
915.245	10451
915.358	10363
915.47	10413
915.583	10447
915.696	10588
915.809	10535
915.921	10599
916.034	10424
916.146	10360
916.259	10341
916.371	10466
916.483	10413
916.595	10303
916.708	10367
916.82	10341
916.932	10352
917.044	10367
917.156	10246
917.268	10238
917.38	10215
917.491	10166
917.603	10215
917.715	10371
917.826	10341
917.938	10204
918.049	10135
918.161	10211
918.272	10398
918.384	10386
918.495	10329
918.606	10090
918.717	10097
918.828	10131
918.939	10162
919.05	10029
919.161	10059
919.272	9975
919.383	9998
919.494	10139
919.604	10348
919.715	10162
919.826	10093
919.936	10044
920.047	10280
920.157	10173
920.267	10329
920.378	10192
920.488	10143
920.598	10360
920.708	10485
920.818	10325
920.928	10303
921.038	10485
921.148	10440
921.258	10291
921.368	10128
921.477	10010
921.587	10074
921.697	9804
921.806	10071
921.916	9934
922.025	9686
922.134	9709
922.244	9724
922.353	9793
922.462	9557
922.571	9530
922.68	9454
922.789	9348
922.898	9428
923.007	9378
923.116	9435
923.224	9310
923.333	9397
923.442	9351
923.55	9249
923.659	9256
923.767	9275
923.876	9222
923.984	9272
924.092	9173
924.201	9245
924.309	9287
924.417	9260
924.525	9226
924.633	9245
924.741	10139
924.849	9043
924.956	9260
925.064	9100
925.172	8963
925.279	9112
925.387	9020
925.494	9047
925.602	9184
925.709	9093
925.816	8960
925.924	8998
926.031	9142
926.138	8963
926.245	9116
926.352	9051
926.459	9146
926.566	9230
926.673	9009
926.779	8891
926.886	8891
926.993	8758
927.099	8800
927.206	8705
927.312	8750
927.419	8853
927.525	8838
927.631	8762
927.737	8686
927.843	8651
927.95	8552
928.056	8617
928.162	8712
928.267	8781
928.373	9374
928.479	8705
928.585	8545
928.69	8648
928.796	8731
928.901	8556
929.007	8404
929.112	8621
929.218	8583
929.323	8549
929.428	8431
929.533	8644
929.638	8408
929.743	8473
929.848	8495
929.953	8469
930.058	8320
930.163	8180
930.267	8290
930.372	8377
930.477	8271
930.581	8495
930.685	8358
930.79	8202
930.894	8294
930.998	8164
931.103	8366
931.207	8031
931.311	7928
931.415	7830
931.519	7708
931.623	7708
