Data from test_V78500241_3469.txt Node
Date: Fri Mar 25 14:57:52 CST 2022
User: usil
Spectrometer: V785-0024
Trigger mode: 0
Integration Time (sec): 4.000000E-1
Scans to average: 1
Nonlinearity correction enabled: false
Boxcar width: 0
Storing dark spectrum: false
XAxis mode: Wavelengths
Number of Pixels in Spectrum: 1024
>>>>>Begin Spectral Data<<<<<
801.071	21899
801.214	21816
801.356	21428
801.499	21511
801.641	21241
801.783	21355
801.926	21233
802.068	21161
802.211	21161
802.353	21199
802.496	20887
802.638	20792
802.78	20788
802.923	20731
803.065	20590
803.208	20461
803.35	20579
803.492	20693
803.635	20857
803.777	20636
803.919	20670
804.061	20857
804.204	20648
804.346	20575
804.488	20450
804.63	20507
804.773	20503
804.915	20560
805.057	20689
805.199	20590
805.341	20575
805.483	20667
805.626	20568
805.768	20541
805.91	20499
806.052	20549
806.194	20434
806.336	20750
806.478	20526
806.62	20530
806.762	20587
806.904	20716
807.046	20853
807.188	20781
807.33	20811
807.472	20849
807.614	20739
807.756	20712
807.898	20651
808.04	20579
808.182	20655
808.324	20606
808.465	20632
808.607	20697
808.749	20781
808.891	20933
809.033	20933
809.174	20864
809.316	20883
809.458	20788
809.6	20876
809.741	20906
809.883	20929
810.025	20979
810.166	21070
810.308	21070
810.45	20853
810.591	20830
810.733	20762
810.875	20754
811.016	20579
811.158	20480
811.299	20739
811.441	20754
811.582	20891
811.724	20670
811.865	20629
812.007	20674
812.148	20625
812.29	20613
812.431	20788
812.573	20979
812.714	20941
812.855	21207
812.997	21218
813.138	21264
813.279	21233
813.421	21180
813.562	21043
813.703	20948
813.845	20785
813.986	20526
814.127	20343
814.268	20259
814.41	20153
814.551	20096
814.692	20176
814.833	20054
814.974	20138
815.115	20259
815.256	20088
815.397	19978
815.539	20077
815.68	19955
815.821	19807
815.962	19955
816.103	19955
816.244	19620
816.385	19776
816.526	19696
816.666	19563
816.807	19320
816.948	19312
817.089	19403
817.23	19320
817.371	19400
817.512	19415
817.653	19274
817.793	19285
817.934	19346
818.075	19244
818.216	19308
818.356	19190
818.497	19247
818.638	19019
818.778	18856
818.919	19012
819.06	19053
819.2	19084
819.341	19194
819.481	19209
819.622	19297
819.762	19373
819.903	19468
820.043	19240
820.184	19327
820.324	19274
820.465	19403
820.605	19175
820.746	19308
820.886	19183
821.026	19373
821.167	19202
821.307	19293
821.447	19145
821.588	19110
821.728	19038
821.868	18901
822.008	18696
822.149	18642
822.289	18738
822.429	18441
822.569	18315
822.709	18429
822.849	18251
822.99	18262
823.13	18209
823.27	18140
823.41	18114
823.55	17954
823.69	17996
823.83	18041
823.97	18019
824.11	17828
824.25	17878
824.389	17756
824.529	17817
824.669	17733
824.809	17863
824.949	17901
825.089	17783
825.228	17863
825.368	17608
825.508	17596
825.648	17592
825.787	17729
825.927	17649
826.067	17532
826.206	17478
826.346	17623
826.485	17573
826.625	17554
826.765	17699
826.904	17619
827.044	17341
827.183	17265
827.323	17132
827.462	17292
827.601	17315
827.741	17273
827.88	17284
828.02	17064
828.159	17265
828.298	17174
828.437	17299
828.577	17170
828.716	17372
828.855	17318
828.994	17006
829.134	16934
829.273	17022
829.412	17033
829.551	16896
829.69	17060
829.829	17037
829.968	17086
830.107	17185
830.246	17075
830.385	16953
830.524	16946
830.663	16968
830.802	16778
830.941	16694
831.08	16630
831.219	16793
831.357	16778
831.496	16869
831.635	16592
831.774	16500
831.913	16428
832.051	16417
832.19	16478
832.329	16535
832.467	16325
832.606	16303
832.744	16310
832.883	16333
833.022	16333
833.16	16322
833.299	16371
833.437	16291
833.576	16516
833.714	16363
833.852	16402
833.991	16337
834.129	16489
834.267	16497
834.406	16402
834.544	16398
834.682	16470
834.821	16417
834.959	16584
835.097	16363
835.235	16527
835.373	16367
835.511	16394
835.65	16371
835.788	16303
835.926	16188
836.064	16112
836.202	16200
836.34	16272
836.478	16489
836.615	16284
836.753	16276
836.891	16424
837.029	16367
837.167	16280
837.305	16303
837.443	16303
837.58	16067
837.718	16219
837.856	16242
837.993	16143
838.131	16226
838.269	16162
838.406	16135
838.544	16135
838.681	15930
838.819	15987
838.956	15724
839.094	15759
839.231	15766
839.369	15884
839.506	16135
839.643	15972
839.781	15785
839.918	15682
840.055	15827
840.193	15865
840.33	15751
840.467	15713
840.604	15709
840.742	16006
840.879	15732
841.016	15675
841.153	15591
841.29	15808
841.427	15732
841.564	15808
841.701	15755
841.838	15800
841.975	15743
842.112	15679
842.249	15561
842.385	15485
842.522	15739
842.659	15504
842.796	15469
842.933	15485
843.069	15405
843.206	15443
843.343	15625
843.479	15507
843.616	15584
843.752	15310
843.889	15351
844.025	15454
844.162	15268
844.298	15485
844.435	15287
844.571	15298
844.708	15397
844.844	15420
844.98	15405
845.117	15405
845.253	15313
845.389	15150
845.525	15226
845.661	15146
845.798	15131
845.934	15097
846.07	15043
846.206	15203
846.342	15272
846.478	15165
846.614	14899
846.75	14838
846.886	14792
847.022	15043
847.158	14925
847.294	14925
847.429	14899
847.565	14861
847.701	15142
847.837	14625
847.972	14655
848.108	14705
848.244	14667
848.379	14488
848.515	14503
848.65	14423
848.786	14461
848.921	14465
849.057	14606
849.192	14594
849.328	14511
849.463	14526
849.598	14492
849.734	14381
849.869	14294
850.004	14195
850.14	14286
850.275	14244
850.41	14164
850.545	14145
850.68	14191
850.815	14305
850.95	14259
851.085	14511
851.22	14332
851.355	14320
851.49	14240
851.625	14229
851.76	14180
851.895	14180
852.03	14191
852.165	14244
852.299	14301
852.434	14282
852.569	14298
852.703	14320
852.838	14256
852.973	14377
853.107	14393
853.242	14267
853.376	14103
853.511	14035
853.645	14031
853.78	14290
853.914	14100
854.048	14084
854.183	14119
854.317	14119
854.451	14324
854.585	14145
854.72	14164
854.854	14221
854.988	14073
855.122	14062
855.256	13978
855.39	14046
855.524	14164
855.658	14206
855.792	14092
855.926	14164
856.06	14084
856.194	14259
856.327	14024
856.461	14111
856.595	14142
856.729	14111
856.862	14263
856.996	14164
857.13	14218
857.263	14328
857.397	14172
857.53	14115
857.664	14218
857.797	14168
857.931	14313
858.064	14161
858.197	14286
858.331	14130
858.464	14088
858.597	14065
858.731	14142
858.864	14069
858.997	14081
859.13	14065
859.263	14157
859.396	14183
859.529	14130
859.662	14115
859.795	14054
859.928	14130
860.061	14351
860.194	14282
860.327	14161
860.46	14005
860.592	14225
860.725	14263
860.858	14252
860.99	14199
861.123	14008
861.256	14123
861.388	14187
861.521	14849
861.653	14016
861.786	13951
861.918	14012
862.05	14062
862.183	14123
862.315	14145
862.447	14149
862.58	14073
862.712	13993
862.844	13890
862.976	13959
863.108	13940
863.24	14370
863.372	13780
863.504	13883
863.636	14020
863.768	13906
863.9	13864
864.032	13795
864.164	13932
864.296	13993
864.428	14031
864.559	14119
864.691	14020
864.823	13944
864.954	13909
865.086	14043
865.217	13833
865.349	13765
865.48	13890
865.612	13967
865.743	14111
865.875	13997
866.006	13951
866.137	13955
866.269	13894
866.4	13913
866.531	13906
866.662	13830
866.793	13818
866.924	13868
867.055	13955
867.186	13871
867.317	13871
867.448	13803
867.579	13849
867.71	13811
867.841	13803
867.972	13906
868.103	13879
868.233	13913
868.364	13833
868.495	13970
868.625	14050
868.756	14214
868.886	14073
869.017	14161
869.147	14202
869.278	14290
869.408	14115
869.539	14088
869.669	14271
869.799	14206
869.929	14294
870.06	14210
870.19	14457
870.32	14446
870.45	14469
870.58	14590
870.71	14674
870.84	14606
870.97	14640
871.1	14465
871.23	14800
871.36	14758
871.489	14648
871.619	14724
871.749	14777
871.879	14769
872.008	14918
872.138	14743
872.267	14727
872.397	14651
872.526	14526
872.656	14549
872.785	14632
872.915	14754
873.044	14804
873.173	14663
873.303	14754
873.432	14857
873.561	14861
873.69	14792
873.819	14800
873.948	14918
874.077	14815
874.206	14804
874.335	14842
874.464	14902
874.593	15070
874.722	15036
874.851	15112
874.979	15161
875.108	15093
875.237	15127
875.365	14998
875.494	15116
875.623	15203
875.751	15119
875.88	15154
876.008	15230
876.136	15340
876.265	15641
876.393	15625
876.521	15606
876.65	15709
876.778	15515
876.906	15553
877.034	15481
877.162	15473
877.29	15428
877.418	15637
877.546	15507
877.674	15519
877.802	15496
877.93	15584
878.058	15492
878.185	15363
878.313	15515
878.441	15572
878.568	15355
878.696	15523
878.824	15542
878.951	15644
879.079	15736
879.206	15812
879.333	15694
879.461	15610
879.588	15648
879.715	15736
879.842	15819
879.97	15671
880.097	15393
880.224	15405
880.351	15405
880.478	15408
880.605	15351
880.732	15374
880.859	15637
880.986	15462
881.112	15454
881.239	15397
881.366	15195
881.493	15123
881.619	15085
881.746	15058
881.872	15055
881.999	14986
882.125	15024
882.252	15032
882.378	15119
882.505	15173
882.631	14944
882.757	14880
882.883	14857
883.01	14872
883.136	14762
883.262	14746
883.388	14788
883.514	14834
883.64	14880
883.766	14819
883.892	14678
884.018	14743
884.143	14857
884.269	14914
884.395	14667
884.52	14632
884.646	14541
884.772	14480
884.897	14530
885.023	14606
885.148	14750
885.274	14785
885.399	14655
885.524	14556
885.65	14636
885.775	14640
885.9	14579
886.025	14629
886.15	14739
886.275	14526
886.4	14488
886.525	14522
886.65	14606
886.775	14522
886.9	14731
887.025	14750
887.149	14484
887.274	14469
887.399	14434
887.523	14286
887.648	14366
887.773	14305
887.897	14328
888.021	14503
888.146	14370
888.27	14492
888.395	14522
888.519	14450
888.643	14533
888.767	14473
888.891	14275
889.015	14290
889.139	14248
889.263	14259
889.387	14408
889.511	14484
889.635	14343
889.759	14183
889.883	14180
890.006	14256
890.13	14419
890.254	14183
890.377	14195
890.501	14058
890.624	14073
890.748	14180
890.871	14008
890.995	13940
891.118	13879
891.241	13887
891.364	13932
891.488	14123
891.611	13951
891.734	13967
891.857	14005
891.98	14005
892.103	14103
892.226	14043
892.349	13963
892.471	13849
892.594	13864
892.717	13936
892.839	13963
892.962	13967
893.085	14103
893.207	13925
893.33	13902
893.452	13875
893.575	14107
893.697	13890
893.819	14130
893.941	14206
894.064	14027
894.186	13963
894.308	13887
894.43	14096
894.552	14176
894.674	14130
894.796	13898
894.918	14043
895.04	14005
895.161	14187
895.283	14142
895.405	14005
895.526	14001
895.648	14119
895.769	14069
895.891	14164
896.012	14244
896.134	14092
896.255	14168
896.376	14180
896.498	14138
896.619	14233
896.74	14180
896.861	14164
896.982	14404
897.103	14575
897.224	14499
897.345	14358
897.466	14389
897.587	14427
897.708	14549
897.828	14442
897.949	14343
898.07	14206
898.19	14446
898.311	14632
898.431	14419
898.552	14549
898.672	14606
898.792	14560
898.913	14560
899.033	14320
899.153	14400
899.273	14256
899.393	14256
899.513	14313
899.633	14347
899.753	14370
899.873	14355
899.993	14404
900.113	14355
900.232	14415
900.352	14351
900.472	14168
900.591	14107
900.711	14282
900.83	14187
900.95	14313
901.069	14423
901.189	14153
901.308	13921
901.427	13894
901.546	13898
901.665	14035
901.784	13871
901.904	13693
902.023	13696
902.141	13495
902.26	13453
902.379	13548
902.498	13449
902.617	13411
902.735	13438
902.854	13460
902.973	13384
903.091	13183
903.21	13164
903.328	13133
903.446	13137
903.565	13034
903.683	13034
903.801	12966
903.919	13004
904.038	12924
904.156	12829
904.274	12977
904.392	12905
904.51	12798
904.627	12798
904.745	12958
904.863	12939
904.981	12745
905.098	12483
905.216	12532
905.334	12574
905.451	12544
905.569	12414
905.686	12570
905.803	12658
905.921	12353
906.038	12441
906.155	12407
906.272	12266
906.389	12300
906.506	12159
906.623	12167
906.74	12152
906.857	12057
906.974	12045
907.091	12194
907.208	12243
907.324	12125
907.441	12038
907.557	11908
907.674	11920
907.79	11809
907.907	11897
908.023	11885
908.139	11878
908.256	11813
908.372	11866
908.488	11775
908.604	11722
908.72	11634
908.836	11646
908.952	11581
909.068	11672
909.184	11775
909.3	11585
909.415	11733
909.531	11676
909.647	11444
909.762	11395
909.878	11341
909.993	11486
910.108	11391
910.224	11376
910.339	11349
910.454	11364
910.57	11349
910.685	11201
910.8	11532
910.915	11417
911.03	11334
911.145	11159
911.259	11159
911.374	11136
911.489	10976
911.604	11086
911.718	10866
911.833	10972
911.947	10790
912.062	10634
912.176	10953
912.291	10854
912.405	10858
912.519	11113
912.633	11113
912.748	10915
912.862	10850
912.976	10793
913.09	10634
913.204	10672
913.318	10771
913.431	10854
913.545	10919
913.659	10934
913.772	10740
913.886	10637
914	10660
914.113	10740
914.226	10801
914.34	10744
914.453	10546
914.566	10786
914.68	10637
914.793	10531
914.906	10409
915.019	10382
915.132	10284
915.245	10341
915.358	10367
915.47	10424
915.583	10409
915.696	10428
915.809	10523
915.921	10615
916.034	10356
916.146	10337
916.259	10227
916.371	10421
916.483	10466
916.595	10310
916.708	10390
916.82	10356
916.932	10257
917.044	10303
917.156	10268
917.268	10219
917.38	10139
917.491	10188
917.603	10204
917.715	10371
917.826	10325
917.938	10204
918.049	10067
918.161	10234
918.272	10409
918.384	10303
918.495	10200
918.606	10162
918.717	10051
918.828	10177
918.939	10150
919.05	10044
919.161	10059
919.272	9915
919.383	9918
919.494	10150
919.604	10329
919.715	10158
919.826	10044
919.936	10128
920.047	10147
920.157	10112
920.267	10341
920.378	10166
920.488	10192
920.598	10318
920.708	10440
920.818	10371
920.928	10238
921.038	10523
921.148	10474
921.258	10204
921.368	10154
921.477	9968
921.587	9926
921.697	9949
921.806	10017
921.916	9823
922.025	9747
922.134	9648
922.244	9663
922.353	9682
922.462	9584
922.571	9542
922.68	9428
922.789	9363
922.898	9355
923.007	9386
923.116	9431
923.224	9313
923.333	9439
923.442	9287
923.55	9249
923.659	9317
923.767	9321
923.876	9260
923.984	9321
924.092	9241
924.201	9233
924.309	9275
924.417	9291
924.525	9203
924.633	9195
924.741	10150
924.849	9043
924.956	9211
925.064	9055
925.172	8921
925.279	9047
925.387	9051
925.494	9009
925.602	9169
925.709	9089
925.816	9009
925.924	9081
926.031	9138
926.138	9051
926.245	9138
926.352	8979
926.459	9017
926.566	9127
926.673	9005
926.779	8925
926.886	8891
926.993	8804
927.099	8773
927.206	8724
927.312	8686
927.419	8807
927.525	8834
927.631	8766
927.737	8678
927.843	8667
927.95	8514
928.056	8590
928.162	8613
928.267	8731
928.373	9253
928.479	8727
928.585	8579
928.69	8610
928.796	8674
928.901	8545
929.007	8450
929.112	8644
929.218	8522
929.323	8423
929.428	8454
929.533	8640
929.638	8442
929.743	8438
929.848	8526
929.953	8511
930.058	8419
930.163	8244
930.267	8309
930.372	8332
930.477	8202
930.581	8450
930.685	8370
930.79	8237
930.894	8225
930.998	8210
931.103	8362
931.207	7917
931.311	7978
931.415	7921
931.519	7658
931.623	7693
