Data from test_V78500241_2565.txt Node
Date: Fri Mar 25 14:51:34 CST 2022
User: usil
Spectrometer: V785-0024
Trigger mode: 0
Integration Time (sec): 4.000000E-1
Scans to average: 1
Nonlinearity correction enabled: false
Boxcar width: 0
Storing dark spectrum: false
XAxis mode: Wavelengths
Number of Pixels in Spectrum: 1024
>>>>>Begin Spectral Data<<<<<
801.071	22040
801.214	21846
801.356	21656
801.499	21644
801.641	21374
801.783	21447
801.926	21477
802.068	21317
802.211	21310
802.353	21291
802.496	20998
802.638	21024
802.78	20906
802.923	20788
803.065	20648
803.208	20705
803.35	20834
803.492	20944
803.635	20918
803.777	20697
803.919	20792
804.061	21047
804.204	20895
804.346	20663
804.488	20674
804.63	20781
804.773	20659
804.915	20632
805.057	20739
805.199	20571
805.341	20701
805.483	20785
805.626	20785
805.768	20617
805.91	20651
806.052	20644
806.194	20579
806.336	20651
806.478	20613
806.62	20495
806.762	20629
806.904	20845
807.046	20967
807.188	20975
807.33	20986
807.472	21062
807.614	20910
807.756	20727
807.898	20819
808.04	20636
808.182	20674
808.324	20667
808.465	20758
808.607	20891
808.749	21024
808.891	21252
809.033	21116
809.174	21108
809.316	20941
809.458	20921
809.6	21009
809.741	21089
809.883	21074
810.025	21161
810.166	21100
810.308	21104
810.45	21146
810.591	21070
810.733	20883
810.875	20796
811.016	20762
811.158	20659
811.299	20849
811.441	20952
811.582	20849
811.724	20762
811.865	20765
812.007	20758
812.148	20785
812.29	20811
812.431	21028
812.573	21176
812.714	21184
812.855	21397
812.997	21378
813.138	21473
813.279	21447
813.421	21291
813.562	21214
813.703	21081
813.845	20918
813.986	20686
814.127	20454
814.268	20278
814.41	20396
814.551	20317
814.692	20450
814.833	20161
814.974	20237
815.115	20233
815.256	20001
815.397	20100
815.539	20138
815.68	20001
815.821	19970
815.962	20077
816.103	20073
816.244	19947
816.385	19822
816.526	19818
816.666	19666
816.807	19434
816.948	19677
817.089	19559
817.23	19457
817.371	19453
817.512	19407
817.653	19392
817.793	19422
817.934	19441
818.075	19445
818.216	19476
818.356	19483
818.497	19373
818.638	19019
818.778	19110
818.919	19114
819.06	19183
819.2	19213
819.341	19259
819.481	19335
819.622	19613
819.762	19677
819.903	19594
820.043	19438
820.184	19441
820.324	19400
820.465	19388
820.605	19343
820.746	19384
820.886	19194
821.026	19430
821.167	19346
821.307	19426
821.447	19369
821.588	19179
821.728	19133
821.868	19019
822.008	18741
822.149	18760
822.289	18886
822.429	18563
822.569	18456
822.709	18547
822.849	18308
822.99	18300
823.13	18247
823.27	18426
823.41	18171
823.55	18095
823.69	18201
823.83	18178
823.97	18060
824.11	17980
824.25	17942
824.389	17885
824.529	18003
824.669	17802
824.809	18072
824.949	17961
825.089	18060
825.228	17904
825.368	17748
825.508	17790
825.648	17703
825.787	17695
825.927	17714
826.067	17718
826.206	17627
826.346	17638
826.485	17657
826.625	17623
826.765	17710
826.904	17707
827.044	17505
827.183	17349
827.323	17364
827.462	17383
827.601	17429
827.741	17311
827.88	17368
828.02	17166
828.159	17383
828.298	17326
828.437	17471
828.577	17353
828.716	17554
828.855	17360
828.994	17170
829.134	17204
829.273	17121
829.412	17136
829.551	17041
829.69	17033
829.829	17113
829.968	17189
830.107	17197
830.246	17052
830.385	17086
830.524	17003
830.663	17056
830.802	16824
830.941	16873
831.08	16672
831.219	16930
831.357	16771
831.496	16942
831.635	16774
831.774	16641
831.913	16592
832.051	16485
832.19	16440
832.329	16580
832.467	16455
832.606	16382
832.744	16386
832.883	16478
833.022	16344
833.16	16466
833.299	16344
833.437	16558
833.576	16527
833.714	16497
833.852	16554
833.991	16558
834.129	16550
834.267	16512
834.406	16580
834.544	16527
834.682	16493
834.821	16493
834.959	16691
835.097	16466
835.235	16664
835.373	16481
835.511	16599
835.65	16405
835.788	16535
835.926	16265
836.064	16257
836.202	16268
836.34	16382
836.478	16516
836.615	16462
836.753	16474
836.891	16485
837.029	16440
837.167	16310
837.305	16360
837.443	16284
837.58	16261
837.718	16367
837.856	16230
837.993	16363
838.131	16246
838.269	16219
838.406	16276
838.544	16150
838.681	16021
838.819	15956
838.956	15804
839.094	15804
839.231	15956
839.369	16093
839.506	16276
839.643	16116
839.781	15846
839.918	15823
840.055	15793
840.193	15899
840.33	15873
840.467	15903
840.604	15880
840.742	16147
840.879	15690
841.016	15713
841.153	15743
841.29	15926
841.427	15800
841.564	15846
841.701	15949
841.838	15778
841.975	15732
842.112	15774
842.249	15599
842.385	15610
842.522	15789
842.659	15720
842.796	15523
842.933	15610
843.069	15542
843.206	15603
843.343	15686
843.479	15614
843.616	15694
843.752	15412
843.889	15477
844.025	15530
844.162	15435
844.298	15466
844.435	15397
844.571	15447
844.708	15477
844.844	15595
844.98	15743
845.117	15519
845.253	15279
845.389	15211
845.525	15272
845.661	15325
845.798	15157
845.934	15298
846.07	15241
846.206	15256
846.342	15355
846.478	15173
846.614	15051
846.75	14990
846.886	14941
847.022	15024
847.158	14880
847.294	14925
847.429	15116
847.565	14857
847.701	15317
847.837	14663
847.972	14769
848.108	14891
848.244	14724
848.379	14724
848.515	14568
848.65	14495
848.786	14644
848.921	14587
849.057	14663
849.192	14686
849.328	14530
849.463	14632
849.598	14579
849.734	14514
849.869	14530
850.004	14396
850.14	14423
850.275	14423
850.41	14320
850.545	14339
850.68	14252
850.815	14256
850.95	14347
851.085	14537
851.22	14423
851.355	14377
851.49	14336
851.625	14381
851.76	14374
851.895	14221
852.03	14271
852.165	14358
852.299	14446
852.434	14484
852.569	14442
852.703	14446
852.838	14412
852.973	14514
853.107	14568
853.242	14328
853.376	14244
853.511	14183
853.645	14225
853.78	14362
853.914	14332
854.048	14290
854.183	14240
854.317	14324
854.451	14507
854.585	14229
854.72	14153
854.854	14328
854.988	14225
855.122	14259
855.256	14073
855.39	14324
855.524	14332
855.658	14298
855.792	14294
855.926	14294
856.06	14317
856.194	14389
856.327	14317
856.461	14149
856.595	14157
856.729	14221
856.862	14370
856.996	14317
857.13	14309
857.263	14400
857.397	14351
857.53	14237
857.664	14355
857.797	14317
857.931	14408
858.064	14317
858.197	14381
858.331	14240
858.464	14336
858.597	14153
858.731	14305
858.864	14286
858.997	14221
859.13	14221
859.263	14218
859.396	14377
859.529	14164
859.662	14229
859.795	14237
859.928	14278
860.061	14396
860.194	14377
860.327	14157
860.46	14168
860.592	14419
860.725	14355
860.858	14278
860.99	14328
861.123	14161
861.256	14180
861.388	14271
861.521	14910
861.653	14240
861.786	14115
861.918	14142
862.05	14176
862.183	14206
862.315	14172
862.447	14271
862.58	14126
862.712	14046
862.844	14016
862.976	14157
863.108	14065
863.24	14400
863.372	14027
863.504	14005
863.636	14096
863.768	14100
863.9	14077
864.032	13974
864.164	14138
864.296	13993
864.428	14062
864.559	14157
864.691	14130
864.823	14058
864.954	14092
865.086	14050
865.217	14062
865.349	14008
865.48	14001
865.612	13989
865.743	14248
865.875	14001
866.006	14054
866.137	14046
866.269	14024
866.4	14024
866.531	13997
866.662	14005
866.793	13959
866.924	13970
867.055	14024
867.186	13963
867.317	14001
867.448	13898
867.579	13932
867.71	13947
867.841	13955
867.972	14039
868.103	14031
868.233	14005
868.364	14024
868.495	14172
868.625	14271
868.756	14313
868.886	14183
869.017	14301
869.147	14351
869.278	14423
869.408	14351
869.539	14336
869.669	14358
869.799	14381
869.929	14511
870.06	14294
870.19	14621
870.32	14594
870.45	14575
870.58	14636
870.71	14811
870.84	14819
870.97	14765
871.1	14651
871.23	14796
871.36	14796
871.489	14743
871.619	14914
871.749	14845
871.879	14864
872.008	14956
872.138	14944
872.267	14880
872.397	14659
872.526	14720
872.656	14598
872.785	14724
872.915	14921
873.044	14982
873.173	14914
873.303	14963
873.432	14944
873.561	14895
873.69	14826
873.819	14971
873.948	14990
874.077	14914
874.206	14910
874.335	14906
874.464	15089
874.593	15252
874.722	15123
874.851	15260
874.979	15252
875.108	15374
875.237	15283
875.365	15192
875.494	15192
875.623	15332
875.751	15237
875.88	15211
876.008	15454
876.136	15530
876.265	15652
876.393	15736
876.521	15774
876.65	15629
876.778	15743
876.906	15580
877.034	15595
877.162	15690
877.29	15622
877.418	15644
877.546	15629
877.674	15648
877.802	15694
877.93	15564
878.058	15584
878.185	15572
878.313	15519
878.441	15717
878.568	15488
878.696	15652
878.824	15709
878.951	15679
879.079	15648
879.206	15972
879.333	15884
879.461	15625
879.588	15717
879.715	15789
879.842	15861
879.97	15766
880.097	15469
880.224	15477
880.351	15523
880.478	15511
880.605	15439
880.732	15564
880.859	15766
880.986	15587
881.112	15561
881.239	15325
881.366	15233
881.493	15180
881.619	15226
881.746	15085
881.872	15169
881.999	15188
882.125	15184
882.252	15150
882.378	15180
882.505	15268
882.631	15089
882.757	14994
882.883	15097
883.01	15001
883.136	14929
883.262	14891
883.388	14986
883.514	14979
883.64	14963
883.766	14963
883.892	14804
884.018	14804
884.143	14941
884.269	15100
884.395	14765
884.52	14720
884.646	14743
884.772	14651
884.897	14663
885.023	14712
885.148	14697
885.274	14811
885.399	14788
885.524	14735
885.65	14655
885.775	14769
885.9	14655
886.025	14796
886.15	14773
886.275	14636
886.4	14579
886.525	14545
886.65	14518
886.775	14648
886.9	14815
887.025	14902
887.149	14670
887.274	14552
887.399	14412
887.523	14434
887.648	14362
887.773	14396
887.897	14568
888.021	14617
888.146	14454
888.27	14636
888.395	14674
888.519	14568
888.643	14606
888.767	14560
888.891	14412
889.015	14374
889.139	14476
889.263	14332
889.387	14438
889.511	14522
889.635	14492
889.759	14385
889.883	14271
890.006	14389
890.13	14541
890.254	14313
890.377	14320
890.501	14218
890.624	14275
890.748	14206
890.871	14096
890.995	14103
891.118	13970
891.241	14073
891.364	14115
891.488	14172
891.611	14126
891.734	14054
891.857	14134
891.98	14035
892.103	14149
892.226	14103
892.349	14088
892.471	13917
892.594	14005
892.717	14119
892.839	14069
892.962	14054
893.085	14202
893.207	14100
893.33	13951
893.452	14054
893.575	14123
893.697	14161
893.819	14172
893.941	14305
894.064	14176
894.186	14069
894.308	13936
894.43	14229
894.552	14271
894.674	14172
894.796	13974
894.918	14153
895.04	14058
895.161	14187
895.283	14202
895.405	14016
895.526	14142
895.648	14237
895.769	14221
895.891	14176
896.012	14248
896.134	14214
896.255	14290
896.376	14145
896.498	14278
896.619	14324
896.74	14263
896.861	14244
896.982	14552
897.103	14743
897.224	14511
897.345	14537
897.466	14461
897.587	14480
897.708	14571
897.828	14552
897.949	14533
898.07	14412
898.19	14450
898.311	14625
898.431	14507
898.552	14511
898.672	14621
898.792	14644
898.913	14686
899.033	14568
899.153	14484
899.273	14362
899.393	14427
899.513	14415
899.633	14450
899.753	14499
899.873	14377
899.993	14480
900.113	14419
900.232	14533
900.352	14298
900.472	14332
900.591	14267
900.711	14347
900.83	14187
900.95	14408
901.069	14389
901.189	14290
901.308	14100
901.427	13955
901.546	13986
901.665	14008
901.784	14050
901.904	13788
902.023	13814
902.141	13655
902.26	13575
902.379	13696
902.498	13597
902.617	13464
902.735	13613
902.854	13571
902.973	13468
903.091	13285
903.21	13293
903.328	13308
903.446	13225
903.565	13152
903.683	13190
903.801	13053
903.919	13076
904.038	13160
904.156	12935
904.274	13027
904.392	12909
904.51	12962
904.627	12947
904.745	12939
904.863	12947
904.981	12817
905.098	12585
905.216	12604
905.334	12627
905.451	12631
905.569	12544
905.686	12734
905.803	12692
905.921	12376
906.038	12494
906.155	12410
906.272	12361
906.389	12342
906.506	12228
906.623	12216
906.74	12273
906.857	12194
906.974	12140
907.091	12262
907.208	12372
907.324	12254
907.441	12182
907.557	11988
907.674	12076
907.79	11965
907.907	11923
908.023	12030
908.139	11973
908.256	12011
908.372	11920
908.488	11878
908.604	11764
908.72	11745
908.836	11714
908.952	11691
909.068	11695
909.184	11843
909.3	11737
909.415	11756
909.531	11786
909.647	11528
909.762	11493
909.878	11520
909.993	11558
910.108	11493
910.224	11444
910.339	11577
910.454	11376
910.57	11360
910.685	11296
910.8	11630
910.915	11482
911.03	11398
911.145	11265
911.259	11181
911.374	11174
911.489	11109
911.604	11109
911.718	10987
911.833	10938
911.947	10831
912.062	10816
912.176	10942
912.291	10957
912.405	10911
912.519	11166
912.633	11201
912.748	11079
912.862	10923
912.976	10831
913.09	10759
913.204	10771
913.318	10793
913.431	10896
913.545	10942
913.659	11048
913.772	10828
913.886	10717
914	10736
914.113	10839
914.226	10839
914.34	10782
914.453	10656
914.566	10725
914.68	10675
914.793	10679
914.906	10455
915.019	10531
915.132	10466
915.245	10516
915.358	10459
915.47	10523
915.583	10497
915.696	10573
915.809	10675
915.921	10580
916.034	10550
916.146	10310
916.259	10371
916.371	10508
916.483	10500
916.595	10344
916.708	10398
916.82	10455
916.932	10306
917.044	10352
917.156	10386
917.268	10215
917.38	10303
917.491	10284
917.603	10268
917.715	10447
917.826	10451
917.938	10276
918.049	10181
918.161	10360
918.272	10462
918.384	10424
918.495	10375
918.606	10173
918.717	10192
918.828	10223
918.939	10143
919.05	10185
919.161	10128
919.272	10029
919.383	10067
919.494	10234
919.604	10455
919.715	10314
919.826	10090
919.936	10223
920.047	10314
920.157	10238
920.267	10417
920.378	10268
920.488	10234
920.598	10413
920.708	10615
920.818	10413
920.928	10462
921.038	10565
921.148	10558
921.258	10276
921.368	10192
921.477	10090
921.587	10059
921.697	9956
921.806	10188
921.916	9941
922.025	9816
922.134	9785
922.244	9713
922.353	9854
922.462	9663
922.571	9625
922.68	9469
922.789	9443
922.898	9481
923.007	9416
923.116	9515
923.224	9485
923.333	9439
923.442	9492
923.55	9268
923.659	9378
923.767	9481
923.876	9359
923.984	9450
924.092	9256
924.201	9401
924.309	9329
924.417	9374
924.525	9268
924.633	9325
924.741	10124
924.849	9192
924.956	9287
925.064	9112
925.172	9047
925.279	9058
925.387	9245
925.494	9211
925.602	9298
925.709	9218
925.816	9070
925.924	9188
926.031	9226
926.138	9161
926.245	9230
926.352	9066
926.459	9203
926.566	9283
926.673	9112
926.779	8998
926.886	9024
926.993	8857
927.099	8804
927.206	8788
927.312	8819
927.419	8925
927.525	8902
927.631	8868
927.737	8788
927.843	8708
927.95	8674
928.056	8708
928.162	8777
928.267	8773
928.373	9348
928.479	8807
928.585	8659
928.69	8773
928.796	8754
928.901	8682
929.007	8606
929.112	8708
929.218	8575
929.323	8571
929.428	8594
929.533	8746
929.638	8522
929.743	8552
929.848	8621
929.953	8549
930.058	8427
930.163	8309
930.267	8358
930.372	8488
930.477	8309
930.581	8564
930.685	8450
930.79	8279
930.894	8298
930.998	8252
931.103	8408
931.207	8103
931.311	8046
931.415	8001
931.519	7723
931.623	7712
