Data from test_V78500241_1408.txt Node
Date: Fri Mar 25 14:43:31 CST 2022
User: usil
Spectrometer: V785-0024
Trigger mode: 0
Integration Time (sec): 4.000000E-1
Scans to average: 1
Nonlinearity correction enabled: false
Boxcar width: 0
Storing dark spectrum: false
XAxis mode: Wavelengths
Number of Pixels in Spectrum: 1024
>>>>>Begin Spectral Data<<<<<
801.071	22440
801.214	22230
801.356	22128
801.499	22017
801.641	21793
801.783	21797
801.926	21751
802.068	21705
802.211	21576
802.353	21523
802.496	21340
802.638	21150
802.78	21218
802.923	21161
803.065	21112
803.208	21161
803.35	21055
803.492	21218
803.635	21245
803.777	21226
803.919	21154
804.061	21454
804.204	21351
804.346	21112
804.488	21108
804.63	21096
804.773	21024
804.915	21070
805.057	21173
805.199	21074
805.341	21127
805.483	20990
805.626	21184
805.768	21001
805.91	20948
806.052	21093
806.194	21009
806.336	21203
806.478	21081
806.62	21024
806.762	21039
806.904	21211
807.046	21393
807.188	21428
807.33	21469
807.472	21473
807.614	21298
807.756	21325
807.898	21329
808.04	21169
808.182	21256
808.324	21294
808.465	21408
808.607	21641
808.749	21618
808.891	21690
809.033	21895
809.174	21827
809.316	21641
809.458	21633
809.6	21641
809.741	21675
809.883	21530
810.025	21591
810.166	21660
810.308	21606
810.45	21610
810.591	21405
810.733	21291
810.875	21317
811.016	21180
811.158	21195
811.299	21389
811.441	21351
811.582	21325
811.724	21241
811.865	21176
812.007	21321
812.148	21226
812.29	21283
812.431	21298
812.573	21576
812.714	21606
812.855	21701
812.997	21835
813.138	21873
813.279	21812
813.421	21797
813.562	21633
813.703	21447
813.845	21260
813.986	21135
814.127	20967
814.268	20834
814.41	20777
814.551	20716
814.692	20941
814.833	20655
814.974	20781
815.115	20819
815.256	20583
815.397	20590
815.539	20568
815.68	20461
815.821	20518
815.962	20560
816.103	20427
816.244	20317
816.385	20199
816.526	20229
816.666	20043
816.807	19875
816.948	19997
817.089	20012
817.23	20050
817.371	19986
817.512	19947
817.653	19791
817.793	19845
817.934	19974
818.075	19925
818.216	19944
818.356	19871
818.497	19841
818.638	19643
818.778	19586
818.919	19476
819.06	19647
819.2	19674
819.341	19738
819.481	19845
819.622	19917
819.762	20218
819.903	20126
820.043	19951
820.184	19902
820.324	19970
820.465	19955
820.605	19944
820.746	19868
820.886	19658
821.026	19784
821.167	19852
821.307	19868
821.447	19826
821.588	19670
821.728	19529
821.868	19407
822.008	19244
822.149	19240
822.289	19308
822.429	18970
822.569	19012
822.709	19019
822.849	18757
822.99	18760
823.13	18806
823.27	18871
823.41	18700
823.55	18525
823.69	18475
823.83	18574
823.97	18422
824.11	18357
824.25	18414
824.389	18441
824.529	18327
824.669	18372
824.809	18467
824.949	18388
825.089	18418
825.228	18334
825.368	18155
825.508	18117
825.648	18251
825.787	18258
825.927	18251
826.067	18034
826.206	18178
826.346	18155
826.485	18266
826.625	18197
826.765	18281
826.904	18140
827.044	17870
827.183	17920
827.323	17813
827.462	17897
827.601	17874
827.741	17855
827.88	17931
828.02	17737
828.159	17878
828.298	17912
828.437	17760
828.577	17809
828.716	17939
828.855	17756
828.994	17596
829.134	17634
829.273	17741
829.412	17547
829.551	17535
829.69	17627
829.829	17623
829.968	17699
830.107	17558
830.246	17543
830.385	17532
830.524	17539
830.663	17478
830.802	17376
830.941	17132
831.08	17147
831.219	17181
831.357	17239
831.496	17395
831.635	17174
831.774	17121
831.913	17014
832.051	16987
832.19	16942
832.329	16938
832.467	16980
832.606	16805
832.744	16930
832.883	16778
833.022	16911
833.16	16858
833.299	16904
833.437	16968
833.576	17014
833.714	16934
833.852	17045
833.991	16961
834.129	17025
834.267	17105
834.406	16999
834.544	17033
834.682	16942
834.821	16889
834.959	17124
835.097	16972
835.235	16968
835.373	16946
835.511	16949
835.65	16782
835.788	16877
835.926	16687
836.064	16668
836.202	16790
836.34	16919
836.478	17018
836.615	16850
836.753	16881
836.891	16942
837.029	16889
837.167	16869
837.305	16786
837.443	16721
837.58	16653
837.718	16755
837.856	16839
837.993	16790
838.131	16862
838.269	16607
838.406	16645
838.544	16577
838.681	16485
838.819	16462
838.956	16238
839.094	16215
839.231	16322
839.369	16386
839.506	16687
839.643	16485
839.781	16382
839.918	16253
840.055	16287
840.193	16325
840.33	16287
840.467	16219
840.604	16287
840.742	16436
840.879	16131
841.016	16162
841.153	16265
841.29	16485
841.427	16333
841.564	16363
841.701	16325
841.838	16223
841.975	16147
842.112	16242
842.249	16105
842.385	15987
842.522	16257
842.659	16074
842.796	16109
842.933	16074
843.069	15979
843.206	15968
843.343	16112
843.479	16109
843.616	16059
843.752	15880
843.889	15945
844.025	15960
844.162	15930
844.298	15991
844.435	15762
844.571	15759
844.708	15979
844.844	16131
844.98	16154
845.117	15956
845.253	15751
845.389	15774
845.525	15926
845.661	15922
845.798	15953
845.934	15979
846.07	15926
846.206	16021
846.342	16036
846.478	15778
846.614	15660
846.75	15515
846.886	15477
847.022	15481
847.158	15393
847.294	15431
847.429	15504
847.565	15340
847.701	15591
847.837	15154
847.972	15157
848.108	15355
848.244	15230
848.379	15005
848.515	15047
848.65	14921
848.786	14952
848.921	15066
849.057	15085
849.192	15123
849.328	15089
849.463	15066
849.598	15058
849.734	14929
849.869	14941
850.004	14796
850.14	14762
850.275	14762
850.41	14640
850.545	14762
850.68	14724
850.815	14739
850.95	14819
851.085	14944
851.22	14830
851.355	14777
851.49	14716
851.625	14762
851.76	14823
851.895	14686
852.03	14659
852.165	14754
852.299	14845
852.434	14899
852.569	14754
852.703	14804
852.838	14811
852.973	14845
853.107	14960
853.242	14712
853.376	14792
853.511	14655
853.645	14629
853.78	14743
853.914	14731
854.048	14705
854.183	14606
854.317	14678
854.451	14765
854.585	14743
854.72	14522
854.854	14674
854.988	14533
855.122	14625
855.256	14423
855.39	14579
855.524	14693
855.658	14701
855.792	14697
855.926	14678
856.06	14686
856.194	14735
856.327	14682
856.461	14636
856.595	14575
856.729	14697
856.862	14785
856.996	14724
857.13	14750
857.263	14724
857.397	14796
857.53	14708
857.664	14693
857.797	14693
857.931	14693
858.064	14762
858.197	14712
858.331	14571
858.464	14583
858.597	14568
858.731	14606
858.864	14705
858.997	14636
859.13	14636
859.263	14739
859.396	14826
859.529	14667
859.662	14552
859.795	14533
859.928	14667
860.061	14743
860.194	14929
860.327	14629
860.46	14579
860.592	14773
860.725	14769
860.858	14819
860.99	14663
861.123	14659
861.256	14594
861.388	14617
861.521	15416
861.653	14560
861.786	14492
861.918	14484
862.05	14526
862.183	14594
862.315	14613
862.447	14629
862.58	14579
862.712	14499
862.844	14362
862.976	14583
863.108	14499
863.24	14876
863.372	14419
863.504	14446
863.636	14374
863.768	14533
863.9	14511
864.032	14290
864.164	14374
864.296	14503
864.428	14575
864.559	14568
864.691	14476
864.823	14465
864.954	14412
865.086	14427
865.217	14381
865.349	14301
865.48	14446
865.612	14427
865.743	14522
865.875	14427
866.006	14385
866.137	14423
866.269	14457
866.4	14423
866.531	14389
866.662	14305
866.793	14374
866.924	14351
867.055	14412
867.186	14400
867.317	14351
867.448	14339
867.579	14336
867.71	14366
867.841	14305
867.972	14427
868.103	14385
868.233	14404
868.364	14393
868.495	14476
868.625	14678
868.756	14659
868.886	14590
869.017	14701
869.147	14716
869.278	14762
869.408	14754
869.539	14644
869.669	14678
869.799	14731
869.929	14819
870.06	14785
870.19	14918
870.32	14971
870.45	15077
870.58	15116
870.71	15161
870.84	15005
870.97	15085
871.1	15017
871.23	15222
871.36	15188
871.489	15146
871.619	15249
871.749	15306
871.879	15169
872.008	15291
872.138	15245
872.267	15230
872.397	15051
872.526	15047
872.656	15108
872.785	15123
872.915	15272
873.044	15241
873.173	15237
873.303	15283
873.432	15378
873.561	15397
873.69	15298
873.819	15382
873.948	15367
874.077	15291
874.206	15321
874.335	15279
874.464	15492
874.593	15614
874.722	15500
874.851	15572
874.979	15587
875.108	15717
875.237	15603
875.365	15519
875.494	15625
875.623	15603
875.751	15606
875.88	15690
876.008	15812
876.136	15804
876.265	16017
876.393	16143
876.521	16074
876.65	16029
876.778	15994
876.906	15968
877.034	16010
877.162	15991
877.29	15907
877.418	15972
877.546	16032
877.674	16101
877.802	16013
877.93	16010
878.058	15956
878.185	15922
878.313	15911
878.441	16032
878.568	15857
878.696	16067
878.824	16131
878.951	16105
879.079	16299
879.206	16379
879.333	16356
879.461	16147
879.588	16226
879.715	16318
879.842	16428
879.97	16124
880.097	15983
880.224	15926
880.351	15991
880.478	15994
880.605	15842
880.732	15804
880.859	16055
880.986	15869
881.112	15960
881.239	15850
881.366	15667
881.493	15576
881.619	15572
881.746	15618
881.872	15530
881.999	15492
882.125	15359
882.252	15595
882.378	15549
882.505	15572
882.631	15504
882.757	15389
882.883	15462
883.01	15416
883.136	15340
883.262	15207
883.388	15176
883.514	15332
883.64	15439
883.766	15344
883.892	15112
884.018	15211
884.143	15344
884.269	15355
884.395	15112
884.52	15074
884.646	15085
884.772	14960
884.897	14921
885.023	15047
885.148	15169
885.274	15135
885.399	15127
885.524	15062
885.65	15081
885.775	15028
885.9	15062
886.025	15199
886.15	15176
886.275	15100
886.4	14895
886.525	15017
886.65	15009
886.775	14986
886.9	15199
887.025	15313
887.149	15077
887.274	14876
887.399	14910
887.523	14758
887.648	14781
887.773	14781
887.897	15024
888.021	14880
888.146	14796
888.27	14956
888.395	15077
888.519	14921
888.643	14944
888.767	14853
888.891	14686
889.015	14701
889.139	14853
889.263	14640
889.387	14853
889.511	14929
889.635	14887
889.759	14693
889.883	14708
890.006	14724
890.13	14807
890.254	14636
890.377	14632
890.501	14549
890.624	14419
890.748	14602
890.871	14454
890.995	14309
891.118	14355
891.241	14469
891.364	14442
891.488	14530
891.611	14339
891.734	14305
891.857	14358
891.98	14431
892.103	14545
892.226	14473
892.349	14450
892.471	14263
892.594	14423
892.717	14347
892.839	14396
892.962	14427
893.085	14465
893.207	14434
893.33	14252
893.452	14309
893.575	14434
893.697	14465
893.819	14606
893.941	14564
894.064	14594
894.186	14317
894.308	14393
894.43	14465
894.552	14678
894.674	14541
894.796	14374
894.918	14431
895.04	14412
895.161	14560
895.283	14522
895.405	14377
895.526	14530
895.648	14488
895.769	14533
895.891	14533
896.012	14518
896.134	14610
896.255	14571
896.376	14617
896.498	14617
896.619	14568
896.74	14583
896.861	14598
896.982	14826
897.103	15028
897.224	14826
897.345	14712
897.466	14705
897.587	14807
897.708	14914
897.828	14883
897.949	14792
898.07	14667
898.19	14796
898.311	15009
898.431	14819
898.552	14914
898.672	14956
898.792	14929
898.913	15028
899.033	14918
899.153	14746
899.273	14724
899.393	14674
899.513	14731
899.633	14792
899.753	14724
899.873	14682
899.993	14731
900.113	14807
900.232	14849
900.352	14724
900.472	14758
900.591	14674
900.711	14640
900.83	14602
900.95	14758
901.069	14682
901.189	14522
901.308	14366
901.427	14267
901.546	14290
901.665	14286
901.784	14358
901.904	14206
902.023	14111
902.141	13947
902.26	13795
902.379	13932
902.498	13864
902.617	13784
902.735	13940
902.854	13795
902.973	13826
903.091	13632
903.21	13651
903.328	13518
903.446	13476
903.565	13407
903.683	13430
903.801	13316
903.919	13499
904.038	13430
904.156	13270
904.274	13232
904.392	13171
904.51	13228
904.627	13228
904.745	13202
904.863	13206
904.981	12981
905.098	12882
905.216	12981
905.334	12962
905.451	12935
905.569	12897
905.686	12989
905.803	12897
905.921	12730
906.038	12848
906.155	12852
906.272	12578
906.389	12665
906.506	12532
906.623	12506
906.74	12578
906.857	12403
906.974	12452
907.091	12563
907.208	12601
907.324	12585
907.441	12342
907.557	12213
907.674	12258
907.79	12186
907.907	12262
908.023	12266
908.139	12235
908.256	12243
908.372	12190
908.488	12197
908.604	11961
908.72	12079
908.836	12003
908.952	12011
909.068	12030
909.184	12106
909.3	12015
909.415	12083
909.531	12117
909.647	11802
909.762	11729
909.878	11729
909.993	11752
910.108	11733
910.224	11733
910.339	11729
910.454	11672
910.57	11611
910.685	11516
910.8	11866
910.915	11714
911.03	11718
911.145	11532
911.259	11440
911.374	11630
911.489	11410
911.604	11376
911.718	11250
911.833	11159
911.947	11117
912.062	11033
912.176	11201
912.291	11258
912.405	11223
912.519	11421
912.633	11398
912.748	11284
912.862	11220
912.976	11113
913.09	10927
913.204	11079
913.318	11124
913.431	11178
913.545	11151
913.659	11197
913.772	11098
913.886	10976
914	10972
914.113	11064
914.226	11090
914.34	10999
914.453	10900
914.566	11094
914.68	10858
914.793	10896
914.906	10790
915.019	10733
915.132	10615
915.245	10847
915.358	10717
915.47	10736
915.583	10698
915.696	10820
915.809	10892
915.921	10820
916.034	10710
916.146	10698
916.259	10660
916.371	10706
916.483	10755
916.595	10653
916.708	10565
916.82	10664
916.932	10561
917.044	10687
917.156	10519
917.268	10470
917.38	10508
917.491	10580
917.603	10561
917.715	10596
917.826	10489
917.938	10592
918.049	10443
918.161	10538
918.272	10611
918.384	10679
918.495	10588
918.606	10466
918.717	10299
918.828	10462
918.939	10447
919.05	10348
919.161	10466
919.272	10219
919.383	10272
919.494	10466
919.604	10649
919.715	10474
919.826	10394
919.936	10325
920.047	10558
920.157	10447
920.267	10580
920.378	10462
920.488	10421
920.598	10660
920.708	10710
920.818	10611
920.928	10565
921.038	10744
921.148	10740
921.258	10367
921.368	10402
921.477	10268
921.587	10287
921.697	10158
921.806	10367
921.916	10147
922.025	9953
922.134	9937
922.244	9884
922.353	9994
922.462	9800
922.571	9720
922.68	9599
922.789	9603
922.898	9652
923.007	9557
923.116	9682
923.224	9686
923.333	9724
923.442	9564
923.55	9564
923.659	9591
923.767	9644
923.876	9515
923.984	9591
924.092	9428
924.201	9542
924.309	9488
924.417	9526
924.525	9405
924.633	9526
924.741	10455
924.849	9218
924.956	9412
925.064	9260
925.172	9230
925.279	9192
925.387	9332
925.494	9275
925.602	9416
925.709	9336
925.816	9230
925.924	9294
926.031	9310
926.138	9279
926.245	9382
926.352	9218
926.459	9344
926.566	9374
926.673	9279
926.779	9131
926.886	9169
926.993	9047
927.099	9055
927.206	8925
927.312	8956
927.419	8933
927.525	9039
927.631	9055
927.737	8868
927.843	8906
927.95	8811
928.056	8876
928.162	8883
928.267	8952
928.373	9572
928.479	9028
928.585	8724
928.69	8895
928.796	8883
928.901	8830
929.007	8678
929.112	8766
929.218	8800
929.323	8743
929.428	8800
929.533	8811
929.638	8655
929.743	8625
929.848	8678
929.953	8712
930.058	8632
930.163	8541
930.267	8488
930.372	8629
930.477	8415
930.581	8735
930.685	8583
930.79	8476
930.894	8457
930.998	8396
931.103	8564
931.207	8210
931.311	8149
931.415	8168
931.519	7913
931.623	7921
