Data from test_V78500241_3111.txt Node
Date: Fri Mar 25 14:55:22 CST 2022
User: usil
Spectrometer: V785-0024
Trigger mode: 0
Integration Time (sec): 4.000000E-1
Scans to average: 1
Nonlinearity correction enabled: false
Boxcar width: 0
Storing dark spectrum: false
XAxis mode: Wavelengths
Number of Pixels in Spectrum: 1024
>>>>>Begin Spectral Data<<<<<
801.071	22154
801.214	21835
801.356	21656
801.499	21599
801.641	21428
801.783	21389
801.926	21515
802.068	21272
802.211	21325
802.353	21085
802.496	20998
802.638	20925
802.78	20823
802.923	20845
803.065	20697
803.208	20735
803.35	20781
803.492	20788
803.635	20918
803.777	20617
803.919	20781
804.061	20967
804.204	20773
804.346	20632
804.488	20427
804.63	20765
804.773	20556
804.915	20708
805.057	20632
805.199	20648
805.341	20640
805.483	20697
805.626	20804
805.768	20678
805.91	20537
806.052	20609
806.194	20682
806.336	20811
806.478	20693
806.62	20560
806.762	20648
806.904	20807
807.046	21116
807.188	20952
807.33	20975
807.472	21058
807.614	20883
807.756	20887
807.898	20804
808.04	20693
808.182	20754
808.324	20823
808.465	20834
808.607	20929
808.749	21051
808.891	21207
809.033	21279
809.174	21001
809.316	20998
809.458	20960
809.6	21028
809.741	21039
809.883	21108
810.025	21203
810.166	21287
810.308	21180
810.45	21062
810.591	21066
810.733	20921
810.875	20842
811.016	20769
811.158	20701
811.299	20872
811.441	20849
811.582	20910
811.724	20777
811.865	20746
812.007	20834
812.148	20731
812.29	20914
812.431	20834
812.573	21074
812.714	21199
812.855	21378
812.997	21344
813.138	21534
813.279	21401
813.421	21264
813.562	21157
813.703	20990
813.845	20944
813.986	20720
814.127	20442
814.268	20298
814.41	20400
814.551	20415
814.692	20484
814.833	20263
814.974	20332
815.115	20358
815.256	20187
815.397	20210
815.539	20210
815.68	20039
815.821	19978
815.962	20043
816.103	20062
816.244	19932
816.385	19849
816.526	19780
816.666	19632
816.807	19506
816.948	19540
817.089	19586
817.23	19563
817.371	19506
817.512	19597
817.653	19464
817.793	19411
817.934	19495
818.075	19495
818.216	19457
818.356	19468
818.497	19160
818.638	19171
818.778	19156
818.919	19206
819.06	19187
819.2	19179
819.341	19293
819.481	19362
819.622	19533
819.762	19681
819.903	19605
820.043	19491
820.184	19396
820.324	19392
820.465	19529
820.605	19377
820.746	19567
820.886	19331
821.026	19407
821.167	19339
821.307	19377
821.447	19411
821.588	19270
821.728	19118
821.868	19031
822.008	18825
822.149	18802
822.289	18859
822.429	18616
822.569	18502
822.709	18616
822.849	18289
822.99	18296
823.13	18429
823.27	18300
823.41	18171
823.55	18057
823.69	18190
823.83	18220
823.97	17969
824.11	17927
824.25	17980
824.389	17950
824.529	17988
824.669	17760
824.809	18007
824.949	17874
825.089	17969
825.228	17916
825.368	17786
825.508	17687
825.648	17672
825.787	17718
825.927	17748
826.067	17668
826.206	17756
826.346	17680
826.485	17741
826.625	17493
826.765	17809
826.904	17676
827.044	17414
827.183	17433
827.323	17383
827.462	17440
827.601	17463
827.741	17414
827.88	17391
828.02	17212
828.159	17303
828.298	17353
828.437	17406
828.577	17269
828.716	17474
828.855	17322
828.994	17064
829.134	17223
829.273	17220
829.412	17056
829.551	17071
829.69	17064
829.829	17109
829.968	17212
830.107	17136
830.246	17174
830.385	17056
830.524	17014
830.663	17018
830.802	16877
830.941	16733
831.08	16706
831.219	16809
831.357	16805
831.496	16835
831.635	16656
831.774	16622
831.913	16527
832.051	16485
832.19	16523
832.329	16573
832.467	16402
832.606	16375
832.744	16413
832.883	16329
833.022	16367
833.16	16455
833.299	16436
833.437	16455
833.576	16527
833.714	16500
833.852	16493
833.991	16398
834.129	16618
834.267	16447
834.406	16497
834.544	16542
834.682	16550
834.821	16424
834.959	16554
835.097	16516
835.235	16489
835.373	16485
835.511	16470
835.65	16382
835.788	16493
835.926	16230
836.064	16154
836.202	16211
836.34	16459
836.478	16546
836.615	16219
836.753	16398
836.891	16470
837.029	16402
837.167	16246
837.305	16352
837.443	16246
837.58	16200
837.718	16333
837.856	16211
837.993	16135
838.131	16265
838.269	16150
838.406	16109
838.544	16147
838.681	16021
838.819	15922
838.956	15850
839.094	15808
839.231	15717
839.369	15846
839.506	16185
839.643	16078
839.781	15827
839.918	15755
840.055	15831
840.193	15793
840.33	15713
840.467	15854
840.604	15709
840.742	15994
840.879	15682
841.016	15663
841.153	15694
841.29	15899
841.427	15827
841.564	15698
841.701	15793
841.838	15732
841.975	15709
842.112	15694
842.249	15538
842.385	15500
842.522	15770
842.659	15690
842.796	15576
842.933	15450
843.069	15469
843.206	15485
843.343	15736
843.479	15614
843.616	15538
843.752	15382
843.889	15355
844.025	15481
844.162	15351
844.298	15424
844.435	15408
844.571	15405
844.708	15355
844.844	15473
844.98	15530
845.117	15481
845.253	15321
845.389	15207
845.525	15230
845.661	15306
845.798	15093
845.934	15214
846.07	15119
846.206	15211
846.342	15298
846.478	15127
846.614	14960
846.75	14895
846.886	14868
847.022	14963
847.158	14910
847.294	14933
847.429	14929
847.565	14933
847.701	15146
847.837	14724
847.972	14579
848.108	14746
848.244	14708
848.379	14507
848.515	14454
848.65	14431
848.786	14419
848.921	14533
849.057	14682
849.192	14602
849.328	14549
849.463	14492
849.598	14446
849.734	14495
849.869	14343
850.004	14286
850.14	14286
850.275	14393
850.41	14210
850.545	14271
850.68	14240
850.815	14339
850.95	14328
851.085	14374
851.22	14461
851.355	14187
851.49	14237
851.625	14206
851.76	14202
851.895	14157
852.03	14202
852.165	14377
852.299	14282
852.434	14385
852.569	14339
852.703	14328
852.838	14351
852.973	14545
853.107	14408
853.242	14320
853.376	14275
853.511	14035
853.645	14043
853.78	14309
853.914	14138
854.048	14221
854.183	14142
854.317	14176
854.451	14351
854.585	14134
854.72	14088
854.854	14267
854.988	14043
855.122	14050
855.256	13959
855.39	14005
855.524	14248
855.658	14157
855.792	14187
855.926	14214
856.06	14259
856.194	14210
856.327	14126
856.461	14142
856.595	14134
856.729	14058
856.862	14286
856.996	14100
857.13	14191
857.263	14259
857.397	14290
857.53	14149
857.664	14301
857.797	14225
857.931	14187
858.064	14282
858.197	14210
858.331	14142
858.464	14081
858.597	14096
858.731	14073
858.864	14130
858.997	14176
859.13	14115
859.263	14191
859.396	14237
859.529	14172
859.662	14210
859.795	14172
859.928	14271
860.061	14313
860.194	14389
860.327	14244
860.46	14142
860.592	14298
860.725	14339
860.858	14202
860.99	14187
861.123	14058
861.256	14103
861.388	14111
861.521	14800
861.653	14073
861.786	13955
861.918	14054
862.05	14054
862.183	14111
862.315	14115
862.447	14176
862.58	14168
862.712	13890
862.844	13864
862.976	14084
863.108	14012
863.24	14218
863.372	13826
863.504	13944
863.636	13883
863.768	13936
863.9	14050
864.032	13909
864.164	13925
864.296	13909
864.428	14142
864.559	14062
864.691	14050
864.823	14062
864.954	13944
865.086	14031
865.217	13887
865.349	13906
865.48	13940
865.612	13936
865.743	14107
865.875	13864
866.006	13917
866.137	13997
866.269	13974
866.4	13852
866.531	13833
866.662	13894
866.793	13860
866.924	13871
867.055	13917
867.186	13898
867.317	13837
867.448	13788
867.579	13932
867.71	13780
867.841	13811
867.972	13928
868.103	13986
868.233	13932
868.364	13894
868.495	14043
868.625	14214
868.756	14221
868.886	14058
869.017	14142
869.147	14298
869.278	14385
869.408	14221
869.539	14210
869.669	14309
869.799	14240
869.929	14336
870.06	14282
870.19	14522
870.32	14423
870.45	14522
870.58	14541
870.71	14651
870.84	14674
870.97	14507
871.1	14549
871.23	14724
871.36	14750
871.489	14720
871.619	14823
871.749	14750
871.879	14758
872.008	14883
872.138	14834
872.267	14743
872.397	14667
872.526	14648
872.656	14629
872.785	14518
872.915	14765
873.044	14765
873.173	14811
873.303	14887
873.432	14925
873.561	14845
873.69	14842
873.819	14765
873.948	14937
874.077	14910
874.206	14765
874.335	14925
874.464	14998
874.593	15123
874.722	15024
874.851	15123
874.979	15138
875.108	15058
875.237	15066
875.365	15142
875.494	15184
875.623	15245
875.751	15066
875.88	15150
876.008	15306
876.136	15424
876.265	15545
876.393	15652
876.521	15576
876.65	15701
876.778	15713
876.906	15587
877.034	15488
877.162	15530
877.29	15515
877.418	15511
877.546	15648
877.674	15584
877.802	15603
877.93	15519
878.058	15591
878.185	15538
878.313	15534
878.441	15526
878.568	15374
878.696	15443
878.824	15610
878.951	15660
879.079	15610
879.206	15869
879.333	15785
879.461	15625
879.588	15690
879.715	15774
879.842	15865
879.97	15637
880.097	15500
880.224	15500
880.351	15405
880.478	15374
880.605	15431
880.732	15397
880.859	15713
880.986	15424
881.112	15447
881.239	15325
881.366	15222
881.493	15104
881.619	15074
881.746	15180
881.872	15131
881.999	15036
882.125	15055
882.252	15161
882.378	15028
882.505	15184
882.631	14994
882.757	14902
882.883	14929
883.01	14914
883.136	14834
883.262	14724
883.388	14773
883.514	14902
883.64	14895
883.766	14895
883.892	14754
884.018	14667
884.143	14834
884.269	14982
884.395	14613
884.52	14606
884.646	14655
884.772	14556
884.897	14492
885.023	14552
885.148	14636
885.274	14739
885.399	14632
885.524	14575
885.65	14590
885.775	14621
885.9	14636
886.025	14731
886.15	14655
886.275	14640
886.4	14476
886.525	14495
886.65	14602
886.775	14526
886.9	14701
887.025	14887
887.149	14621
887.274	14427
887.399	14404
887.523	14412
887.648	14355
887.773	14298
887.897	14427
888.021	14450
888.146	14396
888.27	14412
888.395	14549
888.519	14461
888.643	14507
888.767	14465
888.891	14343
889.015	14267
889.139	14240
889.263	14355
889.387	14324
889.511	14503
889.635	14408
889.759	14244
889.883	14248
890.006	14370
890.13	14355
890.254	14202
890.377	14294
890.501	14024
890.624	14065
890.748	14149
890.871	13997
890.995	13989
891.118	14012
891.241	13898
891.364	13978
891.488	14130
891.611	14027
891.734	13982
891.857	14050
891.98	13993
892.103	14115
892.226	13917
892.349	13928
892.471	13849
892.594	13940
892.717	14084
892.839	13902
892.962	14016
893.085	14062
893.207	13947
893.33	13894
893.452	13951
893.575	13982
893.697	13978
893.819	14119
893.941	14210
894.064	14123
894.186	13963
894.308	13989
894.43	14115
894.552	14218
894.674	14103
894.796	13963
894.918	14031
895.04	14027
895.161	14187
895.283	14115
895.405	14012
895.526	13993
895.648	14073
895.769	14130
895.891	14138
896.012	14275
896.134	14164
896.255	14164
896.376	14134
896.498	14134
896.619	14103
896.74	14149
896.861	14286
896.982	14533
897.103	14636
897.224	14484
897.345	14374
897.466	14419
897.587	14423
897.708	14480
897.828	14511
897.949	14412
898.07	14278
898.19	14423
898.311	14454
898.431	14362
898.552	14507
898.672	14571
898.792	14575
898.913	14602
899.033	14465
899.153	14450
899.273	14221
899.393	14343
899.513	14389
899.633	14320
899.753	14339
899.873	14225
899.993	14320
900.113	14412
900.232	14400
900.352	14362
900.472	14358
900.591	14267
900.711	14298
900.83	14221
900.95	14347
901.069	14393
901.189	14195
901.308	14043
901.427	13928
901.546	13883
901.665	14020
901.784	13898
901.904	13871
902.023	13746
902.141	13571
902.26	13521
902.379	13605
902.498	13499
902.617	13403
902.735	13480
902.854	13544
902.973	13426
903.091	13209
903.21	13274
903.328	13270
903.446	13160
903.565	13141
903.683	13164
903.801	12954
903.919	12993
904.038	13023
904.156	12844
904.274	12958
904.392	12897
904.51	12886
904.627	12844
904.745	12977
904.863	12943
904.981	12700
905.098	12639
905.216	12540
905.334	12570
905.451	12566
905.569	12517
905.686	12604
905.803	12578
905.921	12414
906.038	12525
906.155	12483
906.272	12270
906.389	12258
906.506	12243
906.623	12209
906.74	12022
906.857	12114
906.974	12049
907.091	12194
907.208	12338
907.324	12213
907.441	12007
907.557	11904
907.674	11878
907.79	11893
907.907	11794
908.023	11882
908.139	11882
908.256	11874
908.372	11901
908.488	11779
908.604	11745
908.72	11638
908.836	11608
908.952	11627
909.068	11752
909.184	11786
909.3	11729
909.415	11767
909.531	11646
909.647	11486
909.762	11501
909.878	11448
909.993	11429
910.108	11520
910.224	11459
910.339	11493
910.454	11326
910.57	11246
910.685	11204
910.8	11490
910.915	11433
911.03	11292
911.145	11067
911.259	11124
911.374	11121
911.489	11060
911.604	11018
911.718	10930
911.833	10892
911.947	10767
912.062	10733
912.176	10915
912.291	10847
912.405	10854
912.519	11109
912.633	11140
912.748	11022
912.862	10911
912.976	10786
913.09	10675
913.204	10805
913.318	10778
913.431	10862
913.545	10892
913.659	10930
913.772	10824
913.886	10740
914	10729
914.113	10714
914.226	10858
914.34	10812
914.453	10577
914.566	10755
914.68	10618
914.793	10584
914.906	10447
915.019	10402
915.132	10344
915.245	10466
915.358	10394
915.47	10428
915.583	10451
915.696	10440
915.809	10516
915.921	10535
916.034	10371
916.146	10432
916.259	10314
916.371	10455
916.483	10443
916.595	10352
916.708	10367
916.82	10390
916.932	10398
917.044	10303
917.156	10261
917.268	10219
917.38	10306
917.491	10238
917.603	10287
917.715	10344
917.826	10276
917.938	10261
918.049	10131
918.161	10303
918.272	10459
918.384	10310
918.495	10299
918.606	10185
918.717	10044
918.828	10112
918.939	10154
919.05	10086
919.161	10169
919.272	9915
919.383	9979
919.494	10143
919.604	10322
919.715	10196
919.826	10021
919.936	10173
920.047	10227
920.157	10090
920.267	10299
920.378	10238
920.488	10150
920.598	10367
920.708	10459
920.818	10333
920.928	10417
921.038	10538
921.148	10440
921.258	10188
921.368	10154
921.477	10036
921.587	9953
921.697	9922
921.806	10017
921.916	9831
922.025	9709
922.134	9743
922.244	9667
922.353	9682
922.462	9587
922.571	9599
922.68	9412
922.789	9412
922.898	9462
923.007	9344
923.116	9416
923.224	9401
923.333	9420
923.442	9275
923.55	9256
923.659	9272
923.767	9329
923.876	9249
923.984	9378
924.092	9184
924.201	9241
924.309	9241
924.417	9253
924.525	9214
924.633	9268
924.741	10139
924.849	9077
924.956	9188
925.064	8986
925.172	8979
925.279	9028
925.387	9043
925.494	9077
925.602	9233
925.709	9119
925.816	8982
925.924	9032
926.031	9146
926.138	9074
926.245	9093
926.352	8998
926.459	9112
926.566	9142
926.673	9001
926.779	8933
926.886	8868
926.993	8830
927.099	8773
927.206	8724
927.312	8781
927.419	8800
927.525	8842
927.631	8826
927.737	8693
927.843	8640
927.95	8552
928.056	8727
928.162	8705
928.267	8689
928.373	9214
928.479	8758
928.585	8549
928.69	8678
928.796	8705
928.901	8587
929.007	8465
929.112	8568
929.218	8549
929.323	8465
929.428	8511
929.533	8610
929.638	8446
929.743	8503
929.848	8594
929.953	8518
930.058	8400
930.163	8202
930.267	8279
930.372	8495
930.477	8172
930.581	8522
930.685	8259
930.79	8180
930.894	8317
930.998	8218
931.103	8347
931.207	8043
931.311	7974
931.415	7921
931.519	7708
931.623	7655
