Data from test_V78500241_2072.txt Node
Date: Fri Mar 25 14:48:08 CST 2022
User: usil
Spectrometer: V785-0024
Trigger mode: 0
Integration Time (sec): 4.000000E-1
Scans to average: 1
Nonlinearity correction enabled: false
Boxcar width: 0
Storing dark spectrum: false
XAxis mode: Wavelengths
Number of Pixels in Spectrum: 1024
>>>>>Begin Spectral Data<<<<<
801.071	22162
801.214	22013
801.356	21789
801.499	21762
801.641	21515
801.783	21549
801.926	21496
802.068	21367
802.211	21412
802.353	21359
802.496	21104
802.638	20986
802.78	20990
802.923	21036
803.065	20785
803.208	20731
803.35	20743
803.492	20937
803.635	20963
803.777	20845
803.919	20937
804.061	21260
804.204	20891
804.346	20857
804.488	20686
804.63	20811
804.773	20731
804.915	20807
805.057	20845
805.199	20746
805.341	20845
805.483	20880
805.626	20948
805.768	20689
805.91	20712
806.052	20800
806.194	20636
806.336	20815
806.478	20773
806.62	20731
806.762	20895
806.904	20944
807.046	21123
807.188	21142
807.33	21157
807.472	21188
807.614	21039
807.756	20994
807.898	20845
808.04	20693
808.182	20807
808.324	20781
808.465	20899
808.607	21043
808.749	21123
808.891	21214
809.033	21336
809.174	21294
809.316	21112
809.458	21116
809.6	21028
809.741	21237
809.883	21127
810.025	21237
810.166	21283
810.308	21359
810.45	21112
810.591	21188
810.733	20986
810.875	20910
811.016	20807
811.158	20686
811.299	20880
811.441	20864
811.582	21009
811.724	20952
811.865	20960
812.007	20883
812.148	20872
812.29	20944
812.431	21138
812.573	21211
812.714	21294
812.855	21477
812.997	21568
813.138	21526
813.279	21500
813.421	21363
813.562	21408
813.703	21283
813.845	20960
813.986	20830
814.127	20727
814.268	20507
814.41	20549
814.551	20465
814.692	20571
814.833	20408
814.974	20408
815.115	20423
815.256	20263
815.397	20305
815.539	20305
815.68	20199
815.821	20039
815.962	20240
816.103	20107
816.244	19970
816.385	19936
816.526	19925
816.666	19818
816.807	19693
816.948	19685
817.089	19655
817.23	19704
817.371	19609
817.512	19590
817.653	19582
817.793	19480
817.934	19567
818.075	19567
818.216	19613
818.356	19540
818.497	19396
818.638	19320
818.778	19171
818.919	19266
819.06	19301
819.2	19419
819.341	19426
819.481	19521
819.622	19624
819.762	19738
819.903	19628
820.043	19712
820.184	19578
820.324	19651
820.465	19578
820.605	19426
820.746	19616
820.886	19434
821.026	19559
821.167	19521
821.307	19533
821.447	19457
821.588	19346
821.728	19202
821.868	19171
822.008	18985
822.149	19042
822.289	18871
822.429	18711
822.569	18623
822.709	18597
822.849	18486
822.99	18483
823.13	18414
823.27	18323
823.41	18399
823.55	18144
823.69	18247
823.83	18266
823.97	18251
824.11	17988
824.25	18045
824.389	18102
824.529	18102
824.669	17946
824.809	18140
824.949	18136
825.089	18072
825.228	18072
825.368	17771
825.508	17870
825.648	17710
825.787	17870
825.927	17866
826.067	17684
826.206	17821
826.346	17901
826.485	17619
826.625	17802
826.765	17817
826.904	17904
827.044	17726
827.183	17543
827.323	17395
827.462	17630
827.601	17391
827.741	17589
827.88	17547
828.02	17414
828.159	17573
828.298	17471
828.437	17532
828.577	17490
828.716	17748
828.855	17512
828.994	17239
829.134	17273
829.273	17303
829.412	17239
829.551	17178
829.69	17170
829.829	17322
829.968	17376
830.107	17292
830.246	17254
830.385	17258
830.524	17246
830.663	17090
830.802	16949
830.941	16946
831.08	16984
831.219	16987
831.357	17052
831.496	17086
831.635	16927
831.774	16786
831.913	16778
832.051	16763
832.19	16683
832.329	16748
832.467	16649
832.606	16508
832.744	16615
832.883	16611
833.022	16561
833.16	16626
833.299	16645
833.437	16664
833.576	16584
833.714	16588
833.852	16542
833.991	16649
834.129	16630
834.267	16679
834.406	16615
834.544	16672
834.682	16668
834.821	16531
834.959	16702
835.097	16660
835.235	16710
835.373	16660
835.511	16649
835.65	16550
835.788	16538
835.926	16341
836.064	16333
836.202	16428
836.34	16611
836.478	16588
836.615	16535
836.753	16554
836.891	16649
837.029	16550
837.167	16394
837.305	16519
837.443	16481
837.58	16360
837.718	16402
837.856	16325
837.993	16295
838.131	16478
838.269	16451
838.406	16325
838.544	16226
838.681	16105
838.819	16040
838.956	16032
839.094	16017
839.231	15987
839.369	16181
839.506	16363
839.643	16177
839.781	16032
839.918	15892
840.055	16036
840.193	15941
840.33	15869
840.467	15926
840.604	15937
840.742	16116
840.879	15895
841.016	15903
841.153	15846
841.29	16044
841.427	15983
841.564	15953
841.701	16017
841.838	15915
841.975	15804
842.112	15899
842.249	15720
842.385	15701
842.522	15907
842.659	15724
842.796	15663
842.933	15701
843.069	15724
843.206	15644
843.343	15766
843.479	15679
843.616	15785
843.752	15595
843.889	15633
844.025	15717
844.162	15469
844.298	15568
844.435	15485
844.571	15511
844.708	15641
844.844	15667
844.98	15648
845.117	15686
845.253	15473
845.389	15336
845.525	15378
845.661	15386
845.798	15363
845.934	15275
846.07	15264
846.206	15386
846.342	15610
846.478	15336
846.614	15218
846.75	14971
846.886	15085
847.022	15154
847.158	15100
847.294	15146
847.429	15112
847.565	14982
847.701	15344
847.837	14842
847.972	14853
848.108	14929
848.244	14941
848.379	14750
848.515	14636
848.65	14602
848.786	14705
848.921	14743
849.057	14758
849.192	14819
849.328	14731
849.463	14796
849.598	14579
849.734	14678
849.869	14636
850.004	14537
850.14	14488
850.275	14457
850.41	14412
850.545	14400
850.68	14434
850.815	14480
850.95	14381
851.085	14644
851.22	14530
851.355	14476
851.49	14423
851.625	14377
851.76	14446
851.895	14339
852.03	14366
852.165	14423
852.299	14499
852.434	14549
852.569	14533
852.703	14473
852.838	14579
852.973	14587
853.107	14636
853.242	14415
853.376	14347
853.511	14195
853.645	14336
853.78	14412
853.914	14347
854.048	14278
854.183	14328
854.317	14267
854.451	14484
854.585	14400
854.72	14339
854.854	14370
854.988	14229
855.122	14336
855.256	14275
855.39	14328
855.524	14412
855.658	14298
855.792	14400
855.926	14339
856.06	14336
856.194	14396
856.327	14358
856.461	14263
856.595	14263
856.729	14233
856.862	14396
856.996	14370
857.13	14415
857.263	14507
857.397	14427
857.53	14336
857.664	14457
857.797	14419
857.931	14549
858.064	14290
858.197	14408
858.331	14263
858.464	14298
858.597	14195
858.731	14347
858.864	14221
858.997	14294
859.13	14343
859.263	14332
859.396	14347
859.529	14229
859.662	14282
859.795	14301
859.928	14351
860.061	14522
860.194	14469
860.327	14366
860.46	14282
860.592	14427
860.725	14499
860.858	14473
860.99	14332
861.123	14259
861.256	14298
861.388	14355
861.521	14921
861.653	14237
861.786	14134
861.918	14210
862.05	14298
862.183	14263
862.315	14267
862.447	14412
862.58	14244
862.712	14176
862.844	14035
862.976	14244
863.108	14149
863.24	14438
863.372	14043
863.504	14039
863.636	14077
863.768	14187
863.9	14107
864.032	14050
864.164	13970
864.296	14161
864.428	14252
864.559	14187
864.691	14149
864.823	14145
864.954	14115
865.086	14172
865.217	14081
865.349	13997
865.48	14084
865.612	14084
865.743	14221
865.875	14172
866.006	14001
866.137	14119
866.269	14092
866.4	14092
866.531	14123
866.662	13936
866.793	14046
866.924	14126
867.055	14103
867.186	14069
867.317	13982
867.448	13989
867.579	13967
867.71	13925
867.841	13967
867.972	14065
868.103	14001
868.233	14054
868.364	14073
868.495	14161
868.625	14240
868.756	14541
868.886	14183
869.017	14278
869.147	14617
869.278	14457
869.408	14362
869.539	14446
869.669	14320
869.799	14461
869.929	14381
870.06	14461
870.19	14632
870.32	14610
870.45	14667
870.58	14682
870.71	14834
870.84	14804
870.97	14686
871.1	14712
871.23	14925
871.36	15005
871.489	14853
871.619	14880
871.749	14948
871.879	15020
872.008	15051
872.138	14925
872.267	14937
872.397	14724
872.526	14769
872.656	14834
872.785	14708
872.915	14963
873.044	15047
873.173	14998
873.303	14975
873.432	14960
873.561	15055
873.69	14921
873.819	14883
873.948	15062
874.077	14998
874.206	14899
874.335	15055
874.464	15104
874.593	15207
874.722	15195
874.851	15226
874.979	15287
875.108	15245
875.237	15188
875.365	15241
875.494	15222
875.623	15294
875.751	15306
875.88	15298
876.008	15401
876.136	15534
876.265	15800
876.393	15888
876.521	15743
876.65	15739
876.778	15770
876.906	15747
877.034	15637
877.162	15614
877.29	15709
877.418	15644
877.546	15713
877.674	15709
877.802	15759
877.93	15675
878.058	15576
878.185	15713
878.313	15667
878.441	15717
878.568	15629
878.696	15637
878.824	15701
878.951	15781
879.079	15880
879.206	16093
879.333	15888
879.461	15698
879.588	15766
879.715	15918
879.842	15964
879.97	15713
880.097	15694
880.224	15507
880.351	15572
880.478	15511
880.605	15538
880.732	15610
880.859	15789
880.986	15591
881.112	15652
881.239	15450
881.366	15382
881.493	15268
881.619	15275
881.746	15241
881.872	15218
881.999	15199
882.125	15176
882.252	15287
882.378	15272
882.505	15454
882.631	15119
882.757	15055
882.883	15051
883.01	15070
883.136	15047
883.262	14944
883.388	14906
883.514	15074
883.64	15047
883.766	14948
883.892	14937
884.018	14861
884.143	15005
884.269	15005
884.395	14815
884.52	14769
884.646	14667
884.772	14724
884.897	14670
885.023	14731
885.148	14788
885.274	14785
885.399	14838
885.524	14762
885.65	14727
885.775	14819
885.9	14712
886.025	14800
886.15	14864
886.275	14746
886.4	14667
886.525	14731
886.65	14644
886.775	14625
886.9	14872
887.025	15005
887.149	14739
887.274	14541
887.399	14469
887.523	14507
887.648	14522
887.773	14423
887.897	14571
888.021	14724
888.146	14484
888.27	14640
888.395	14644
888.519	14533
888.643	14594
888.767	14629
888.891	14457
889.015	14381
889.139	14419
889.263	14415
889.387	14476
889.511	14617
889.635	14393
889.759	14412
889.883	14393
890.006	14446
890.13	14560
890.254	14423
890.377	14370
890.501	14237
890.624	14199
890.748	14400
890.871	14153
890.995	14153
891.118	14043
891.241	14183
891.364	14119
891.488	14153
891.611	14115
891.734	14176
891.857	14202
891.98	14164
892.103	14229
892.226	14195
892.349	14012
892.471	13864
892.594	14058
892.717	14149
892.839	14062
892.962	14107
893.085	14195
893.207	14119
893.33	13970
893.452	14103
893.575	14180
893.697	14145
893.819	14248
893.941	14389
894.064	14244
894.186	14138
894.308	14081
894.43	14252
894.552	14328
894.674	14195
894.796	14081
894.918	14218
895.04	14103
895.161	14267
895.283	14278
895.405	14164
895.526	14202
895.648	14248
895.769	14233
895.891	14343
896.012	14343
896.134	14256
896.255	14290
896.376	14301
896.498	14336
896.619	14404
896.74	14313
896.861	14339
896.982	14636
897.103	14872
897.224	14644
897.345	14613
897.466	14393
897.587	14617
897.708	14735
897.828	14625
897.949	14530
898.07	14412
898.19	14442
898.311	14781
898.431	14579
898.552	14632
898.672	14773
898.792	14712
898.913	14648
899.033	14648
899.153	14507
899.273	14476
899.393	14457
899.513	14556
899.633	14526
899.753	14476
899.873	14484
899.993	14514
900.113	14530
900.232	14568
900.352	14393
900.472	14328
900.591	14244
900.711	14438
900.83	14343
900.95	14438
901.069	14549
901.189	14374
901.308	14077
901.427	14062
901.546	14001
901.665	14107
901.784	14020
901.904	13906
902.023	13776
902.141	13704
902.26	13689
902.379	13685
902.498	13594
902.617	13529
902.735	13616
902.854	13597
902.973	13636
903.091	13346
903.21	13350
903.328	13365
903.446	13320
903.565	13171
903.683	13209
903.801	13065
903.919	13152
904.038	13122
904.156	13038
904.274	13027
904.392	12977
904.51	12973
904.627	12985
904.745	13076
904.863	13061
904.981	12867
905.098	12707
905.216	12642
905.334	12719
905.451	12719
905.569	12662
905.686	12722
905.803	12730
905.921	12506
906.038	12631
906.155	12475
906.272	12384
906.389	12380
906.506	12251
906.623	12232
906.74	12319
906.857	12152
906.974	12133
907.091	12422
907.208	12365
907.324	12262
907.441	12281
907.557	12022
907.674	11988
907.79	12038
907.907	11965
908.023	12114
908.139	12015
908.256	11984
908.372	11958
908.488	11885
908.604	11843
908.72	11786
908.836	11790
908.952	11771
909.068	11786
909.184	11889
909.3	11813
909.415	11813
909.531	11901
909.647	11551
909.762	11638
909.878	11467
909.993	11608
910.108	11532
910.224	11543
910.339	11611
910.454	11467
910.57	11471
910.685	11322
910.8	11649
910.915	11562
911.03	11395
911.145	11307
911.259	11261
911.374	11246
911.489	11197
911.604	11105
911.718	11003
911.833	10995
911.947	10892
912.062	10877
912.176	11056
912.291	11003
912.405	11010
912.519	11254
912.633	11201
912.748	11143
912.862	11041
912.976	10820
913.09	10774
913.204	10786
913.318	10873
913.431	11064
913.545	10934
913.659	10987
913.772	10847
913.886	10706
914	10752
914.113	10816
914.226	10919
914.34	10839
914.453	10694
914.566	10793
914.68	10736
914.793	10771
914.906	10588
915.019	10512
915.132	10478
915.245	10542
915.358	10519
915.47	10596
915.583	10527
915.696	10653
915.809	10664
915.921	10717
916.034	10519
916.146	10455
916.259	10451
916.371	10558
916.483	10497
916.595	10542
916.708	10386
916.82	10561
916.932	10455
917.044	10386
917.156	10367
917.268	10325
917.38	10356
917.491	10352
917.603	10360
917.715	10489
917.826	10462
917.938	10348
918.049	10154
918.161	10356
918.272	10489
918.384	10455
918.495	10436
918.606	10230
918.717	10154
918.828	10211
918.939	10200
919.05	10150
919.161	10211
919.272	9968
919.383	10048
919.494	10303
919.604	10459
919.715	10268
919.826	10131
919.936	10230
920.047	10272
920.157	10280
920.267	10363
920.378	10223
920.488	10192
920.598	10440
920.708	10554
920.818	10443
920.928	10352
921.038	10607
921.148	10592
921.258	10314
921.368	10196
921.477	10093
921.587	10048
921.697	9987
921.806	10097
921.916	10040
922.025	9861
922.134	9846
922.244	9736
922.353	9869
922.462	9717
922.571	9603
922.68	9492
922.789	9431
922.898	9542
923.007	9469
923.116	9454
923.224	9511
923.333	9504
923.442	9447
923.55	9344
923.659	9447
923.767	9416
923.876	9336
923.984	9447
924.092	9351
924.201	9370
924.309	9359
924.417	9340
924.525	9336
924.633	9359
924.741	10223
924.849	9146
924.956	9249
925.064	9188
925.172	9131
925.279	9135
925.387	9214
925.494	9131
925.602	9306
925.709	9146
925.816	9097
925.924	9108
926.031	9165
926.138	9188
926.245	9157
926.352	9005
926.459	9226
926.566	9275
926.673	9154
926.779	9093
926.886	9013
926.993	8876
927.099	8849
927.206	8746
927.312	8815
927.419	8804
927.525	8910
927.631	8876
927.737	8773
927.843	8773
927.95	8598
928.056	8720
928.162	8769
928.267	8724
928.373	9401
928.479	8842
928.585	8644
928.69	8758
928.796	8766
928.901	8667
929.007	8610
929.112	8644
929.218	8689
929.323	8590
929.428	8518
929.533	8682
929.638	8564
929.743	8549
929.848	8617
929.953	8594
930.058	8434
930.163	8400
930.267	8282
930.372	8495
930.477	8339
930.581	8461
930.685	8438
930.79	8305
930.894	8313
930.998	8317
931.103	8412
931.207	8092
931.311	8024
931.415	7989
931.519	7799
931.623	7864
