Data from test_V78500241_162.txt Node
Date: Fri Mar 25 14:34:51 CST 2022
User: usil
Spectrometer: V785-0024
Trigger mode: 0
Integration Time (sec): 4.000000E-1
Scans to average: 1
Nonlinearity correction enabled: false
Boxcar width: 0
Storing dark spectrum: false
XAxis mode: Wavelengths
Number of Pixels in Spectrum: 1024
>>>>>Begin Spectral Data<<<<<
801.071	29128
801.214	29140
801.356	28812
801.499	28778
801.641	28767
801.783	28527
801.926	28656
802.068	28493
802.211	28531
802.353	28363
802.496	28299
802.638	28219
802.78	28265
802.923	28188
803.065	28204
803.208	28196
803.35	28238
803.492	28234
803.635	28474
803.777	28314
803.919	28489
804.061	28569
804.204	28299
804.346	28303
804.488	28074
804.63	28265
804.773	28181
804.915	28265
805.057	28443
805.199	28261
805.341	28375
805.483	28405
805.626	28428
805.768	28249
805.91	28497
806.052	28645
806.194	28481
806.336	28797
806.478	28531
806.62	28550
806.762	28847
806.904	28908
807.046	29254
807.188	29178
807.33	29463
807.472	29493
807.614	29509
807.756	29699
807.898	29790
808.04	30140
808.182	30426
808.324	31023
808.465	31605
808.607	32358
808.749	32963
808.891	33458
809.033	33310
809.174	33077
809.316	32252
809.458	31731
809.6	30932
809.741	30559
809.883	30194
810.025	30182
810.166	29927
810.308	29703
810.45	29676
810.591	29425
810.733	29231
810.875	29197
811.016	29117
811.158	28991
811.299	28995
811.441	29041
811.582	28961
811.724	28862
811.865	28923
812.007	28831
812.148	28675
812.29	28767
812.431	29121
812.573	29132
812.714	29204
812.855	29143
812.997	29395
813.138	29509
813.279	29433
813.421	29402
813.562	29178
813.703	29018
813.845	28858
813.986	28421
814.127	28432
814.268	28196
814.41	28413
814.551	28177
814.692	28265
814.833	28070
814.974	28120
815.115	28341
815.256	28101
815.397	28097
815.539	27979
815.68	28010
815.821	28025
815.962	27960
816.103	27914
816.244	27656
816.385	27618
816.526	27747
816.666	27310
816.807	27386
816.948	27473
817.089	27355
817.23	27473
817.371	27351
817.512	27211
817.653	27340
817.793	27222
817.934	27142
818.075	27283
818.216	27256
818.356	27424
818.497	27188
818.638	26986
818.778	27001
818.919	27028
819.06	27074
819.2	27096
819.341	27131
819.481	27268
819.622	27351
819.762	27473
819.903	27538
820.043	27424
820.184	27142
820.324	27351
820.465	27367
820.605	27344
820.746	27233
820.886	27119
821.026	27184
821.167	27009
821.307	27233
821.447	27138
821.588	27089
821.728	26823
821.868	26674
822.008	26465
822.149	26453
822.289	26579
822.429	26271
822.569	26305
822.709	26149
822.849	25951
822.99	26153
823.13	25989
823.27	25940
823.41	25746
823.55	25658
823.69	25799
823.83	25826
823.97	25586
824.11	25518
824.25	25571
824.389	25377
824.529	25628
824.669	25464
824.809	25632
824.949	25700
825.089	25639
825.228	25552
825.368	25202
825.508	25362
825.648	25403
825.787	25438
825.927	25282
826.067	25202
826.206	25232
826.346	25438
826.485	25407
826.625	25381
826.765	25430
826.904	25354
827.044	25168
827.183	25088
827.323	25156
827.462	25004
827.601	25072
827.741	25008
827.88	25050
828.02	24859
828.159	24981
828.298	25023
828.437	25072
828.577	25019
828.716	25069
828.855	24867
828.994	24719
829.134	24715
829.273	24711
829.412	24544
829.551	24566
829.69	24658
829.829	24661
829.968	24738
830.107	24719
830.246	24658
830.385	24612
830.524	24601
830.663	24460
830.802	24361
830.941	24258
831.08	24220
831.219	24327
831.357	24266
831.496	24475
831.635	24270
831.774	24144
831.913	23931
832.051	24152
832.19	24098
832.329	23954
832.467	23958
832.606	23851
832.744	23790
832.883	23828
833.022	23851
833.16	23904
833.299	24041
833.437	24110
833.576	24026
833.714	24102
833.852	24102
833.991	24155
834.129	24239
834.267	24270
834.406	24098
834.544	24114
834.682	24087
834.821	23988
834.959	24083
835.097	23939
835.235	24110
835.373	23908
835.511	23912
835.65	23832
835.788	23646
835.926	23554
836.064	23474
836.202	23589
836.34	23813
836.478	23695
836.615	23653
836.753	23764
836.891	23589
837.029	23630
837.167	23570
837.305	23604
837.443	23554
837.58	23444
837.718	23573
837.856	23486
837.993	23539
838.131	23398
838.269	23383
838.406	23417
838.544	23239
838.681	23109
838.819	23105
838.956	22797
839.094	22953
839.231	22965
839.369	23109
839.506	23288
839.643	23143
839.781	22892
839.918	22904
840.055	22900
840.193	22839
840.33	22793
840.467	22793
840.604	22850
840.742	22980
840.879	22557
841.016	22713
841.153	22622
841.29	22843
841.427	22797
841.564	22793
841.701	22782
841.838	22675
841.975	22637
842.112	22687
842.249	22527
842.385	22440
842.522	22683
842.659	22611
842.796	22478
842.933	22512
843.069	22402
843.206	22459
843.343	22485
843.479	22550
843.616	22683
843.752	22181
843.889	22169
844.025	22413
844.162	22329
844.298	22440
844.435	22333
844.571	22382
844.708	22466
844.844	22675
844.98	22736
845.117	22752
845.253	22946
845.389	23170
845.525	23726
845.661	24661
845.798	25936
845.934	26979
846.07	27504
846.206	27260
846.342	26678
846.478	25171
846.614	23866
846.75	22965
846.886	22592
847.022	22306
847.158	22090
847.294	21949
847.429	21972
847.565	21888
847.701	21979
847.837	21572
847.972	21545
848.108	21526
848.244	21439
848.379	21283
848.515	21226
848.65	21218
848.786	21199
848.921	21188
849.057	21344
849.192	21416
849.328	21195
849.463	21214
849.598	21207
849.734	21093
849.869	21108
850.004	21047
850.14	20891
850.275	20994
850.41	20872
850.545	20948
850.68	20845
850.815	20876
850.95	20975
851.085	21123
851.22	21005
851.355	20883
851.49	20883
851.625	20944
851.76	20933
851.895	20724
852.03	20708
852.165	20941
852.299	20929
852.434	20982
852.569	21039
852.703	20944
852.838	20876
852.973	20910
853.107	20967
853.242	20853
853.376	20823
853.511	20613
853.645	20796
853.78	20986
853.914	20864
854.048	20682
854.183	20636
854.317	20811
854.451	21039
854.585	20765
854.72	20815
854.854	20956
854.988	20632
855.122	20853
855.256	20731
855.39	20777
855.524	20853
855.658	20765
855.792	20773
855.926	20689
856.06	20754
856.194	20811
856.327	20735
856.461	20705
856.595	20659
856.729	20708
856.862	20807
856.996	20678
857.13	20651
857.263	20762
857.397	20735
857.53	20678
857.664	20743
857.797	20686
857.931	20849
858.064	20701
858.197	20727
858.331	20621
858.464	20484
858.597	20495
858.731	20625
858.864	20667
858.997	20667
859.13	20659
859.263	20598
859.396	20644
859.529	20632
859.662	20571
859.795	20552
859.928	20693
860.061	20727
860.194	20773
860.327	20602
860.46	20568
860.592	20644
860.725	20891
860.858	20716
860.99	20484
861.123	20579
861.256	20492
861.388	20564
861.521	21180
861.653	20518
861.786	20484
861.918	20412
862.05	20511
862.183	20587
862.315	20697
862.447	20651
862.58	20613
862.712	20499
862.844	20396
862.976	20560
863.108	20446
863.24	20648
863.372	20347
863.504	20396
863.636	20313
863.768	20332
863.9	20244
864.032	20275
864.164	20206
864.296	20317
864.428	20389
864.559	20309
864.691	20343
864.823	20347
864.954	20286
865.086	20164
865.217	20199
865.349	20088
865.48	20282
865.612	20218
865.743	20427
865.875	20191
866.006	20278
866.137	20225
866.269	20233
866.4	20180
866.531	20103
866.662	20069
866.793	20119
866.924	20008
867.055	20157
867.186	20077
867.317	20096
867.448	19978
867.579	20195
867.71	20107
867.841	19978
867.972	20122
868.103	20122
868.233	20050
868.364	20115
868.495	20172
868.625	20389
868.756	20457
868.886	20218
869.017	20381
869.147	20465
869.278	20374
869.408	20351
869.539	20370
869.669	20374
869.799	20461
869.929	20465
870.06	20480
870.19	20667
870.32	20552
870.45	20727
870.58	20727
870.71	20804
870.84	20845
870.97	20705
871.1	20887
871.23	20887
871.36	20944
871.489	20857
871.619	20842
871.749	20982
871.879	20937
872.008	21039
872.138	20929
872.267	20819
872.397	20971
872.526	20739
872.656	20861
872.785	20781
872.915	20929
873.044	21123
873.173	21009
873.303	20975
873.432	21169
873.561	21131
873.69	21001
873.819	21150
873.948	21195
874.077	20963
874.206	21096
874.335	21028
874.464	21116
874.593	21367
874.722	21275
874.851	21310
874.979	21336
875.108	21340
875.237	21287
875.365	21176
875.494	21245
875.623	21408
875.751	21359
875.88	21530
876.008	21534
876.136	21526
876.265	21732
876.393	21903
876.521	21888
876.65	21968
876.778	21812
876.906	21895
877.034	21857
877.162	21918
877.29	21880
877.418	21907
877.546	21892
877.674	21930
877.802	21945
877.93	21903
878.058	21972
878.185	21934
878.313	21918
878.441	22101
878.568	22059
878.696	22363
878.824	22561
878.951	22763
879.079	23174
879.206	23573
879.333	23939
879.461	24159
879.588	24460
879.715	24563
879.842	24407
879.97	23908
880.097	23269
880.224	22900
880.351	22672
880.478	22519
880.605	22489
880.732	22436
880.859	22580
880.986	22268
881.112	22207
881.239	22150
881.366	22112
881.493	21861
881.619	21934
881.746	21934
881.872	21819
881.999	21755
882.125	21835
882.252	21835
882.378	21842
882.505	22036
882.631	21770
882.757	21690
882.883	21671
883.01	21587
883.136	21652
883.262	21526
883.388	21401
883.514	21709
883.64	21663
883.766	21496
883.892	21485
884.018	21458
884.143	21530
884.269	21682
884.395	21340
884.52	21192
884.646	21245
884.772	21184
884.897	21226
885.023	21302
885.148	21389
885.274	21348
885.399	21268
885.524	21077
885.65	21176
885.775	21161
885.9	21169
886.025	21230
886.15	21146
886.275	21043
886.4	20914
886.525	20952
886.65	20910
886.775	20899
886.9	20963
887.025	21074
887.149	20861
887.274	20655
887.399	20674
887.523	20602
887.648	20568
887.773	20431
887.897	20682
888.021	20594
888.146	20526
888.27	20568
888.395	20571
888.519	20514
888.643	20522
888.767	20469
888.891	20419
889.015	20221
889.139	20294
889.263	20149
889.387	20454
889.511	20438
889.635	20233
889.759	20233
889.883	20122
890.006	20259
890.13	20301
890.254	20214
890.377	20180
890.501	20043
890.624	19982
890.748	20016
890.871	19868
890.995	19830
891.118	19666
891.241	19811
891.364	19662
891.488	19761
891.611	19860
891.734	19757
891.857	19807
891.98	19723
892.103	19776
892.226	19731
892.349	19658
892.471	19502
892.594	19639
892.717	19746
892.839	19567
892.962	19529
893.085	19700
893.207	19609
893.33	19460
893.452	19548
893.575	19647
893.697	19605
893.819	19677
893.941	19807
894.064	19696
894.186	19578
894.308	19464
894.43	19578
894.552	19719
894.674	19597
894.796	19407
894.918	19464
895.04	19392
895.161	19594
895.283	19586
895.405	19510
895.526	19460
895.648	19514
895.769	19510
895.891	19510
896.012	19681
896.134	19620
896.255	19693
896.376	19552
896.498	19575
896.619	19655
896.74	19590
896.861	19518
896.982	19837
897.103	19955
897.224	19776
897.345	19753
897.466	19788
897.587	19700
897.708	19917
897.828	19845
897.949	19693
898.07	19525
898.19	19586
898.311	19784
898.431	19734
898.552	19761
898.672	19795
898.792	19814
898.913	19635
899.033	19666
899.153	19567
899.273	19426
899.393	19415
899.513	19540
899.633	19438
899.753	19388
899.873	19354
899.993	19392
900.113	19331
900.232	19396
900.352	19415
900.472	19426
900.591	19301
900.711	19327
900.83	19171
900.95	19343
901.069	19525
901.189	19244
901.308	19012
901.427	18954
901.546	18973
901.665	18894
901.784	18958
901.904	18749
902.023	18658
902.141	18445
902.26	18551
902.379	18353
902.498	18353
902.617	18281
902.735	18483
902.854	18270
902.973	18232
903.091	17965
903.21	18083
903.328	18079
903.446	17882
903.565	17767
903.683	17809
903.801	17668
903.919	17764
904.038	17764
904.156	17581
904.274	17718
904.392	17539
904.51	17482
904.627	17585
904.745	17539
904.863	17539
904.981	17368
905.098	17212
905.216	17231
905.334	17250
905.451	17269
905.569	17189
905.686	17159
905.803	17174
905.921	16999
906.038	17105
906.155	17003
906.272	16904
906.389	16968
906.506	16748
906.623	16858
906.74	16771
906.857	16687
906.974	16542
907.091	16740
907.208	16809
907.324	16694
907.441	16599
907.557	16436
907.674	16390
907.79	16367
907.907	16341
908.023	16421
908.139	16344
908.256	16295
908.372	16295
908.488	16257
908.604	16196
908.72	16078
908.836	16116
908.952	16074
909.068	16131
909.184	16048
909.3	16002
909.415	16051
909.531	15987
909.647	15766
909.762	15842
909.878	15766
909.993	15850
910.108	15732
910.224	15679
910.339	15629
910.454	15568
910.57	15599
910.685	15549
910.8	15778
910.915	15679
911.03	15530
911.145	15397
911.259	15256
911.374	15313
911.489	15222
911.604	15218
911.718	15119
911.833	15116
911.947	15058
912.062	15001
912.176	15070
912.291	15093
912.405	15051
912.519	15161
912.633	15188
912.748	15055
912.862	15039
912.976	14933
913.09	14849
913.204	14769
913.318	14921
913.431	14975
913.545	14868
913.659	15024
913.772	14849
913.886	14716
914	14693
914.113	14785
914.226	14895
914.34	14826
914.453	14598
914.566	14739
914.68	14667
914.793	14670
914.906	14488
915.019	14419
915.132	14256
915.245	14438
915.358	14377
915.47	14457
915.583	14377
915.696	14385
915.809	14476
915.921	14488
916.034	14301
916.146	14309
916.259	14256
916.371	14355
916.483	14336
916.595	14191
916.708	14221
916.82	14195
916.932	14103
917.044	14103
917.156	14081
917.268	14111
917.38	14111
917.491	14062
917.603	14035
917.715	14065
917.826	14149
917.938	13993
918.049	13902
918.161	14058
918.272	14126
918.384	14180
918.495	14027
918.606	13807
918.717	13750
918.828	13788
918.939	13849
919.05	13738
919.161	13689
919.272	13586
919.383	13491
919.494	13811
919.604	13917
919.715	13784
919.826	13677
919.936	13662
920.047	13833
920.157	13639
920.267	13909
920.378	13742
920.488	13738
920.598	13932
920.708	13997
920.818	13803
920.928	13784
921.038	14008
921.148	14024
921.258	13609
921.368	13601
921.477	13468
921.587	13400
921.697	13373
921.806	13529
921.916	13259
922.025	13129
922.134	13133
922.244	13072
922.353	13171
922.462	12981
922.571	12932
922.68	12806
922.789	12757
922.898	12783
923.007	12745
923.116	12779
923.224	12772
923.333	12738
923.442	12642
923.55	12616
923.659	12658
923.767	12692
923.876	12608
923.984	12662
924.092	12547
924.201	12551
924.309	12570
924.417	12544
924.525	12452
924.633	12426
924.741	13301
924.849	12365
924.956	12479
925.064	12247
925.172	12087
925.279	12205
925.387	12197
925.494	12281
925.602	12369
925.709	12277
925.816	12140
925.924	12152
926.031	12243
926.138	12186
926.245	12197
926.352	12083
926.459	12258
926.566	12270
926.673	12106
926.779	11999
926.886	12003
926.993	11912
927.099	11843
927.206	11824
927.312	11737
927.419	11798
927.525	11775
927.631	11809
927.737	11638
927.843	11695
927.95	11547
928.056	11661
928.162	11611
928.267	11619
928.373	12182
928.479	11695
928.585	11512
928.69	11581
928.796	11657
928.901	11471
929.007	11307
929.112	11524
929.218	11532
929.323	11436
929.428	11330
929.533	11467
929.638	11364
929.743	11368
929.848	11349
929.953	11334
930.058	11216
930.163	11052
930.267	11098
930.372	11197
930.477	11010
930.581	11178
930.685	11140
930.79	10976
930.894	10877
930.998	10953
931.103	11052
931.207	10694
931.311	10672
931.415	10626
931.519	10352
931.623	10394
