Data from test_V78500241_227.txt Node
Date: Fri Mar 25 14:35:18 CST 2022
User: usil
Spectrometer: V785-0024
Trigger mode: 0
Integration Time (sec): 4.000000E-1
Scans to average: 1
Nonlinearity correction enabled: false
Boxcar width: 0
Storing dark spectrum: false
XAxis mode: Wavelengths
Number of Pixels in Spectrum: 1024
>>>>>Begin Spectral Data<<<<<
801.071	27679
801.214	27709
801.356	27485
801.499	27408
801.641	27222
801.783	27047
801.926	27188
802.068	27157
802.211	26933
802.353	26872
802.496	26746
802.638	26765
802.78	26727
802.923	26632
803.065	26415
803.208	26678
803.35	26579
803.492	26712
803.635	26823
803.777	26670
803.919	26788
804.061	27013
804.204	26670
804.346	26579
804.488	26659
804.63	26613
804.773	26488
804.915	26670
805.057	26640
805.199	26689
805.341	26655
805.483	26834
805.626	26746
805.768	26682
805.91	26678
806.052	26636
806.194	26716
806.336	26773
806.478	26811
806.62	26686
806.762	26963
806.904	26895
807.046	27135
807.188	27157
807.33	27066
807.472	27112
807.614	26956
807.756	27199
807.898	27058
808.04	26902
808.182	27085
808.324	27058
808.465	27020
808.607	27393
808.749	27485
808.891	27591
809.033	27690
809.174	27622
809.316	27553
809.458	27534
809.6	27492
809.741	27336
809.883	27424
810.025	27435
810.166	27587
810.308	27427
810.45	27469
810.591	27283
810.733	27066
810.875	27283
811.016	27047
811.158	27039
811.299	27127
811.441	27188
811.582	27226
811.724	27096
811.865	27096
812.007	27188
812.148	27070
812.29	27123
812.431	27211
812.573	27340
812.714	27443
812.855	27530
812.997	27580
813.138	27876
813.279	27576
813.421	27732
813.562	27511
813.703	27211
813.845	27233
813.986	26979
814.127	26872
814.268	26705
814.41	26640
814.551	26682
814.692	26651
814.833	26613
814.974	26636
815.115	26598
815.256	26434
815.397	26495
815.539	26533
815.68	26404
815.821	26317
815.962	26415
816.103	26412
816.244	26130
816.385	26088
816.526	26024
816.666	25906
816.807	25784
816.948	25826
817.089	25860
817.23	25898
817.371	25803
817.512	25651
817.653	25666
817.793	25677
817.934	25780
818.075	25830
818.216	25772
818.356	25616
818.497	25594
818.638	25285
818.778	25510
818.919	25255
819.06	25426
819.2	25609
819.341	25674
819.481	25552
819.622	25746
819.762	25883
819.903	25925
820.043	25837
820.184	25765
820.324	25571
820.465	25620
820.605	25693
820.746	25750
820.886	25521
821.026	25727
821.167	25708
821.307	25791
821.447	25559
821.588	25495
821.728	25331
821.868	25122
822.008	25152
822.149	25107
822.289	25027
822.429	24791
822.569	24707
822.709	24623
822.849	24445
822.99	24486
823.13	24395
823.27	24502
823.41	24369
823.55	24174
823.69	24281
823.83	24319
823.97	24232
824.11	24129
824.25	24098
824.389	24095
824.529	24152
824.669	24133
824.809	24163
824.949	24072
825.089	24068
825.228	24038
825.368	23904
825.508	23889
825.648	23874
825.787	23977
825.927	24018
826.067	23805
826.206	23863
826.346	23828
826.485	23912
826.625	23783
826.765	24007
826.904	24034
827.044	23718
827.183	23672
827.323	23661
827.462	23611
827.601	23486
827.741	23444
827.88	23585
828.02	23398
828.159	23467
828.298	23547
828.437	23528
828.577	23417
828.716	23573
828.855	23425
828.994	23216
829.134	23239
829.273	23364
829.412	23136
829.551	23102
829.69	23288
829.829	23105
829.968	23261
830.107	23311
830.246	23315
830.385	23075
830.524	23181
830.663	23037
830.802	22881
830.941	22797
831.08	22858
831.219	22812
831.357	22672
831.496	22919
831.635	22774
831.774	22637
831.913	22645
832.051	22626
832.19	22512
832.329	22683
832.467	22478
832.606	22497
832.744	22417
832.883	22462
833.022	22440
833.16	22314
833.299	22443
833.437	22386
833.576	22485
833.714	22436
833.852	22519
833.991	22481
834.129	22592
834.267	22554
834.406	22493
834.544	22405
834.682	22287
834.821	22424
834.959	22641
835.097	22405
835.235	22398
835.373	22481
835.511	22455
835.65	22185
835.788	22204
835.926	22158
836.064	22074
836.202	22124
836.34	22310
836.478	22310
836.615	22143
836.753	22204
836.891	22367
837.029	22291
837.167	22207
837.305	22090
837.443	22188
837.58	22055
837.718	22067
837.856	22143
837.993	22048
838.131	21998
838.269	22036
838.406	22013
838.544	21915
838.681	21762
838.819	21633
838.956	21485
839.094	21583
839.231	21622
839.369	21622
839.506	21911
839.643	21781
839.781	21580
839.918	21466
840.055	21580
840.193	21564
840.33	21488
840.467	21420
840.604	21507
840.742	21519
840.879	21272
841.016	21310
841.153	21321
841.29	21504
841.427	21462
841.564	21420
841.701	21447
841.838	21344
841.975	21321
842.112	21287
842.249	21283
842.385	21249
842.522	21359
842.659	21233
842.796	21081
842.933	21135
843.069	20990
843.206	21077
843.343	21096
843.479	21150
843.616	21154
843.752	20842
843.889	20887
844.025	20971
844.162	20937
844.298	20941
844.435	20804
844.571	20785
844.708	20895
844.844	21123
844.98	20967
845.117	21047
845.253	20891
845.389	20834
845.525	20933
845.661	20944
845.798	20967
845.934	21127
846.07	21116
846.206	20944
846.342	21047
846.478	20785
846.614	20522
846.75	20549
846.886	20499
847.022	20377
847.158	20263
847.294	20294
847.429	20343
847.565	20278
847.701	20511
847.837	20016
847.972	19997
848.108	20256
848.244	20043
848.379	19982
848.515	19883
848.65	19738
848.786	19811
848.921	19894
849.057	19970
849.192	19898
849.328	20020
849.463	19970
849.598	19879
849.734	19681
849.869	19635
850.004	19635
850.14	19670
850.275	19639
850.41	19613
850.545	19712
850.68	19655
850.815	19616
850.95	19529
851.085	19742
851.22	19784
851.355	19674
851.49	19594
851.625	19582
851.76	19548
851.895	19449
852.03	19434
852.165	19681
852.299	19658
852.434	19639
852.569	19590
852.703	19533
852.838	19677
852.973	19772
853.107	19666
853.242	19533
853.376	19453
853.511	19251
853.645	19312
853.78	19510
853.914	19506
854.048	19434
854.183	19407
854.317	19552
854.451	19594
854.585	19411
854.72	19392
854.854	19537
854.988	19369
855.122	19301
855.256	19339
855.39	19419
855.524	19324
855.658	19468
855.792	19453
855.926	19422
856.06	19403
856.194	19441
856.327	19396
856.461	19400
856.595	19289
856.729	19400
856.862	19472
856.996	19460
857.13	19419
857.263	19518
857.397	19544
857.53	19350
857.664	19464
857.797	19468
857.931	19487
858.064	19316
858.197	19403
858.331	19301
858.464	19228
858.597	19320
858.731	19316
858.864	19358
858.997	19270
859.13	19251
859.263	19274
859.396	19388
859.529	19308
859.662	19312
859.795	19289
859.928	19308
860.061	19460
860.194	19502
860.327	19251
860.46	19468
860.592	19350
860.725	19426
860.858	19373
860.99	19365
861.123	19274
861.256	19225
861.388	19278
861.521	19989
861.653	19187
861.786	19137
861.918	19240
862.05	19228
862.183	19350
862.315	19362
862.447	19392
862.58	19327
862.712	19126
862.844	18954
862.976	19236
863.108	19095
863.24	19438
863.372	19107
863.504	19088
863.636	19012
863.768	19209
863.9	19091
864.032	19038
864.164	18901
864.296	19050
864.428	19118
864.559	19206
864.691	19141
864.823	19110
864.954	19034
865.086	19103
865.217	19019
865.349	18825
865.48	18924
865.612	19015
865.743	18981
865.875	18962
866.006	18951
866.137	19000
866.269	18973
866.4	18977
866.531	18916
866.662	18886
866.793	18867
866.924	18882
867.055	18928
867.186	18798
867.317	18829
867.448	18871
867.579	18977
867.71	18916
867.841	18821
867.972	18871
868.103	18844
868.233	18916
868.364	18840
868.495	18993
868.625	19107
868.756	19141
868.886	19050
869.017	19038
869.147	19168
869.278	19331
869.408	19164
869.539	19069
869.669	19164
869.799	19027
869.929	19183
870.06	19122
870.19	19350
870.32	19343
870.45	19582
870.58	19510
870.71	19597
870.84	19670
870.97	19529
871.1	19480
871.23	19689
871.36	19704
871.489	19586
871.619	19548
871.749	19708
871.879	19742
872.008	19830
872.138	19734
872.267	19712
872.397	19647
872.526	19502
872.656	19525
872.785	19521
872.915	19803
873.044	19811
873.173	19765
873.303	19750
873.432	19715
873.561	19917
873.69	19807
873.819	19746
873.948	19811
874.077	19734
874.206	19750
874.335	19780
874.464	19906
874.593	19940
874.722	20035
874.851	20058
874.979	19947
875.108	20058
875.237	20062
875.365	19989
875.494	19940
875.623	20062
875.751	20069
875.88	20077
876.008	20214
876.136	20164
876.265	20438
876.393	20476
876.521	20492
876.65	20507
876.778	20400
876.906	20252
877.034	20214
877.162	20385
877.29	20252
877.418	20419
877.546	20366
877.674	20503
877.802	20431
877.93	20393
878.058	20355
878.185	20275
878.313	20442
878.441	20511
878.568	20343
878.696	20278
878.824	20385
878.951	20545
879.079	20716
879.206	20720
879.333	20651
879.461	20785
879.588	20800
879.715	20754
879.842	20967
879.97	20640
880.097	20495
880.224	20408
880.351	20301
880.478	20290
880.605	20298
880.732	20389
880.859	20533
880.986	20431
881.112	20419
881.239	20069
881.366	20088
881.493	20012
881.619	19856
881.746	20005
881.872	19871
881.999	19955
882.125	19803
882.252	19875
882.378	19807
882.505	19978
882.631	19852
882.757	19712
882.883	19734
883.01	19616
883.136	19578
883.262	19594
883.388	19518
883.514	19742
883.64	19567
883.766	19559
883.892	19411
884.018	19529
884.143	19651
884.269	19540
884.395	19392
884.52	19422
884.646	19468
884.772	19190
884.897	19293
885.023	19327
885.148	19365
885.274	19419
885.399	19396
885.524	19270
885.65	19327
885.775	19266
885.9	19278
886.025	19373
886.15	19285
886.275	19316
886.4	19240
886.525	19228
886.65	19080
886.775	19202
886.9	19324
887.025	19510
887.149	19228
887.274	19084
887.399	19065
887.523	19065
887.648	18970
887.773	18954
887.897	19179
888.021	19076
888.146	19042
888.27	18970
888.395	19095
888.519	18970
888.643	18970
888.767	19084
888.891	18943
889.015	18711
889.139	18920
889.263	18863
889.387	18916
889.511	19031
889.635	18909
889.759	18738
889.883	18817
890.006	18795
890.13	18867
890.254	18741
890.377	18795
890.501	18566
890.624	18563
890.748	18551
890.871	18433
890.995	18502
891.118	18258
891.241	18346
891.364	18456
891.488	18525
891.611	18475
891.734	18418
891.857	18604
891.98	18441
892.103	18483
892.226	18414
892.349	18338
892.471	18270
892.594	18338
892.717	18300
892.839	18311
892.962	18353
893.085	18471
893.207	18403
893.33	18174
893.452	18304
893.575	18399
893.697	18300
893.819	18448
893.941	18593
894.064	18490
894.186	18361
894.308	18334
894.43	18563
894.552	18525
894.674	18426
894.796	18334
894.918	18273
895.04	18399
895.161	18433
895.283	18407
895.405	18380
895.526	18399
895.648	18369
895.769	18414
895.891	18315
896.012	18380
896.134	18475
896.255	18445
896.376	18323
896.498	18311
896.619	18384
896.74	18494
896.861	18506
896.982	18753
897.103	18916
897.224	18745
897.345	18661
897.466	18574
897.587	18661
897.708	18749
897.828	18661
897.949	18654
898.07	18540
898.19	18681
898.311	18768
898.431	18711
898.552	18547
898.672	18677
898.792	18684
898.913	18513
899.033	18509
899.153	18388
899.273	18304
899.393	18281
899.513	18346
899.633	18403
899.753	18357
899.873	18304
899.993	18399
900.113	18342
900.232	18353
900.352	18429
900.472	18334
900.591	18213
900.711	18315
900.83	18129
900.95	18369
901.069	18338
901.189	18110
901.308	17885
901.427	17897
901.546	17832
901.665	17916
901.784	17733
901.904	17668
902.023	17653
902.141	17493
902.26	17410
902.379	17417
902.498	17376
902.617	17318
902.735	17387
902.854	17364
902.973	17299
903.091	17006
903.21	16987
903.328	16991
903.446	16953
903.565	16824
903.683	16797
903.801	16675
903.919	16877
904.038	16843
904.156	16656
904.274	16748
904.392	16584
904.51	16607
904.627	16577
904.745	16577
904.863	16721
904.981	16291
905.098	16322
905.216	16246
905.334	16204
905.451	16322
905.569	16143
905.686	16341
905.803	16341
905.921	16048
906.038	16093
906.155	16013
906.272	15922
906.389	16017
906.506	15720
906.623	15880
906.74	15797
906.857	15667
906.974	15641
907.091	15831
907.208	15907
907.324	15873
907.441	15717
907.557	15526
907.674	15515
907.79	15496
907.907	15466
908.023	15492
908.139	15564
908.256	15416
908.372	15340
908.488	15329
908.604	15252
908.72	15138
908.836	15169
908.952	15150
909.068	15104
909.184	15313
909.3	15047
909.415	15173
909.531	15119
909.647	14971
909.762	14842
909.878	15001
909.993	14864
910.108	14857
910.224	14906
910.339	14933
910.454	14800
910.57	14701
910.685	14632
910.8	14937
910.915	14807
911.03	14712
911.145	14568
911.259	14556
911.374	14480
911.489	14438
911.604	14336
911.718	14298
911.833	14237
911.947	14168
912.062	14081
912.176	14298
912.291	14290
912.405	14263
912.519	14492
912.633	14358
912.748	14240
912.862	14214
912.976	14130
913.09	13967
913.204	14024
913.318	14100
913.431	14123
913.545	14126
913.659	14229
913.772	14134
913.886	13940
914	13826
914.113	14008
914.226	14024
914.34	14005
914.453	13856
914.566	13879
914.68	13765
914.793	13818
914.906	13529
915.019	13563
915.132	13483
915.245	13575
915.358	13518
915.47	13552
915.583	13529
915.696	13609
915.809	13666
915.921	13772
916.034	13449
916.146	13556
916.259	13407
916.371	13537
916.483	13563
916.595	13472
916.708	13537
916.82	13407
916.932	13422
917.044	13369
917.156	13419
917.268	13259
917.38	13259
917.491	13255
917.603	13343
917.715	13365
917.826	13301
917.938	13278
918.049	13122
918.161	13293
918.272	13343
918.384	13373
918.495	13213
918.606	13118
918.717	12916
918.828	13091
918.939	13133
919.05	12943
919.161	13061
919.272	12844
919.383	12859
919.494	13095
919.604	13209
919.715	12913
919.826	12897
919.936	12943
920.047	13031
920.157	13034
920.267	13187
920.378	13042
920.488	13012
920.598	13160
920.708	13247
920.818	13118
920.928	13110
921.038	13255
921.148	13255
921.258	13012
921.368	12897
921.477	12802
921.587	12757
921.697	12559
921.806	12776
921.916	12658
922.025	12441
922.134	12342
922.244	12346
922.353	12490
922.462	12380
922.571	12228
922.68	12117
922.789	12022
922.898	12129
923.007	12011
923.116	12182
923.224	12068
923.333	12026
923.442	11908
923.55	11992
923.659	11950
923.767	12083
923.876	11878
923.984	12019
924.092	11813
924.201	11847
924.309	11821
924.417	11855
924.525	11832
924.633	11786
924.741	12707
924.849	11581
924.956	11729
925.064	11672
925.172	11532
925.279	11596
925.387	11570
925.494	11570
925.602	11707
925.709	11608
925.816	11543
925.924	11543
926.031	11714
926.138	11558
926.245	11604
926.352	11463
926.459	11535
926.566	11615
926.673	11474
926.779	11341
926.886	11398
926.993	11288
927.099	11204
927.206	11170
927.312	11159
927.419	11185
927.525	11174
927.631	11265
927.737	11105
927.843	10999
927.95	10953
928.056	11018
928.162	11056
928.267	11117
928.373	11554
928.479	11117
928.585	10896
928.69	10965
928.796	10976
928.901	10904
929.007	10843
929.112	10885
929.218	10854
929.323	10820
929.428	10714
929.533	10866
929.638	10687
929.743	10748
929.848	10748
929.953	10782
930.058	10615
930.163	10527
930.267	10531
930.372	10596
930.477	10561
930.581	10687
930.685	10626
930.79	10375
930.894	10474
930.998	10405
931.103	10455
931.207	10128
931.311	10192
931.415	9968
931.519	9724
931.623	9793
