Data from test_V78500241_1609.txt Node
Date: Fri Mar 25 14:44:55 CST 2022
User: usil
Spectrometer: V785-0024
Trigger mode: 0
Integration Time (sec): 4.000000E-1
Scans to average: 1
Nonlinearity correction enabled: false
Boxcar width: 0
Storing dark spectrum: false
XAxis mode: Wavelengths
Number of Pixels in Spectrum: 1024
>>>>>Begin Spectral Data<<<<<
801.071	22341
801.214	22284
801.356	21960
801.499	21857
801.641	21679
801.783	21675
801.926	21694
802.068	21717
802.211	21679
802.353	21530
802.496	21355
802.638	21154
802.78	21195
802.923	21161
803.065	21001
803.208	21009
803.35	21047
803.492	21252
803.635	21161
803.777	21009
803.919	21013
804.061	21424
804.204	21131
804.346	21036
804.488	21028
804.63	21047
804.773	20785
804.915	21138
805.057	21112
805.199	21024
805.341	21074
805.483	21195
805.626	20994
805.768	20899
805.91	21043
806.052	21005
806.194	20891
806.336	21127
806.478	20944
806.62	20933
806.762	21058
806.904	21154
807.046	21332
807.188	21332
807.33	21298
807.472	21443
807.614	21351
807.756	21310
807.898	21192
808.04	21089
808.182	21173
808.324	21123
808.465	21127
808.607	21447
808.749	21401
808.891	21545
809.033	21641
809.174	21542
809.316	21435
809.458	21435
809.6	21439
809.741	21511
809.883	21443
810.025	21496
810.166	21633
810.308	21507
810.45	21553
810.591	21435
810.733	21192
810.875	21207
811.016	21104
811.158	21043
811.299	21237
811.441	21230
811.582	21279
811.724	21237
811.865	21173
812.007	21146
812.148	21157
812.29	21222
812.431	21370
812.573	21488
812.714	21595
812.855	21648
812.997	21720
813.138	21812
813.279	21732
813.421	21831
813.562	21580
813.703	21382
813.845	21268
813.986	21169
814.127	20872
814.268	20826
814.41	20758
814.551	20735
814.692	20861
814.833	20651
814.974	20537
815.115	20864
815.256	20564
815.397	20457
815.539	20598
815.68	20503
815.821	20415
815.962	20332
816.103	20347
816.244	20214
816.385	20225
816.526	20164
816.666	19963
816.807	19761
816.948	19894
817.089	19978
817.23	19928
817.371	19734
817.512	19875
817.653	19860
817.793	19845
817.934	19864
818.075	19875
818.216	19879
818.356	19811
818.497	19769
818.638	19464
818.778	19578
818.919	19506
819.06	19483
819.2	19681
819.341	19784
819.481	19639
819.622	19894
819.762	20119
819.903	19925
820.043	19887
820.184	19871
820.324	19864
820.465	19959
820.605	19852
820.746	19898
820.886	19681
821.026	19864
821.167	19727
821.307	19868
821.447	19719
821.588	19578
821.728	19506
821.868	19396
822.008	19228
822.149	19225
822.289	19160
822.429	19012
822.569	18894
822.709	18886
822.849	18681
822.99	18734
823.13	18772
823.27	18715
823.41	18479
823.55	18437
823.69	18585
823.83	18490
823.97	18372
824.11	18289
824.25	18266
824.389	18311
824.529	18464
824.669	18486
824.809	18388
824.949	18372
825.089	18308
825.228	18228
825.368	18129
825.508	18102
825.648	18148
825.787	18049
825.927	18129
826.067	18106
826.206	18121
826.346	18064
826.485	18106
826.625	18038
826.765	18167
826.904	18110
827.044	17745
827.183	17855
827.323	17699
827.462	17901
827.601	17646
827.741	17729
827.88	17748
828.02	17630
828.159	17783
828.298	17824
828.437	17840
828.577	17748
828.716	17821
828.855	17642
828.994	17459
829.134	17573
829.273	17573
829.412	17368
829.551	17497
829.69	17448
829.829	17535
829.968	17562
830.107	17558
830.246	17619
830.385	17478
830.524	17292
830.663	17436
830.802	17231
830.941	17174
831.08	17143
831.219	17208
831.357	17143
831.496	17322
831.635	17189
831.774	16991
831.913	16934
832.051	16892
832.19	16873
832.329	16987
832.467	16835
832.606	16763
832.744	16744
832.883	16866
833.022	16710
833.16	16672
833.299	16820
833.437	16889
833.576	16831
833.714	16831
833.852	16873
833.991	16923
834.129	16831
834.267	16965
834.406	16790
834.544	16869
834.682	16809
834.821	16892
834.959	17010
835.097	16755
835.235	16942
835.373	16790
835.511	16835
835.65	16793
835.788	16782
835.926	16653
836.064	16497
836.202	16645
836.34	16816
836.478	16767
836.615	16615
836.753	16752
836.891	16942
837.029	16839
837.167	16748
837.305	16592
837.443	16577
837.58	16466
837.718	16630
837.856	16672
837.993	16554
838.131	16615
838.269	16565
838.406	16531
838.544	16459
838.681	16223
838.819	16230
838.956	16188
839.094	16147
839.231	16234
839.369	16303
839.506	16394
839.643	16360
839.781	16101
839.918	16147
840.055	16246
840.193	16059
840.33	16116
840.467	16071
840.604	16139
840.742	16337
840.879	16059
841.016	16063
841.153	16071
841.29	16211
841.427	16158
841.564	16116
841.701	16173
841.838	16097
841.975	16074
842.112	16135
842.249	15819
842.385	15975
842.522	16059
842.659	15911
842.796	15869
842.933	15899
843.069	15945
843.206	15937
843.343	16006
843.479	15953
843.616	15892
843.752	15679
843.889	15823
844.025	15838
844.162	15690
844.298	15846
844.435	15743
844.571	15595
844.708	15701
844.844	15865
844.98	15903
845.117	15949
845.253	15762
845.389	15625
845.525	15705
845.661	15660
845.798	15545
845.934	15595
846.07	15603
846.206	15713
846.342	15690
846.478	15542
846.614	15336
846.75	15237
846.886	15363
847.022	15298
847.158	15298
847.294	15211
847.429	15264
847.565	15359
847.701	15466
847.837	15165
847.972	14910
848.108	15085
848.244	15100
848.379	14975
848.515	14845
848.65	14861
848.786	14838
848.921	14830
849.057	14975
849.192	14971
849.328	14891
849.463	14880
849.598	14876
849.734	14853
849.869	14689
850.004	14644
850.14	14682
850.275	14613
850.41	14583
850.545	14617
850.68	14659
850.815	14503
850.95	14579
851.085	14800
851.22	14781
851.355	14655
851.49	14632
851.625	14617
851.76	14598
851.895	14488
852.03	14503
852.165	14697
852.299	14613
852.434	14731
852.569	14613
852.703	14625
852.838	14731
852.973	14826
853.107	14765
853.242	14541
853.376	14541
853.511	14396
853.645	14503
853.78	14590
853.914	14556
854.048	14461
854.183	14457
854.317	14587
854.451	14689
854.585	14412
854.72	14404
854.854	14526
854.988	14351
855.122	14484
855.256	14419
855.39	14488
855.524	14575
855.658	14526
855.792	14507
855.926	14564
856.06	14564
856.194	14571
856.327	14511
856.461	14492
856.595	14446
856.729	14518
856.862	14545
856.996	14431
857.13	14613
857.263	14530
857.397	14541
857.53	14541
857.664	14545
857.797	14476
857.931	14613
858.064	14552
858.197	14655
858.331	14438
858.464	14377
858.597	14377
858.731	14526
858.864	14408
858.997	14412
859.13	14484
859.263	14457
859.396	14545
859.529	14476
859.662	14469
859.795	14423
859.928	14488
860.061	14568
860.194	14667
860.327	14511
860.46	14446
860.592	14632
860.725	14613
860.858	14583
860.99	14465
861.123	14446
861.256	14385
861.388	14476
861.521	15382
861.653	14427
861.786	14351
861.918	14370
862.05	14415
862.183	14393
862.315	14518
862.447	14503
862.58	14408
862.712	14309
862.844	14244
862.976	14263
863.108	14267
863.24	14739
863.372	14195
863.504	14229
863.636	14180
863.768	14202
863.9	14309
864.032	14180
864.164	14290
864.296	14351
864.428	14404
864.559	14358
864.691	14450
864.823	14275
864.954	14282
865.086	14221
865.217	14286
865.349	14324
865.48	14221
865.612	14199
865.743	14415
865.875	14187
866.006	14267
866.137	14157
866.269	14374
866.4	14229
866.531	14252
866.662	14123
866.793	14210
866.924	14168
867.055	14328
867.186	14240
867.317	14252
867.448	14172
867.579	14271
867.71	14134
867.841	14138
867.972	14225
868.103	14225
868.233	14240
868.364	14229
868.495	14259
868.625	14423
868.756	14598
868.886	14385
869.017	14442
869.147	14587
869.278	14686
869.408	14473
869.539	14423
869.669	14514
869.799	14514
869.929	14701
870.06	14594
870.19	14849
870.32	14746
870.45	14830
870.58	14895
870.71	15013
870.84	14956
870.97	14819
871.1	14857
871.23	15077
871.36	15138
871.489	14979
871.619	15135
871.749	15062
871.879	15150
872.008	15165
872.138	15085
872.267	15135
872.397	14944
872.526	14887
872.656	14941
872.785	14952
872.915	15116
873.044	15252
873.173	15081
873.303	15173
873.432	15188
873.561	15180
873.69	15112
873.819	15146
873.948	15154
874.077	15203
874.206	15169
874.335	15211
874.464	15397
874.593	15466
874.722	15340
874.851	15428
874.979	15469
875.108	15576
875.237	15317
875.365	15378
875.494	15363
875.623	15515
875.751	15477
875.88	15526
876.008	15713
876.136	15663
876.265	15884
876.393	16116
876.521	15911
876.65	16013
876.778	15823
876.906	15865
877.034	15778
877.162	15876
877.29	15736
877.418	15895
877.546	15819
877.674	15831
877.802	15854
877.93	15774
878.058	15622
878.185	15682
878.313	15861
878.441	15850
878.568	15732
878.696	15915
878.824	15831
878.951	15968
879.079	16063
879.206	16211
879.333	15983
879.461	15895
879.588	15960
879.715	16086
879.842	16173
879.97	16048
880.097	15759
880.224	15808
880.351	15739
880.478	15728
880.605	15694
880.732	15778
880.859	15892
880.986	15804
881.112	15739
881.239	15519
881.366	15397
881.493	15500
881.619	15306
881.746	15447
881.872	15370
881.999	15321
882.125	15279
882.252	15454
882.378	15336
882.505	15576
882.631	15268
882.757	15154
882.883	15302
883.01	15157
883.136	15138
883.262	15043
883.388	15047
883.514	15241
883.64	15245
883.766	15127
883.892	15009
884.018	15032
884.143	15173
884.269	15249
884.395	15009
884.52	14785
884.646	14899
884.772	14830
884.897	14788
885.023	14861
885.148	15077
885.274	15047
885.399	14937
885.524	14800
885.65	14952
885.775	14982
885.9	14929
886.025	14971
886.15	14883
886.275	14800
886.4	14765
886.525	14815
886.65	14769
886.775	14826
886.9	15028
887.025	15135
887.149	14842
887.274	14815
887.399	14667
887.523	14708
887.648	14632
887.773	14560
887.897	14823
888.021	14724
888.146	14625
888.27	14845
888.395	14777
888.519	14708
888.643	14712
888.767	14693
888.891	14640
889.015	14530
889.139	14636
889.263	14617
889.387	14659
889.511	14731
889.635	14632
889.759	14583
889.883	14473
890.006	14541
890.13	14659
890.254	14541
890.377	14549
890.501	14332
890.624	14343
890.748	14434
890.871	14221
890.995	14210
891.118	14138
891.241	14195
891.364	14214
891.488	14317
891.611	14271
891.734	14267
891.857	14320
891.98	14229
892.103	14324
892.226	14229
892.349	14282
892.471	14172
892.594	14252
892.717	14229
892.839	14225
892.962	14259
893.085	14328
893.207	14233
893.33	14191
893.452	14088
893.575	14355
893.697	14187
893.819	14374
893.941	14503
894.064	14408
894.186	14191
894.308	14202
894.43	14393
894.552	14503
894.674	14393
894.796	14263
894.918	14248
895.04	14256
895.161	14419
895.283	14412
895.405	14320
895.526	14415
895.648	14374
895.769	14499
895.891	14537
896.012	14476
896.134	14469
896.255	14393
896.376	14351
896.498	14351
896.619	14450
896.74	14366
896.861	14522
896.982	14727
897.103	14891
897.224	14712
897.345	14689
897.466	14678
897.587	14678
897.708	14918
897.828	14735
897.949	14621
898.07	14541
898.19	14655
898.311	14838
898.431	14724
898.552	14670
898.672	14792
898.792	14807
898.913	14796
899.033	14617
899.153	14632
899.273	14571
899.393	14560
899.513	14613
899.633	14629
899.753	14636
899.873	14579
899.993	14750
900.113	14686
900.232	14632
900.352	14613
900.472	14526
900.591	14484
900.711	14507
900.83	14454
900.95	14655
901.069	14514
901.189	14476
901.308	14317
901.427	14218
901.546	14187
901.665	14259
901.784	14225
901.904	14020
902.023	13890
902.141	13871
902.26	13791
902.379	13814
902.498	13674
902.617	13651
902.735	13769
902.854	13738
902.973	13685
903.091	13472
903.21	13464
903.328	13438
903.446	13445
903.565	13422
903.683	13304
903.801	13221
903.919	13251
904.038	13171
904.156	13122
904.274	13259
904.392	13156
904.51	13145
904.627	13141
904.745	13194
904.863	13137
904.981	12878
905.098	12852
905.216	12882
905.334	12920
905.451	12741
905.569	12787
905.686	12878
905.803	12806
905.921	12673
906.038	12654
906.155	12654
906.272	12464
906.389	12563
906.506	12429
906.623	12418
906.74	12346
906.857	12281
906.974	12296
907.091	12471
907.208	12494
907.324	12384
907.441	12365
907.557	12144
907.674	12140
907.79	12133
907.907	12095
908.023	12167
908.139	12159
908.256	12049
908.372	12091
908.488	12019
908.604	11935
908.72	11866
908.836	11851
908.952	11809
909.068	11847
909.184	11977
909.3	11901
909.415	11950
909.531	11885
909.647	11691
909.762	11707
909.878	11646
909.993	11733
910.108	11619
910.224	11600
910.339	11619
910.454	11554
910.57	11573
910.685	11383
910.8	11722
910.915	11680
911.03	11596
911.145	11372
911.259	11387
911.374	11372
911.489	11356
911.604	11208
911.718	11060
911.833	11090
911.947	11067
912.062	10995
912.176	11086
912.291	11064
912.405	11178
912.519	11307
912.633	11349
912.748	11235
912.862	11102
912.976	11003
913.09	10889
913.204	10919
913.318	11064
913.431	11105
913.545	11071
913.659	11071
913.772	11014
913.886	10797
914	10889
914.113	10923
914.226	11022
914.34	11022
914.453	10911
914.566	10923
914.68	10767
914.793	10885
914.906	10679
915.019	10565
915.132	10573
915.245	10599
915.358	10649
915.47	10702
915.583	10656
915.696	10672
915.809	10782
915.921	10664
916.034	10645
916.146	10596
916.259	10584
916.371	10687
916.483	10599
916.595	10417
916.708	10550
916.82	10546
916.932	10485
917.044	10546
917.156	10558
917.268	10390
917.38	10474
917.491	10409
917.603	10459
917.715	10592
917.826	10508
917.938	10402
918.049	10325
918.161	10436
918.272	10634
918.384	10500
918.495	10455
918.606	10314
918.717	10200
918.828	10314
918.939	10398
919.05	10215
919.161	10249
919.272	10173
919.383	10204
919.494	10318
919.604	10615
919.715	10284
919.826	10306
919.936	10341
920.047	10405
920.157	10322
920.267	10546
920.378	10310
920.488	10344
920.598	10500
920.708	10694
920.818	10493
920.928	10535
921.038	10630
921.148	10580
921.258	10360
921.368	10322
921.477	10112
921.587	10200
921.697	10093
921.806	10280
921.916	10063
922.025	9869
922.134	9903
922.244	9903
922.353	9926
922.462	9861
922.571	9614
922.68	9633
922.789	9625
922.898	9660
923.007	9538
923.116	9671
923.224	9553
923.333	9587
923.442	9485
923.55	9469
923.659	9477
923.767	9496
923.876	9439
923.984	9530
924.092	9382
924.201	9477
924.309	9496
924.417	9447
924.525	9378
924.633	9454
924.741	10166
924.849	9222
924.956	9370
925.064	9176
925.172	9195
925.279	9161
925.387	9222
925.494	9291
925.602	9401
925.709	9268
925.816	9173
925.924	9192
926.031	9287
926.138	9249
926.245	9306
926.352	9127
926.459	9298
926.566	9275
926.673	9150
926.779	9108
926.886	9089
926.993	8971
927.099	8986
927.206	8925
927.312	8849
927.419	9009
927.525	9036
927.631	8998
927.737	8891
927.843	8785
927.95	8762
928.056	8834
928.162	8857
928.267	8834
928.373	9374
928.479	8914
928.585	8686
928.69	8800
928.796	8872
928.901	8735
929.007	8636
929.112	8708
929.218	8727
929.323	8678
929.428	8644
929.533	8849
929.638	8579
929.743	8640
929.848	8743
929.953	8686
930.058	8602
930.163	8415
930.267	8499
930.372	8526
930.477	8442
930.581	8625
930.685	8526
930.79	8385
930.894	8366
930.998	8419
931.103	8518
931.207	8199
931.311	8088
931.415	8039
931.519	7932
931.623	7852
