Data from test_V78500241_1152.txt Node
Date: Fri Mar 25 14:41:44 CST 2022
User: usil
Spectrometer: V785-0024
Trigger mode: 0
Integration Time (sec): 4.000000E-1
Scans to average: 1
Nonlinearity correction enabled: false
Boxcar width: 0
Storing dark spectrum: false
XAxis mode: Wavelengths
Number of Pixels in Spectrum: 1024
>>>>>Begin Spectral Data<<<<<
801.071	22565
801.214	22386
801.356	22112
801.499	22101
801.641	21964
801.783	21778
801.926	21915
802.068	21739
802.211	21732
802.353	21561
802.496	21515
802.638	21370
802.78	21355
802.923	21313
803.065	21214
803.208	21245
803.35	21192
803.492	21298
803.635	21355
803.777	21192
803.919	21313
804.061	21679
804.204	21287
804.346	21142
804.488	20994
804.63	21256
804.773	20929
804.915	21096
805.057	21207
805.199	21135
805.341	21192
805.483	21397
805.626	21279
805.768	21096
805.91	21146
806.052	21180
806.194	21146
806.336	21332
806.478	21081
806.62	21222
806.762	21207
806.904	21287
807.046	21610
807.188	21622
807.33	21641
807.472	21614
807.614	21420
807.756	21454
807.898	21378
808.04	21313
808.182	21294
808.324	21534
808.465	21443
808.607	21561
808.749	21797
808.891	21831
809.033	21987
809.174	21755
809.316	21587
809.458	21793
809.6	21698
809.741	21755
809.883	21682
810.025	21694
810.166	21804
810.308	21804
810.45	21679
810.591	21728
810.733	21443
810.875	21405
811.016	21279
811.158	21275
811.299	21401
811.441	21557
811.582	21428
811.724	21374
811.865	21275
812.007	21374
812.148	21389
812.29	21306
812.431	21507
812.573	21705
812.714	21774
812.855	21854
812.997	21831
813.138	22105
813.279	22040
813.421	21903
813.562	21869
813.703	21648
813.845	21580
813.986	21428
814.127	21070
814.268	20914
814.41	20948
814.551	20807
814.692	20937
814.833	20800
814.974	20876
815.115	20891
815.256	20826
815.397	20765
815.539	20765
815.68	20598
815.821	20651
815.962	20648
816.103	20609
816.244	20484
816.385	20465
816.526	20408
816.666	20214
816.807	20062
816.948	20035
817.089	20172
817.23	20058
817.371	20016
817.512	20096
817.653	20065
817.793	20008
817.934	20046
818.075	20100
818.216	20035
818.356	19928
818.497	19955
818.638	19696
818.778	19811
818.919	19799
819.06	19795
819.2	19784
819.341	19906
819.481	19902
819.622	20058
819.762	20313
819.903	20221
820.043	20183
820.184	20012
820.324	19978
820.465	20161
820.605	20142
820.746	20012
820.886	19871
821.026	19986
821.167	19902
821.307	20092
821.447	19997
821.588	19811
821.728	19807
821.868	19662
822.008	19499
822.149	19510
822.289	19403
822.429	19251
822.569	19076
822.709	19179
822.849	18916
822.99	18928
823.13	18928
823.27	18924
823.41	18719
823.55	18730
823.69	18688
823.83	18798
823.97	18772
824.11	18448
824.25	18525
824.389	18464
824.529	18574
824.669	18525
824.809	18623
824.949	18563
825.089	18585
825.228	18536
825.368	18369
825.508	18315
825.648	18300
825.787	18289
825.927	18426
826.067	18239
826.206	18205
826.346	18308
826.485	18296
826.625	18300
826.765	18418
826.904	18285
827.044	18083
827.183	18003
827.323	17980
827.462	17931
827.601	18019
827.741	17889
827.88	17999
828.02	17870
828.159	18038
828.298	17969
828.437	18114
828.577	17901
828.716	18068
828.855	17920
828.994	17722
829.134	17805
829.273	17779
829.412	17805
829.551	17611
829.69	17802
829.829	17733
829.968	17748
830.107	17809
830.246	17805
830.385	17718
830.524	17691
830.663	17528
830.802	17391
830.941	17368
831.08	17387
831.219	17490
831.357	17497
831.496	17703
831.635	17402
831.774	17337
831.913	17239
832.051	17090
832.19	17200
832.329	17208
832.467	17136
832.606	16896
832.744	17102
832.883	17056
833.022	16999
833.16	17052
833.299	17067
833.437	17037
833.576	17170
833.714	17083
833.852	17136
833.991	17117
834.129	17204
834.267	17113
834.406	17079
834.544	17155
834.682	17185
834.821	17098
834.959	17246
835.097	17147
835.235	17204
835.373	17174
835.511	17143
835.65	16980
835.788	17022
835.926	16908
836.064	16828
836.202	16782
836.34	17041
836.478	17071
836.615	17067
836.753	16968
836.891	17132
837.029	17105
837.167	16889
837.305	16957
837.443	16934
837.58	16896
837.718	16938
837.856	16881
837.993	16904
838.131	16828
838.269	16816
838.406	16869
838.544	16736
838.681	16626
838.819	16550
838.956	16440
839.094	16409
839.231	16569
839.369	16519
839.506	16843
839.643	16675
839.781	16493
839.918	16455
840.055	16470
840.193	16398
840.33	16421
840.467	16493
840.604	16489
840.742	16698
840.879	16322
841.016	16398
841.153	16325
841.29	16447
841.427	16504
841.564	16481
841.701	16402
841.838	16265
841.975	16246
842.112	16344
842.249	16192
842.385	16120
842.522	16417
842.659	16215
842.796	16188
842.933	16265
843.069	16105
843.206	16204
843.343	16402
843.479	16226
843.616	16287
843.752	16078
843.889	15975
844.025	16185
844.162	15945
844.298	16131
844.435	16048
844.571	15987
844.708	15979
844.844	16204
844.98	16177
845.117	16158
845.253	16025
845.389	15899
845.525	16040
845.661	16109
845.798	15937
845.934	16173
846.07	16048
846.206	16044
846.342	16097
846.478	15911
846.614	15717
846.75	15682
846.886	15572
847.022	15686
847.158	15679
847.294	15561
847.429	15572
847.565	15564
847.701	15762
847.837	15317
847.972	15131
848.108	15435
848.244	15302
848.379	15222
848.515	15249
848.65	15214
848.786	15081
848.921	15264
849.057	15256
849.192	15237
849.328	15211
849.463	15203
849.598	15214
849.734	15058
849.869	15013
850.004	15017
850.14	15028
850.275	14929
850.41	14838
850.545	14937
850.68	14944
850.815	14933
850.95	14815
851.085	15074
851.22	14948
851.355	14906
851.49	14819
851.625	14899
851.76	14807
851.895	14861
852.03	14769
852.165	14937
852.299	14960
852.434	15093
852.569	14925
852.703	15032
852.838	15009
852.973	15051
853.107	15070
853.242	14910
853.376	14762
853.511	14670
853.645	14811
853.78	14910
853.914	14864
854.048	14792
854.183	14788
854.317	14769
854.451	15020
854.585	14785
854.72	14746
854.854	14785
854.988	14610
855.122	14750
855.256	14640
855.39	14769
855.524	14872
855.658	14876
855.792	14815
855.926	14800
856.06	14811
856.194	14883
856.327	14746
856.461	14807
856.595	14724
856.729	14750
856.862	14887
856.996	14743
857.13	14910
857.263	14925
857.397	14853
857.53	14815
857.664	14864
857.797	14872
857.931	14914
858.064	14857
858.197	14864
858.331	14830
858.464	14754
858.597	14640
858.731	14758
858.864	14811
858.997	14678
859.13	14861
859.263	14815
859.396	14899
859.529	14708
859.662	14849
859.795	14826
859.928	14807
860.061	14960
860.194	14967
860.327	14849
860.46	14682
860.592	14921
860.725	14990
860.858	14921
860.99	14819
861.123	14811
861.256	14648
861.388	14731
861.521	15424
861.653	14727
861.786	14636
861.918	14617
862.05	14705
862.183	14705
862.315	14727
862.447	14842
862.58	14697
862.712	14533
862.844	14469
862.976	14590
863.108	14511
863.24	15070
863.372	14499
863.504	14556
863.636	14560
863.768	14575
863.9	14655
864.032	14423
864.164	14533
864.296	14594
864.428	14693
864.559	14655
864.691	14632
864.823	14594
864.954	14629
865.086	14564
865.217	14598
865.349	14503
865.48	14518
865.612	14606
865.743	14773
865.875	14450
866.006	14507
866.137	14541
866.269	14526
866.4	14632
866.531	14533
866.662	14552
866.793	14377
866.924	14465
867.055	14583
867.186	14541
867.317	14412
867.448	14434
867.579	14404
867.71	14393
867.841	14419
867.972	14594
868.103	14537
868.233	14507
868.364	14545
868.495	14678
868.625	14777
868.756	14910
868.886	14724
869.017	14750
869.147	14887
869.278	14868
869.408	14830
869.539	14765
869.669	14830
869.799	14830
869.929	14823
870.06	14876
870.19	15104
870.32	15039
870.45	15199
870.58	15218
870.71	15348
870.84	15370
870.97	15192
871.1	15104
871.23	15367
871.36	15359
871.489	15291
871.619	15355
871.749	15260
871.879	15450
872.008	15473
872.138	15306
872.267	15340
872.397	15249
872.526	15256
872.656	15146
872.785	15230
872.915	15317
873.044	15511
873.173	15458
873.303	15412
873.432	15439
873.561	15606
873.69	15408
873.819	15310
873.948	15386
874.077	15359
874.206	15405
874.335	15401
874.464	15553
874.593	15743
874.722	15610
874.851	15774
874.979	15804
875.108	15774
875.237	15705
875.365	15690
875.494	15732
875.623	15785
875.751	15713
875.88	15846
876.008	15949
876.136	15960
876.265	16188
876.393	16291
876.521	16230
876.65	16226
876.778	16139
876.906	16112
877.034	16032
877.162	16105
877.29	16082
877.418	16082
877.546	16169
877.674	16059
877.802	16139
877.93	16207
878.058	16090
878.185	16242
878.313	16071
878.441	16177
878.568	15899
878.696	16082
878.824	16272
878.951	16287
879.079	16371
879.206	16554
879.333	16398
879.461	16344
879.588	16394
879.715	16474
879.842	16519
879.97	16268
880.097	16181
880.224	16071
880.351	16071
880.478	16090
880.605	16040
880.732	15964
880.859	16287
880.986	16124
881.112	16200
881.239	15907
881.366	15823
881.493	15698
881.619	15625
881.746	15709
881.872	15633
881.999	15671
882.125	15606
882.252	15728
882.378	15762
882.505	15808
882.631	15591
882.757	15504
882.883	15428
883.01	15450
883.136	15488
883.262	15313
883.388	15336
883.514	15462
883.64	15587
883.766	15454
883.892	15256
884.018	15294
884.143	15496
884.269	15652
884.395	15192
884.52	15165
884.646	15207
884.772	15192
884.897	15173
885.023	15264
885.148	15291
885.274	15332
885.399	15302
885.524	15146
885.65	15154
885.775	15203
885.9	15161
886.025	15317
886.15	15173
886.275	15119
886.4	15192
886.525	15108
886.65	15157
886.775	15154
886.9	15317
887.025	15363
887.149	15336
887.274	14998
887.399	14956
887.523	14929
887.648	14933
887.773	14880
887.897	15146
888.021	15138
888.146	14952
888.27	15112
888.395	15146
888.519	15085
888.643	15051
888.767	15097
888.891	14921
889.015	14811
889.139	14815
889.263	14876
889.387	14994
889.511	15154
889.635	14963
889.759	14876
889.883	14864
890.006	14868
890.13	14876
890.254	14826
890.377	14853
890.501	14731
890.624	14720
890.748	14739
890.871	14617
890.995	14480
891.118	14328
891.241	14427
891.364	14526
891.488	14583
891.611	14571
891.734	14514
891.857	14636
891.98	14579
892.103	14606
892.226	14670
892.349	14473
892.471	14385
892.594	14583
892.717	14602
892.839	14412
892.962	14495
893.085	14503
893.207	14583
893.33	14396
893.452	14412
893.575	14549
893.697	14488
893.819	14693
893.941	14674
894.064	14701
894.186	14541
894.308	14469
894.43	14667
894.552	14830
894.674	14663
894.796	14556
894.918	14499
895.04	14484
895.161	14670
895.283	14670
895.405	14552
895.526	14629
895.648	14659
895.769	14674
895.891	14670
896.012	14716
896.134	14670
896.255	14701
896.376	14613
896.498	14727
896.619	14610
896.74	14655
896.861	14834
896.982	14956
897.103	15188
897.224	14895
897.345	14830
897.466	14807
897.587	14967
897.708	15058
897.828	14925
897.949	14834
898.07	14769
898.19	15009
898.311	15123
898.431	14994
898.552	14975
898.672	15131
898.792	15017
898.913	15047
899.033	14975
899.153	14857
899.273	14811
899.393	14735
899.513	14826
899.633	14765
899.753	14887
899.873	14845
899.993	14952
900.113	14906
900.232	14880
900.352	14891
900.472	14876
900.591	14758
900.711	14727
900.83	14769
900.95	14838
901.069	14948
901.189	14674
901.308	14495
901.427	14343
901.546	14442
901.665	14377
901.784	14476
901.904	14351
902.023	14195
902.141	14005
902.26	13913
902.379	14062
902.498	13932
902.617	13997
902.735	13913
902.854	13921
902.973	13818
903.091	13693
903.21	13670
903.328	13609
903.446	13578
903.565	13506
903.683	13601
903.801	13453
903.919	13556
904.038	13449
904.156	13381
904.274	13419
904.392	13377
904.51	13362
904.627	13343
904.745	13316
904.863	13392
904.981	13168
905.098	12993
905.216	13084
905.334	13072
905.451	13053
905.569	13000
905.686	13008
905.803	12943
905.921	12764
906.038	12928
906.155	12802
906.272	12730
906.389	12772
906.506	12673
906.623	12635
906.74	12589
906.857	12528
906.974	12547
907.091	12616
907.208	12802
907.324	12662
907.441	12498
907.557	12376
907.674	12350
907.79	12311
907.907	12251
908.023	12445
908.139	12315
908.256	12239
908.372	12254
908.488	12281
908.604	12133
908.72	12079
908.836	12178
908.952	12167
909.068	12102
909.184	12292
909.3	12083
909.415	12262
909.531	12045
909.647	11939
909.762	11942
909.878	11935
909.993	11904
910.108	11912
910.224	11874
910.339	11946
910.454	11752
910.57	11775
910.685	11676
910.8	11961
910.915	11836
911.03	11813
911.145	11619
911.259	11566
911.374	11623
911.489	11539
911.604	11444
911.718	11433
911.833	11356
911.947	11322
912.062	11220
912.176	11311
912.291	11296
912.405	11398
912.519	11577
912.633	11501
912.748	11395
912.862	11349
912.976	11345
913.09	11117
913.204	11231
913.318	11201
913.431	11387
913.545	11303
913.659	11345
913.772	11246
913.886	11124
914	11128
914.113	11197
914.226	11265
914.34	11170
914.453	10995
914.566	11094
914.68	11029
914.793	11014
914.906	10915
915.019	10873
915.132	10797
915.245	10858
915.358	10850
915.47	10896
915.583	10816
915.696	10850
915.809	10999
915.921	10995
916.034	10835
916.146	10767
916.259	10801
916.371	10953
916.483	10873
916.595	10744
916.708	10786
916.82	10862
916.932	10755
917.044	10797
917.156	10710
917.268	10717
917.38	10702
917.491	10660
917.603	10691
917.715	10816
917.826	10725
917.938	10717
918.049	10573
918.161	10710
918.272	10809
918.384	10793
918.495	10736
918.606	10531
918.717	10443
918.828	10573
918.939	10599
919.05	10413
919.161	10462
919.272	10310
919.383	10382
919.494	10580
919.604	10748
919.715	10538
919.826	10493
919.936	10516
920.047	10641
920.157	10565
920.267	10774
920.378	10538
920.488	10554
920.598	10744
920.708	10877
920.818	10736
920.928	10767
921.038	10889
921.148	10858
921.258	10550
921.368	10561
921.477	10386
921.587	10436
921.697	10219
921.806	10409
921.916	10314
922.025	10131
922.134	10055
922.244	10063
922.353	10185
922.462	9964
922.571	9854
922.68	9774
922.789	9728
922.898	9797
923.007	9694
923.116	9827
923.224	9857
923.333	9816
923.442	9641
923.55	9614
923.659	9701
923.767	9698
923.876	9660
923.984	9705
924.092	9629
924.201	9720
924.309	9614
924.417	9622
924.525	9595
924.633	9622
924.741	10291
924.849	9397
924.956	9564
925.064	9443
925.172	9325
925.279	9401
925.387	9485
925.494	9447
925.602	9622
925.709	9462
925.816	9374
925.924	9412
926.031	9519
926.138	9443
926.245	9382
926.352	9313
926.459	9382
926.566	9530
926.673	9389
926.779	9260
926.886	9268
926.993	9260
927.099	9070
927.206	9055
927.312	9089
927.419	9176
927.525	9104
927.631	9188
927.737	9001
927.843	9005
927.95	8956
928.056	8967
928.162	8937
928.267	9081
928.373	9610
928.479	9138
928.585	8933
928.69	8986
928.796	9001
928.901	8960
929.007	8819
929.112	8963
929.218	8876
929.323	8868
929.428	8834
929.533	8990
929.638	8766
929.743	8804
929.848	8880
929.953	8853
930.058	8644
930.163	8537
930.267	8571
930.372	8750
930.477	8579
930.581	8750
930.685	8598
930.79	8522
930.894	8533
930.998	8526
931.103	8659
931.207	8256
931.311	8252
931.415	8191
931.519	8050
931.623	8031
