Data from test_V78500241_1177.txt Node
Date: Fri Mar 25 14:41:54 CST 2022
User: usil
Spectrometer: V785-0024
Trigger mode: 0
Integration Time (sec): 4.000000E-1
Scans to average: 1
Nonlinearity correction enabled: false
Boxcar width: 0
Storing dark spectrum: false
XAxis mode: Wavelengths
Number of Pixels in Spectrum: 1024
>>>>>Begin Spectral Data<<<<<
801.071	22603
801.214	22478
801.356	22166
801.499	22040
801.641	21835
801.783	21800
801.926	21823
802.068	21808
802.211	21618
802.353	21781
802.496	21424
802.638	21264
802.78	21359
802.923	21260
803.065	21199
803.208	21146
803.35	21199
803.492	21230
803.635	21127
803.777	21074
803.919	21222
804.061	21652
804.204	21329
804.346	21169
804.488	20998
804.63	21138
804.773	21039
804.915	21161
805.057	21283
805.199	21055
805.341	21260
805.483	21157
805.626	21252
805.768	21024
805.91	21100
806.052	21116
806.194	21039
806.336	21199
806.478	20994
806.62	21013
806.762	21089
806.904	21325
807.046	21462
807.188	21534
807.33	21367
807.472	21595
807.614	21340
807.756	21439
807.898	21154
808.04	21176
808.182	21218
808.324	21340
808.465	21408
808.607	21450
808.749	21686
808.891	21823
809.033	21899
809.174	21648
809.316	21523
809.458	21572
809.6	21431
809.741	21500
809.883	21583
810.025	21686
810.166	21686
810.308	21644
810.45	21660
810.591	21625
810.733	21492
810.875	21351
811.016	21203
811.158	21154
811.299	21386
811.441	21458
811.582	21408
811.724	21287
811.865	21287
812.007	21203
812.148	21321
812.29	21359
812.431	21488
812.573	21614
812.714	21747
812.855	21812
812.997	21808
813.138	21892
813.279	21907
813.421	21892
813.562	21766
813.703	21576
813.845	21412
813.986	21199
814.127	21062
814.268	20944
814.41	20842
814.551	20693
814.692	20815
814.833	20750
814.974	20830
815.115	20815
815.256	20636
815.397	20636
815.539	20621
815.68	20625
815.821	20564
815.962	20518
816.103	20571
816.244	20412
816.385	20339
816.526	20328
816.666	20221
816.807	20134
816.948	20073
817.089	20164
817.23	19928
817.371	20031
817.512	20046
817.653	19986
817.793	19898
817.934	20016
818.075	20008
818.216	19925
818.356	19928
818.497	19776
818.638	19571
818.778	19537
818.919	19715
819.06	19734
819.2	19788
819.341	19772
819.481	19845
819.622	20035
819.762	20244
819.903	20153
820.043	20062
820.184	20001
820.324	20145
820.465	20008
820.605	20005
820.746	19925
820.886	19856
821.026	19959
821.167	19974
821.307	20065
821.447	19883
821.588	19788
821.728	19723
821.868	19506
822.008	19438
822.149	19434
822.289	19350
822.429	19152
822.569	19065
822.709	19072
822.849	19004
822.99	18924
823.13	18825
823.27	18837
823.41	18692
823.55	18639
823.69	18677
823.83	18719
823.97	18589
824.11	18502
824.25	18509
824.389	18475
824.529	18616
824.669	18418
824.809	18513
824.949	18593
825.089	18525
825.228	18483
825.368	18281
825.508	18251
825.648	18228
825.787	18429
825.927	18308
826.067	18254
826.206	18277
826.346	18266
826.485	18289
826.625	18224
826.765	18376
826.904	18133
827.044	18026
827.183	17946
827.323	17950
827.462	18030
827.601	18049
827.741	17996
827.88	17954
828.02	17836
828.159	17992
828.298	17992
828.437	17980
828.577	17950
828.716	18045
828.855	17885
828.994	17687
829.134	17783
829.273	17668
829.412	17687
829.551	17760
829.69	17729
829.829	17893
829.968	17756
830.107	17733
830.246	17707
830.385	17604
830.524	17573
830.663	17463
830.802	17406
830.941	17360
831.08	17303
831.219	17364
831.357	17341
831.496	17558
831.635	17398
831.774	17284
831.913	17246
832.051	17109
832.19	17216
832.329	17132
832.467	17003
832.606	16919
832.744	17029
832.883	17025
833.022	17003
833.16	17079
833.299	17075
833.437	16991
833.576	17052
833.714	17029
833.852	17109
833.991	17143
834.129	17212
834.267	17200
834.406	17067
834.544	17147
834.682	17132
834.821	17121
834.959	17292
835.097	17006
835.235	17094
835.373	17048
835.511	17094
835.65	16987
835.788	17018
835.926	16877
836.064	16843
836.202	16869
836.34	16987
836.478	17121
836.615	16980
836.753	17022
836.891	17143
837.029	17033
837.167	16987
837.305	16927
837.443	16900
837.58	16752
837.718	16949
837.856	16911
837.993	16831
838.131	16839
838.269	16778
838.406	16698
838.544	16755
838.681	16607
838.819	16470
838.956	16310
839.094	16314
839.231	16546
839.369	16577
839.506	16778
839.643	16554
839.781	16432
839.918	16299
840.055	16379
840.193	16500
840.33	16394
840.467	16272
840.604	16352
840.742	16729
840.879	16234
841.016	16341
841.153	16310
841.29	16493
841.427	16409
841.564	16421
841.701	16459
841.838	16295
841.975	16295
842.112	16272
842.249	16242
842.385	16101
842.522	16386
842.659	16291
842.796	16181
842.933	16093
843.069	16188
843.206	16105
843.343	16284
843.479	16150
843.616	16246
843.752	15941
843.889	15979
844.025	16124
844.162	15865
844.298	16032
844.435	15964
844.571	16013
844.708	16025
844.844	16078
844.98	16131
845.117	16032
845.253	15888
845.389	15945
845.525	15960
845.661	16025
845.798	15918
845.934	15880
846.07	15888
846.206	15979
846.342	15850
846.478	15857
846.614	15622
846.75	15450
846.886	15454
847.022	15679
847.158	15519
847.294	15443
847.429	15511
847.565	15515
847.701	15755
847.837	15222
847.972	15222
848.108	15386
848.244	15386
848.379	15310
848.515	15211
848.65	15188
848.786	15180
848.921	15214
849.057	15169
849.192	15268
849.328	15089
849.463	15180
849.598	15097
849.734	15020
849.869	14986
850.004	14864
850.14	14960
850.275	14967
850.41	14792
850.545	14853
850.68	14902
850.815	14880
850.95	14887
851.085	15074
851.22	15089
851.355	14933
851.49	14807
851.625	14876
851.76	14823
851.895	14830
852.03	14746
852.165	14807
852.299	14918
852.434	15032
852.569	14895
852.703	14910
852.838	14948
852.973	14990
853.107	15009
853.242	14807
853.376	14663
853.511	14674
853.645	14663
853.78	14876
853.914	14720
854.048	14667
854.183	14678
854.317	14804
854.451	14834
854.585	14720
854.72	14807
854.854	14842
854.988	14724
855.122	14708
855.256	14670
855.39	14682
855.524	14750
855.658	14887
855.792	14910
855.926	14765
856.06	14788
856.194	14830
856.327	14788
856.461	14758
856.595	14720
856.729	14762
856.862	14807
856.996	14765
857.13	14804
857.263	14963
857.397	14861
857.53	14731
857.664	14830
857.797	14762
857.931	14929
858.064	14830
858.197	14861
858.331	14781
858.464	14724
858.597	14629
858.731	14743
858.864	14682
858.997	14678
859.13	14807
859.263	14834
859.396	14838
859.529	14743
859.662	14686
859.795	14648
859.928	14785
860.061	14910
860.194	14979
860.327	14788
860.46	14781
860.592	14796
860.725	14910
860.858	14849
860.99	14826
861.123	14621
861.256	14636
861.388	14781
861.521	15443
861.653	14632
861.786	14598
861.918	14670
862.05	14648
862.183	14697
862.315	14724
862.447	14788
862.58	14610
862.712	14556
862.844	14408
862.976	14579
863.108	14545
863.24	15058
863.372	14476
863.504	14571
863.636	14484
863.768	14545
863.9	14514
864.032	14423
864.164	14480
864.296	14541
864.428	14625
864.559	14621
864.691	14625
864.823	14552
864.954	14594
865.086	14522
865.217	14587
865.349	14374
865.48	14511
865.612	14636
865.743	14667
865.875	14594
866.006	14480
866.137	14549
866.269	14568
866.4	14480
866.531	14389
866.662	14404
866.793	14434
866.924	14602
867.055	14427
867.186	14454
867.317	14408
867.448	14415
867.579	14412
867.71	14355
867.841	14412
867.972	14526
868.103	14511
868.233	14499
868.364	14530
868.495	14556
868.625	14727
868.756	14796
868.886	14739
869.017	14648
869.147	14861
869.278	14864
869.408	14819
869.539	14785
869.669	14880
869.799	14765
869.929	14933
870.06	14887
870.19	15013
870.32	14975
870.45	15077
870.58	15127
870.71	15256
870.84	15249
870.97	15116
871.1	15146
871.23	15310
871.36	15287
871.489	15256
871.619	15302
871.749	15363
871.879	15428
872.008	15526
872.138	15298
872.267	15363
872.397	15272
872.526	15169
872.656	15119
872.785	15188
872.915	15370
873.044	15435
873.173	15367
873.303	15424
873.432	15504
873.561	15477
873.69	15496
873.819	15370
873.948	15538
874.077	15416
874.206	15313
874.335	15405
874.464	15545
874.593	15694
874.722	15622
874.851	15732
874.979	15701
875.108	15808
875.237	15580
875.365	15622
875.494	15663
875.623	15838
875.751	15705
875.88	15736
876.008	15907
876.136	15884
876.265	16074
876.393	16215
876.521	16135
876.65	16268
876.778	16169
876.906	16055
877.034	16017
877.162	16097
877.29	16048
877.418	16173
877.546	16238
877.674	16131
877.802	16109
877.93	16162
878.058	16101
878.185	16078
878.313	16090
878.441	16185
878.568	15964
878.696	16124
878.824	16112
878.951	16226
879.079	16291
879.206	16478
879.333	16329
879.461	16314
879.588	16295
879.715	16421
879.842	16588
879.97	16215
880.097	15953
880.224	15987
880.351	15998
880.478	16002
880.605	15907
880.732	15949
880.859	16226
880.986	15983
881.112	16036
881.239	15888
881.366	15857
881.493	15671
881.619	15637
881.746	15587
881.872	15561
881.999	15572
882.125	15481
882.252	15656
882.378	15629
882.505	15759
882.631	15542
882.757	15405
882.883	15481
883.01	15439
883.136	15336
883.262	15332
883.388	15298
883.514	15507
883.64	15485
883.766	15450
883.892	15260
884.018	15310
884.143	15466
884.269	15511
884.395	15116
884.52	15157
884.646	15070
884.772	14994
884.897	15055
885.023	15123
885.148	15252
885.274	15260
885.399	15256
885.524	15127
885.65	15184
885.775	15173
885.9	15112
886.025	15260
886.15	15233
886.275	15135
886.4	15047
886.525	15032
886.65	15169
886.775	15157
886.9	15283
887.025	15447
887.149	15081
887.274	15001
887.399	14952
887.523	14910
887.648	14952
887.773	14887
887.897	15055
888.021	15085
888.146	14902
888.27	14960
888.395	15112
888.519	14933
888.643	15154
888.767	15058
888.891	14956
889.015	14811
889.139	14762
889.263	14811
889.387	14876
889.511	14986
889.635	14906
889.759	14758
889.883	14781
890.006	14906
890.13	14944
890.254	14788
890.377	14785
890.501	14678
890.624	14507
890.748	14765
890.871	14571
890.995	14533
891.118	14461
891.241	14431
891.364	14469
891.488	14537
891.611	14526
891.734	14537
891.857	14644
891.98	14568
892.103	14556
892.226	14564
892.349	14442
892.471	14290
892.594	14503
892.717	14621
892.839	14476
892.962	14568
893.085	14526
893.207	14484
893.33	14389
893.452	14465
893.575	14514
893.697	14419
893.819	14682
893.941	14701
894.064	14644
894.186	14522
894.308	14556
894.43	14644
894.552	14659
894.674	14693
894.796	14522
894.918	14564
895.04	14511
895.161	14617
895.283	14602
895.405	14530
895.526	14625
895.648	14644
895.769	14545
895.891	14625
896.012	14667
896.134	14686
896.255	14731
896.376	14670
896.498	14606
896.619	14712
896.74	14727
896.861	14773
896.982	15055
897.103	15169
897.224	14979
897.345	14845
897.466	14834
897.587	14891
897.708	14971
897.828	14845
897.949	14876
898.07	14807
898.19	14910
898.311	15093
898.431	14880
898.552	15062
898.672	15089
898.792	15081
898.913	15001
899.033	14960
899.153	14967
899.273	14826
899.393	14800
899.513	14868
899.633	14906
899.753	14819
899.873	14872
899.993	14982
900.113	14826
900.232	14902
900.352	14815
900.472	14826
900.591	14655
900.711	14739
900.83	14689
900.95	14853
901.069	14868
901.189	14541
901.308	14495
901.427	14393
901.546	14408
901.665	14362
901.784	14465
901.904	14256
902.023	14119
902.141	13978
902.26	13947
902.379	14058
902.498	13921
902.617	13868
902.735	14016
902.854	14008
902.973	13814
903.091	13666
903.21	13632
903.328	13696
903.446	13567
903.565	13476
903.683	13518
903.801	13419
903.919	13468
904.038	13441
904.156	13270
904.274	13445
904.392	13297
904.51	13331
904.627	13297
904.745	13373
904.863	13293
904.981	13034
905.098	13031
905.216	12882
905.334	13069
905.451	13004
905.569	12958
905.686	13050
905.803	13000
905.921	12772
906.038	12916
906.155	12810
906.272	12760
906.389	12711
906.506	12559
906.623	12486
906.74	12498
906.857	12456
906.974	12471
907.091	12646
907.208	12783
907.324	12692
907.441	12494
907.557	12281
907.674	12334
907.79	12251
907.907	12232
908.023	12369
908.139	12327
908.256	12285
908.372	12308
908.488	12216
908.604	12117
908.72	12087
908.836	12087
908.952	12129
909.068	12072
909.184	12201
909.3	12083
909.415	12091
909.531	12133
909.647	11893
909.762	11847
909.878	11733
909.993	11821
910.108	11859
910.224	11775
910.339	11874
910.454	11786
910.57	11756
910.685	11585
910.8	11901
910.915	11882
911.03	11756
911.145	11623
911.259	11566
911.374	11554
911.489	11493
911.604	11448
911.718	11337
911.833	11269
911.947	11227
912.062	11075
912.176	11269
912.291	11318
912.405	11265
912.519	11566
912.633	11543
912.748	11368
912.862	11311
912.976	11197
913.09	11056
913.204	11132
913.318	11178
913.431	11299
913.545	11273
913.659	11254
913.772	11151
913.886	11083
914	11056
914.113	11159
914.226	11162
914.34	11121
914.453	11022
914.566	11083
914.68	10946
914.793	10938
914.906	10839
915.019	10778
915.132	10660
915.245	10812
915.358	10767
915.47	10892
915.583	10805
915.696	10866
915.809	10942
915.921	10957
916.034	10740
916.146	10744
916.259	10675
916.371	10759
916.483	10873
916.595	10668
916.708	10759
916.82	10767
916.932	10763
917.044	10816
917.156	10664
917.268	10531
917.38	10660
917.491	10531
917.603	10733
917.715	10668
917.826	10733
917.938	10558
918.049	10512
918.161	10634
918.272	10748
918.384	10740
918.495	10675
918.606	10500
918.717	10443
918.828	10459
918.939	10485
919.05	10455
919.161	10519
919.272	10257
919.383	10371
919.494	10588
919.604	10683
919.715	10615
919.826	10447
919.936	10417
920.047	10561
920.157	10550
920.267	10691
920.378	10527
920.488	10512
920.598	10698
920.708	10771
920.818	10698
920.928	10752
921.038	10774
921.148	10820
921.258	10542
921.368	10497
921.477	10443
921.587	10314
921.697	10306
921.806	10409
921.916	10173
922.025	10097
922.134	10021
922.244	10021
922.353	10048
922.462	9922
922.571	9854
922.68	9747
922.789	9740
922.898	9759
923.007	9690
923.116	9717
923.224	9808
923.333	9751
923.442	9644
923.55	9534
923.659	9637
923.767	9698
923.876	9564
923.984	9663
924.092	9500
924.201	9629
924.309	9599
924.417	9614
924.525	9454
924.633	9572
924.741	10257
924.849	9313
924.956	9564
925.064	9329
925.172	9313
925.279	9321
925.387	9435
925.494	9329
925.602	9515
925.709	9496
925.816	9268
925.924	9348
926.031	9397
926.138	9431
926.245	9386
926.352	9233
926.459	9367
926.566	9473
926.673	9336
926.779	9260
926.886	9218
926.993	9127
927.099	9047
927.206	9070
927.312	8979
927.419	9116
927.525	9074
927.631	9150
927.737	9005
927.843	8918
927.95	8876
928.056	8982
928.162	8918
928.267	9085
928.373	9637
928.479	9127
928.585	8853
928.69	8967
928.796	8971
928.901	8880
929.007	8777
929.112	8830
929.218	8872
929.323	8834
929.428	8735
929.533	8899
929.638	8663
929.743	8758
929.848	8781
929.953	8754
930.058	8708
930.163	8564
930.267	8518
930.372	8678
930.477	8533
930.581	8811
930.685	8598
930.79	8492
930.894	8499
930.998	8396
931.103	8625
931.207	8206
931.311	8229
931.415	8180
931.519	7978
931.623	7932
