Data from test_V78500241_3372.txt Node
Date: Fri Mar 25 14:57:11 CST 2022
User: usil
Spectrometer: V785-0024
Trigger mode: 0
Integration Time (sec): 4.000000E-1
Scans to average: 1
Nonlinearity correction enabled: false
Boxcar width: 0
Storing dark spectrum: false
XAxis mode: Wavelengths
Number of Pixels in Spectrum: 1024
>>>>>Begin Spectral Data<<<<<
801.071	21827
801.214	21743
801.356	21591
801.499	21504
801.641	21321
801.783	21237
801.926	21336
802.068	21283
802.211	21165
802.353	21146
802.496	20872
802.638	20765
802.78	20743
802.923	20670
803.065	20552
803.208	20674
803.35	20583
803.492	20670
803.635	20758
803.777	20697
803.919	20758
804.061	20982
804.204	20556
804.346	20632
804.488	20476
804.63	20526
804.773	20514
804.915	20545
805.057	20530
805.199	20507
805.341	20655
805.483	20682
805.626	20625
805.768	20393
805.91	20533
806.052	20598
806.194	20408
806.336	20708
806.478	20438
806.62	20549
806.762	20651
806.904	20724
807.046	20952
807.188	20811
807.33	20910
807.472	21005
807.614	20689
807.756	20823
807.898	20686
808.04	20609
808.182	20552
808.324	20530
808.465	20678
808.607	20849
808.749	20842
808.891	20994
809.033	21119
809.174	20937
809.316	20830
809.458	20906
809.6	20838
809.741	20902
809.883	20952
810.025	21009
810.166	20971
810.308	20952
810.45	20925
810.591	21001
810.733	20727
810.875	20720
811.016	20511
811.158	20568
811.299	20651
811.441	20739
811.582	20819
811.724	20613
811.865	20621
812.007	20526
812.148	20484
812.29	20632
812.431	20788
812.573	20994
812.714	21074
812.855	21203
812.997	21252
813.138	21325
813.279	21268
813.421	21058
813.562	21058
813.703	20990
813.845	20739
813.986	20457
814.127	20366
814.268	20206
814.41	20107
814.551	20214
814.692	20142
814.833	20088
814.974	20153
815.115	20119
815.256	19967
815.397	19841
815.539	20043
815.68	19814
815.821	19909
815.962	19928
816.103	19879
816.244	19750
816.385	19616
816.526	19731
816.666	19392
816.807	19343
816.948	19457
817.089	19480
817.23	19403
817.371	19346
817.512	19289
817.653	19430
817.793	19327
817.934	19263
818.075	19285
818.216	19236
818.356	19244
818.497	19141
818.638	18966
818.778	19069
818.919	19000
819.06	18966
819.2	19072
819.341	19141
819.481	19187
819.622	19373
819.762	19647
819.903	19403
820.043	19343
820.184	19270
820.324	19240
820.465	19377
820.605	19301
820.746	19354
820.886	19118
821.026	19304
821.167	19141
821.307	19327
821.447	19179
821.588	19171
821.728	19012
821.868	18844
822.008	18639
822.149	18730
822.289	18684
822.429	18456
822.569	18258
822.709	18342
822.849	18304
822.99	18194
823.13	18201
823.27	18129
823.41	18003
823.55	17999
823.69	18034
823.83	18019
823.97	18034
824.11	17828
824.25	17699
824.389	17885
824.529	17851
824.669	17813
824.809	17855
824.949	17824
825.089	17824
825.228	17745
825.368	17657
825.508	17615
825.648	17638
825.787	17554
825.927	17615
826.067	17524
826.206	17551
826.346	17543
826.485	17547
826.625	17570
826.765	17737
826.904	17653
827.044	17193
827.183	17360
827.323	17246
827.462	17212
827.601	17349
827.741	17235
827.88	17284
828.02	17208
828.159	17216
828.298	17277
828.437	17356
828.577	17322
828.716	17391
828.855	17208
828.994	17090
829.134	16995
829.273	17086
829.412	16949
829.551	16911
829.69	17033
829.829	17086
829.968	17086
830.107	17079
830.246	16976
830.385	16991
830.524	16915
830.663	16839
830.802	16721
830.941	16630
831.08	16634
831.219	16736
831.357	16694
831.496	16873
831.635	16668
831.774	16561
831.913	16474
832.051	16470
832.19	16394
832.329	16474
832.467	16306
832.606	16238
832.744	16238
832.883	16272
833.022	16268
833.16	16367
833.299	16417
833.437	16303
833.576	16424
833.714	16402
833.852	16386
833.991	16443
834.129	16417
834.267	16481
834.406	16344
834.544	16493
834.682	16310
834.821	16405
834.959	16641
835.097	16447
835.235	16519
835.373	16493
835.511	16432
835.65	16249
835.788	16375
835.926	16192
836.064	16143
836.202	16078
836.34	16337
836.478	16394
836.615	16322
836.753	16371
836.891	16413
837.029	16421
837.167	16299
837.305	16242
837.443	16166
837.58	16086
837.718	16261
837.856	16276
837.993	16150
838.131	16074
838.269	16185
838.406	16158
838.544	15968
838.681	15968
838.819	15915
838.956	15713
839.094	15762
839.231	15728
839.369	15994
839.506	16112
839.643	15937
839.781	15690
839.918	15698
840.055	15812
840.193	15690
840.33	15648
840.467	15732
840.604	15724
840.742	16002
840.879	15603
841.016	15682
841.153	15618
841.29	15884
841.427	15785
841.564	15846
841.701	15785
841.838	15709
841.975	15614
842.112	15675
842.249	15606
842.385	15545
842.522	15629
842.659	15599
842.796	15603
842.933	15477
843.069	15515
843.206	15534
843.343	15606
843.479	15538
843.616	15504
843.752	15313
843.889	15302
844.025	15454
844.162	15287
844.298	15393
844.435	15348
844.571	15218
844.708	15313
844.844	15500
844.98	15504
845.117	15428
845.253	15237
845.389	15252
845.525	15222
845.661	15169
845.798	15176
845.934	15146
846.07	15005
846.206	15131
846.342	15241
846.478	15009
846.614	14979
846.75	14819
846.886	14956
847.022	14979
847.158	14971
847.294	14906
847.429	14815
847.565	14849
847.701	15161
847.837	14606
847.972	14659
848.108	14708
848.244	14648
848.379	14507
848.515	14522
848.65	14385
848.786	14473
848.921	14522
849.057	14644
849.192	14629
849.328	14419
849.463	14431
849.598	14503
849.734	14358
849.869	14282
850.004	14237
850.14	14328
850.275	14309
850.41	14252
850.545	14168
850.68	14301
850.815	14282
850.95	14271
851.085	14514
851.22	14339
851.355	14221
851.49	14199
851.625	14176
851.76	14294
851.895	14191
852.03	14062
852.165	14164
852.299	14336
852.434	14309
852.569	14286
852.703	14290
852.838	14358
852.973	14431
853.107	14423
853.242	14233
853.376	14161
853.511	14084
853.645	14031
853.78	14225
853.914	14172
854.048	14096
854.183	14115
854.317	14195
854.451	14370
854.585	14191
854.72	14103
854.854	14138
854.988	13925
855.122	14100
855.256	13982
855.39	14142
855.524	14157
855.658	14187
855.792	14168
855.926	14191
856.06	14168
856.194	14275
856.327	14145
856.461	13989
856.595	14039
856.729	14126
856.862	14195
856.996	14134
857.13	14206
857.263	14218
857.397	14366
857.53	14119
857.664	14202
857.797	14237
857.931	14263
858.064	14225
858.197	14248
858.331	14149
858.464	14119
858.597	13947
858.731	14039
858.864	14065
858.997	14111
859.13	14168
859.263	14126
859.396	14180
859.529	14092
859.662	14084
859.795	14138
859.928	14119
860.061	14225
860.194	14313
860.327	14157
860.46	14199
860.592	14278
860.725	14206
860.858	14218
860.99	14199
861.123	13951
861.256	14161
861.388	14130
861.521	14986
861.653	13951
861.786	13993
861.918	14001
862.05	13955
862.183	14115
862.315	13982
862.447	14126
862.58	13993
862.712	13951
862.844	13814
862.976	13986
863.108	13944
863.24	14450
863.372	13868
863.504	13830
863.636	13860
863.768	13947
863.9	13856
864.032	13925
864.164	13860
864.296	14081
864.428	14020
864.559	14069
864.691	13963
864.823	14031
864.954	13940
865.086	13974
865.217	13894
865.349	13742
865.48	13883
865.612	13951
865.743	14024
865.875	13837
866.006	13822
866.137	13932
866.269	13906
866.4	13909
866.531	13860
866.662	13856
866.793	13830
866.924	13906
867.055	13860
867.186	13875
867.317	13837
867.448	13769
867.579	13837
867.71	13841
867.841	13830
867.972	13913
868.103	13936
868.233	13841
868.364	13967
868.495	13989
868.625	14225
868.756	14278
868.886	14103
869.017	14081
869.147	14320
869.278	14309
869.408	14180
869.539	14142
869.669	14275
869.799	14168
869.929	14256
870.06	14339
870.19	14442
870.32	14419
870.45	14511
870.58	14518
870.71	14659
870.84	14587
870.97	14541
871.1	14549
871.23	14655
871.36	14674
871.489	14644
871.619	14655
871.749	14746
871.879	14868
872.008	14842
872.138	14815
872.267	14765
872.397	14731
872.526	14541
872.656	14549
872.785	14659
872.915	14800
873.044	14842
873.173	14724
873.303	14868
873.432	14849
873.561	14853
873.69	14971
873.819	14819
873.948	14921
874.077	14891
874.206	14716
874.335	14807
874.464	14876
874.593	15127
874.722	15093
874.851	15112
874.979	15161
875.108	15127
875.237	15097
875.365	15116
875.494	15013
875.623	15260
875.751	15085
875.88	15131
876.008	15264
876.136	15370
876.265	15496
876.393	15759
876.521	15641
876.65	15747
876.778	15652
876.906	15618
877.034	15568
877.162	15667
877.29	15477
877.418	15622
877.546	15561
877.674	15629
877.802	15622
877.93	15591
878.058	15625
878.185	15469
878.313	15534
878.441	15542
878.568	15466
878.696	15564
878.824	15545
878.951	15701
879.079	15808
879.206	15873
879.333	15781
879.461	15587
879.588	15709
879.715	15686
879.842	15846
879.97	15622
880.097	15420
880.224	15401
880.351	15367
880.478	15408
880.605	15469
880.732	15408
880.859	15724
880.986	15386
881.112	15332
881.239	15310
881.366	15161
881.493	15157
881.619	15180
881.746	15085
881.872	15036
881.999	15089
882.125	15077
882.252	15097
882.378	15154
882.505	15264
882.631	15112
882.757	14948
882.883	14944
883.01	14883
883.136	14944
883.262	14899
883.388	14689
883.514	14876
883.64	14883
883.766	14861
883.892	14769
884.018	14788
884.143	14853
884.269	14994
884.395	14739
884.52	14514
884.646	14632
884.772	14511
884.897	14545
885.023	14697
885.148	14777
885.274	14739
885.399	14686
885.524	14720
885.65	14621
885.775	14625
885.9	14598
886.025	14731
886.15	14682
886.275	14701
886.4	14564
886.525	14610
886.65	14537
886.775	14526
886.9	14705
887.025	14826
887.149	14610
887.274	14374
887.399	14442
887.523	14389
887.648	14347
887.773	14298
887.897	14404
888.021	14507
888.146	14450
888.27	14457
888.395	14606
888.519	14469
888.643	14511
888.767	14533
888.891	14343
889.015	14313
889.139	14374
889.263	14298
889.387	14374
889.511	14571
889.635	14423
889.759	14278
889.883	14263
890.006	14377
890.13	14362
890.254	14282
890.377	14393
890.501	14107
890.624	14161
890.748	14214
890.871	14062
890.995	14008
891.118	13925
891.241	14012
891.364	13989
891.488	14088
891.611	13913
891.734	14062
891.857	14084
891.98	14012
892.103	14168
892.226	14050
892.349	14062
892.471	13925
892.594	13974
892.717	13986
892.839	14027
892.962	13993
893.085	14050
893.207	14103
893.33	13883
893.452	13898
893.575	14115
893.697	13974
893.819	14149
893.941	14271
894.064	14180
894.186	14050
894.308	14058
894.43	14157
894.552	14298
894.674	14183
894.796	14005
894.918	14088
895.04	14031
895.161	14062
895.283	14138
895.405	14081
895.526	14164
895.648	14168
895.769	14161
895.891	14290
896.012	14180
896.134	14180
896.255	14199
896.376	14069
896.498	14157
896.619	14214
896.74	14206
896.861	14328
896.982	14518
897.103	14659
897.224	14484
897.345	14457
897.466	14301
897.587	14446
897.708	14598
897.828	14484
897.949	14492
898.07	14423
898.19	14419
898.311	14667
898.431	14438
898.552	14503
898.672	14655
898.792	14648
898.913	14655
899.033	14461
899.153	14381
899.273	14301
899.393	14374
899.513	14370
899.633	14362
899.753	14366
899.873	14351
899.993	14358
900.113	14404
900.232	14381
900.352	14294
900.472	14309
900.591	14240
900.711	14336
900.83	14187
900.95	14400
901.069	14473
901.189	14168
901.308	14012
901.427	13940
901.546	13967
901.665	13997
901.784	14027
901.904	13849
902.023	13856
902.141	13533
902.26	13411
902.379	13601
902.498	13533
902.617	13445
902.735	13514
902.854	13422
902.973	13495
903.091	13213
903.21	13259
903.328	13202
903.446	13137
903.565	13061
903.683	13076
903.801	12951
903.919	13084
904.038	13057
904.156	12867
904.274	12981
904.392	12814
904.51	12894
904.627	12806
904.745	12844
904.863	12947
904.981	12730
905.098	12627
905.216	12669
905.334	12650
905.451	12532
905.569	12578
905.686	12608
905.803	12616
905.921	12342
906.038	12574
906.155	12407
906.272	12311
906.389	12357
906.506	12171
906.623	12133
906.74	12133
906.857	12057
906.974	12114
907.091	12197
907.208	12315
907.324	12167
907.441	12148
907.557	11950
907.674	11931
907.79	11897
907.907	11939
908.023	11977
908.139	11935
908.256	11908
908.372	11855
908.488	11821
908.604	11707
908.72	11638
908.836	11672
908.952	11688
909.068	11726
909.184	11745
909.3	11646
909.415	11726
909.531	11661
909.647	11493
909.762	11547
909.878	11551
909.993	11566
910.108	11433
910.224	11471
910.339	11482
910.454	11364
910.57	11265
910.685	11178
910.8	11596
910.915	11421
911.03	11410
911.145	11143
911.259	11174
911.374	11151
911.489	11102
911.604	11041
911.718	10896
911.833	10938
911.947	10858
912.062	10763
912.176	10915
912.291	10839
912.405	10930
912.519	11033
912.633	11037
912.748	10972
912.862	10793
912.976	10733
913.09	10622
913.204	10683
913.318	10774
913.431	10915
913.545	10896
913.659	10881
913.772	10809
913.886	10740
914	10653
914.113	10729
914.226	10839
914.34	10831
914.453	10660
914.566	10714
914.68	10599
914.793	10626
914.906	10459
915.019	10440
915.132	10459
915.245	10352
915.358	10474
915.47	10508
915.583	10546
915.696	10527
915.809	10546
915.921	10542
916.034	10440
916.146	10371
916.259	10360
916.371	10493
916.483	10424
916.595	10398
916.708	10402
916.82	10402
916.932	10356
917.044	10329
917.156	10344
917.268	10223
917.38	10284
917.491	10276
917.603	10223
917.715	10348
917.826	10382
917.938	10253
918.049	10097
918.161	10291
918.272	10421
918.384	10310
918.495	10265
918.606	10215
918.717	10017
918.828	10173
918.939	10185
919.05	10040
919.161	10128
919.272	9979
919.383	10059
919.494	10215
919.604	10363
919.715	10150
919.826	10029
919.936	10105
920.047	10261
920.157	10230
920.267	10421
920.378	10192
920.488	10169
920.598	10390
920.708	10489
920.818	10348
920.928	10337
921.038	10474
921.148	10481
921.258	10204
921.368	10139
921.477	9998
921.587	9991
921.697	9903
921.806	9983
921.916	9911
922.025	9698
922.134	9747
922.244	9781
922.353	9724
922.462	9584
922.571	9625
922.68	9500
922.789	9424
922.898	9386
923.007	9370
923.116	9553
923.224	9393
923.333	9450
923.442	9329
923.55	9264
923.659	9264
923.767	9329
923.876	9237
923.984	9310
924.092	9237
924.201	9291
924.309	9237
924.417	9283
924.525	9226
924.633	9207
924.741	10173
924.849	9047
924.956	9230
925.064	9093
925.172	9024
925.279	9009
925.387	9142
925.494	9047
925.602	9173
925.709	9142
925.816	9009
925.924	9062
926.031	9127
926.138	9001
926.245	9173
926.352	8975
926.459	9116
926.566	9176
926.673	9062
926.779	8902
926.886	8990
926.993	8823
927.099	8804
927.206	8724
927.312	8724
927.419	8830
927.525	8731
927.631	8849
927.737	8663
927.843	8743
927.95	8632
928.056	8610
928.162	8659
928.267	8777
928.373	9359
928.479	8807
928.585	8545
928.69	8716
928.796	8720
928.901	8579
929.007	8438
929.112	8629
929.218	8644
929.323	8533
929.428	8423
929.533	8648
929.638	8454
929.743	8431
929.848	8518
929.953	8465
930.058	8400
930.163	8244
930.267	8267
930.372	8404
930.477	8267
930.581	8526
930.685	8328
930.79	8214
930.894	8263
930.998	8176
931.103	8339
931.207	8088
931.311	7989
931.415	7868
931.519	7750
931.623	7757
