Data from test_V78500241_2638.txt Node
Date: Fri Mar 25 14:52:04 CST 2022
User: usil
Spectrometer: V785-0024
Trigger mode: 0
Integration Time (sec): 4.000000E-1
Scans to average: 1
Nonlinearity correction enabled: false
Boxcar width: 0
Storing dark spectrum: false
XAxis mode: Wavelengths
Number of Pixels in Spectrum: 1024
>>>>>Begin Spectral Data<<<<<
801.071	22063
801.214	22006
801.356	21736
801.499	21500
801.641	21443
801.783	21393
801.926	21424
802.068	21336
802.211	21245
802.353	21157
802.496	20933
802.638	20971
802.78	20891
802.923	20849
803.065	20769
803.208	20682
803.35	20689
803.492	20819
803.635	20906
803.777	20655
803.919	20724
804.061	21146
804.204	20708
804.346	20682
804.488	20511
804.63	20777
804.773	20518
804.915	20560
805.057	20644
805.199	20609
805.341	20777
805.483	20667
805.626	20552
805.768	20499
805.91	20545
806.052	20655
806.194	20503
806.336	20735
806.478	20526
806.62	20469
806.762	20598
806.904	20826
807.046	21055
807.188	20971
807.33	20918
807.472	21093
807.614	20826
807.756	20845
807.898	20842
808.04	20678
808.182	20606
808.324	20720
808.465	20724
808.607	20899
808.749	20842
808.891	20967
809.033	21131
809.174	21062
809.316	20845
809.458	20975
809.6	20937
809.741	21001
809.883	21100
810.025	21032
810.166	21024
810.308	21184
810.45	21058
810.591	21161
810.733	20864
810.875	20899
811.016	20682
811.158	20655
811.299	20826
811.441	20804
811.582	20781
811.724	20693
811.865	20735
812.007	20625
812.148	20708
812.29	20823
812.431	20933
812.573	21089
812.714	21047
812.855	21260
812.997	21424
813.138	21416
813.279	21325
813.421	21135
813.562	21218
813.703	20963
813.845	20883
813.986	20602
814.127	20484
814.268	20336
814.41	20252
814.551	20343
814.692	20328
814.833	20278
814.974	20240
815.115	20309
815.256	20183
815.397	20180
815.539	20176
815.68	20035
815.821	19887
815.962	20073
816.103	20065
816.244	19757
816.385	19712
816.526	19624
816.666	19556
816.807	19369
816.948	19518
817.089	19525
817.23	19582
817.371	19407
817.512	19381
817.653	19449
817.793	19381
817.934	19331
818.075	19316
818.216	19491
818.356	19343
818.497	19225
818.638	19088
818.778	19038
818.919	19133
819.06	19072
819.2	19331
819.341	19297
819.481	19217
819.622	19476
819.762	19601
819.903	19578
820.043	19480
820.184	19381
820.324	19400
820.465	19495
820.605	19422
820.746	19289
820.886	19259
821.026	19403
821.167	19266
821.307	19464
821.447	19293
821.588	19156
821.728	19019
821.868	19031
822.008	18859
822.149	18772
822.289	18764
822.429	18467
822.569	18601
822.709	18517
822.849	18323
822.99	18292
823.13	18201
823.27	18251
823.41	18125
823.55	18060
823.69	18129
823.83	18045
823.97	18034
824.11	17958
824.25	17859
824.389	17855
824.529	18007
824.669	17859
824.809	17923
824.949	17809
825.089	17897
825.228	17923
825.368	17775
825.508	17691
825.648	17726
825.787	17649
825.927	17653
826.067	17608
826.206	17600
826.346	17687
826.485	17638
826.625	17634
826.765	17703
826.904	17733
827.044	17425
827.183	17410
827.323	17330
827.462	17410
827.601	17459
827.741	17402
827.88	17296
828.02	17159
828.159	17269
828.298	17402
828.437	17436
828.577	17334
828.716	17482
828.855	17368
828.994	17208
829.134	17075
829.273	17143
829.412	16976
829.551	17079
829.69	17075
829.829	17090
829.968	17159
830.107	17174
830.246	17071
830.385	17025
830.524	17094
830.663	16984
830.802	16892
830.941	16679
831.08	16721
831.219	16862
831.357	16869
831.496	16923
831.635	16675
831.774	16615
831.913	16630
832.051	16565
832.19	16569
832.329	16672
832.467	16367
832.606	16421
832.744	16360
832.883	16443
833.022	16318
833.16	16470
833.299	16459
833.437	16542
833.576	16516
833.714	16474
833.852	16550
833.991	16519
834.129	16603
834.267	16558
834.406	16516
834.544	16561
834.682	16573
834.821	16466
834.959	16615
835.097	16497
835.235	16637
835.373	16409
835.511	16497
835.65	16459
835.788	16394
835.926	16200
836.064	16268
836.202	16318
836.34	16451
836.478	16516
836.615	16367
836.753	16284
836.891	16512
837.029	16462
837.167	16356
837.305	16280
837.443	16402
837.58	16306
837.718	16325
837.856	16295
837.993	16287
838.131	16394
838.269	16200
838.406	16188
838.544	16223
838.681	16097
838.819	15876
838.956	15861
839.094	15770
839.231	15831
839.369	16059
839.506	16295
839.643	16128
839.781	15930
839.918	15827
840.055	15899
840.193	15835
840.33	15915
840.467	15899
840.604	15789
840.742	16147
840.879	15736
841.016	15698
841.153	15709
841.29	15926
841.427	15865
841.564	15880
841.701	15846
841.838	15766
841.975	15755
842.112	15679
842.249	15637
842.385	15576
842.522	15770
842.659	15572
842.796	15553
842.933	15709
843.069	15549
843.206	15576
843.343	15732
843.479	15682
843.616	15625
843.752	15447
843.889	15462
844.025	15538
844.162	15317
844.298	15507
844.435	15447
844.571	15412
844.708	15405
844.844	15629
844.98	15545
845.117	15568
845.253	15412
845.389	15336
845.525	15511
845.661	15336
845.798	15176
845.934	15279
846.07	15169
846.206	15291
846.342	15325
846.478	15176
846.614	15013
846.75	14937
846.886	14910
847.022	15055
847.158	15005
847.294	15043
847.429	14994
847.565	14967
847.701	15184
847.837	14693
847.972	14613
848.108	14769
848.244	14743
848.379	14549
848.515	14621
848.65	14575
848.786	14552
848.921	14613
849.057	14663
849.192	14720
849.328	14610
849.463	14564
849.598	14522
849.734	14518
849.869	14541
850.004	14370
850.14	14328
850.275	14358
850.41	14244
850.545	14358
850.68	14324
850.815	14488
850.95	14355
851.085	14503
851.22	14412
851.355	14343
851.49	14278
851.625	14298
851.76	14347
851.895	14225
852.03	14214
852.165	14324
852.299	14324
852.434	14404
852.569	14415
852.703	14332
852.838	14393
852.973	14530
853.107	14374
853.242	14290
853.376	14153
853.511	14130
853.645	14145
853.78	14336
853.914	14180
854.048	14187
854.183	14180
854.317	14126
854.451	14275
854.585	14221
854.72	14229
854.854	14271
854.988	14123
855.122	14164
855.256	14142
855.39	14195
855.524	14282
855.658	14332
855.792	14233
855.926	14263
856.06	14301
856.194	14355
856.327	14187
856.461	14195
856.595	14221
856.729	14180
856.862	14252
856.996	14221
857.13	14244
857.263	14389
857.397	14324
857.53	14256
857.664	14298
857.797	14351
857.931	14389
858.064	14294
858.197	14355
858.331	14248
858.464	14142
858.597	14187
858.731	14183
858.864	14210
858.997	14180
859.13	14180
859.263	14267
859.396	14286
859.529	14180
859.662	14252
859.795	14164
859.928	14259
860.061	14324
860.194	14408
860.327	14275
860.46	14229
860.592	14237
860.725	14343
860.858	14374
860.99	14343
861.123	14111
861.256	14054
861.388	14202
861.521	14872
861.653	14180
861.786	14103
861.918	14058
862.05	14240
862.183	14100
862.315	14225
862.447	14221
862.58	14206
862.712	13993
862.844	13940
862.976	14031
863.108	13982
863.24	14446
863.372	13906
863.504	13944
863.636	14039
863.768	14088
863.9	13951
864.032	13917
864.164	13989
864.296	14046
864.428	14081
864.559	14096
864.691	14119
864.823	14065
864.954	14081
865.086	13955
865.217	13974
865.349	13883
865.48	14008
865.612	14020
865.743	14210
865.875	13974
866.006	13894
866.137	13898
866.269	13921
866.4	14020
866.531	13928
866.662	13928
866.793	13967
866.924	13909
867.055	14054
867.186	13955
867.317	13944
867.448	13887
867.579	13940
867.71	13917
867.841	13959
867.972	14024
868.103	13902
868.233	13986
868.364	14069
868.495	14054
868.625	14225
868.756	14290
868.886	14157
869.017	14218
869.147	14271
869.278	14358
869.408	14199
869.539	14252
869.669	14267
869.799	14206
869.929	14298
870.06	14355
870.19	14499
870.32	14533
870.45	14613
870.58	14613
870.71	14769
870.84	14731
870.97	14674
871.1	14613
871.23	14804
871.36	14773
871.489	14697
871.619	14701
871.749	14857
871.879	14887
872.008	14899
872.138	14883
872.267	14823
872.397	14716
872.526	14781
872.656	14678
872.785	14644
872.915	14792
873.044	14899
873.173	14899
873.303	14887
873.432	14887
873.561	14921
873.69	14986
873.819	14815
873.948	15005
874.077	14849
874.206	14765
874.335	14944
874.464	15093
874.593	15184
874.722	15097
874.851	15188
874.979	15211
875.108	15264
875.237	15214
875.365	15154
875.494	15211
875.623	15222
875.751	15070
875.88	15256
876.008	15408
876.136	15435
876.265	15606
876.393	15724
876.521	15770
876.65	15755
876.778	15603
876.906	15572
877.034	15504
877.162	15629
877.29	15603
877.418	15656
877.546	15686
877.674	15610
877.802	15606
877.93	15686
878.058	15561
878.185	15439
878.313	15618
878.441	15595
878.568	15534
878.696	15496
878.824	15656
878.951	15778
879.079	15797
879.206	15934
879.333	15835
879.461	15545
879.588	15705
879.715	15838
879.842	15842
879.97	15713
880.097	15511
880.224	15389
880.351	15428
880.478	15462
880.605	15481
880.732	15420
880.859	15701
880.986	15504
881.112	15500
881.239	15359
881.366	15214
881.493	15154
881.619	15093
881.746	15135
881.872	15146
881.999	15100
882.125	15085
882.252	15180
882.378	15188
882.505	15230
882.631	15077
882.757	15047
882.883	15024
883.01	14864
883.136	14845
883.262	14804
883.388	14754
883.514	15024
883.64	14891
883.766	14891
883.892	14712
884.018	14861
884.143	14857
884.269	15013
884.395	14804
884.52	14632
884.646	14674
884.772	14507
884.897	14522
885.023	14705
885.148	14743
885.274	14777
885.399	14689
885.524	14678
885.65	14629
885.775	14689
885.9	14625
886.025	14716
886.15	14716
886.275	14556
886.4	14545
886.525	14629
886.65	14568
886.775	14659
886.9	14727
887.025	14933
887.149	14667
887.274	14541
887.399	14446
887.523	14454
887.648	14537
887.773	14332
887.897	14507
888.021	14602
888.146	14473
888.27	14541
888.395	14537
888.519	14549
888.643	14511
888.767	14621
888.891	14450
889.015	14381
889.139	14495
889.263	14434
889.387	14415
889.511	14568
889.635	14461
889.759	14324
889.883	14339
890.006	14366
890.13	14518
890.254	14221
890.377	14252
890.501	14161
890.624	14149
890.748	14240
890.871	14065
890.995	14073
891.118	14020
891.241	13982
891.364	14126
891.488	14199
891.611	14119
891.734	14176
891.857	14119
891.98	14142
892.103	14161
892.226	14096
892.349	13925
892.471	13940
892.594	14081
892.717	14005
892.839	14035
892.962	14054
893.085	14115
893.207	14039
893.33	13959
893.452	14043
893.575	14157
893.697	14012
893.819	14164
893.941	14164
894.064	14252
894.186	14008
894.308	13970
894.43	14145
894.552	14313
894.674	14210
894.796	14043
894.918	14024
895.04	14119
895.161	14161
895.283	14130
895.405	14134
895.526	14115
895.648	14180
895.769	14214
895.891	14237
896.012	14210
896.134	14309
896.255	14187
896.376	14157
896.498	14210
896.619	14183
896.74	14278
896.861	14275
896.982	14446
897.103	14823
897.224	14446
897.345	14473
897.466	14438
897.587	14434
897.708	14674
897.828	14473
897.949	14423
898.07	14355
898.19	14400
898.311	14632
898.431	14503
898.552	14526
898.672	14552
898.792	14735
898.913	14708
899.033	14545
899.153	14389
899.273	14343
899.393	14389
899.513	14442
899.633	14492
899.753	14431
899.873	14374
899.993	14556
900.113	14400
900.232	14526
900.352	14423
900.472	14415
900.591	14206
900.711	14263
900.83	14263
900.95	14339
901.069	14484
901.189	14244
901.308	13989
901.427	13917
901.546	13974
901.665	13978
901.784	13970
901.904	13856
902.023	13696
902.141	13594
902.26	13525
902.379	13548
902.498	13544
902.617	13449
902.735	13495
902.854	13582
902.973	13445
903.091	13335
903.21	13316
903.328	13209
903.446	13160
903.565	13084
903.683	13050
903.801	12989
903.919	13076
904.038	13069
904.156	12932
904.274	12977
904.392	12962
904.51	12962
904.627	12935
904.745	13031
904.863	12954
904.981	12635
905.098	12593
905.216	12585
905.334	12612
905.451	12662
905.569	12604
905.686	12578
905.803	12673
905.921	12418
906.038	12506
906.155	12407
906.272	12277
906.389	12300
906.506	12140
906.623	12224
906.74	12228
906.857	12083
906.974	12144
907.091	12334
907.208	12304
907.324	12224
907.441	12091
907.557	12060
907.674	11942
907.79	11904
907.907	11874
908.023	12091
908.139	11969
908.256	11897
908.372	11870
908.488	11824
908.604	11676
908.72	11722
908.836	11745
908.952	11680
909.068	11672
909.184	11847
909.3	11745
909.415	11733
909.531	11722
909.647	11516
909.762	11425
909.878	11421
909.993	11539
910.108	11474
910.224	11410
910.339	11486
910.454	11452
910.57	11349
910.685	11269
910.8	11627
910.915	11474
911.03	11360
911.145	11246
911.259	11128
911.374	11197
911.489	11140
911.604	11056
911.718	10976
911.833	10953
911.947	10824
912.062	10725
912.176	10942
912.291	10976
912.405	10976
912.519	11121
912.633	11201
912.748	10995
912.862	11037
912.976	10915
913.09	10740
913.204	10748
913.318	10858
913.431	10957
913.545	10949
913.659	11010
913.772	10824
913.886	10733
914	10714
914.113	10782
914.226	10801
914.34	10736
914.453	10618
914.566	10801
914.68	10729
914.793	10683
914.906	10462
915.019	10493
915.132	10428
915.245	10421
915.358	10360
915.47	10493
915.583	10497
915.696	10474
915.809	10527
915.921	10645
916.034	10424
916.146	10360
916.259	10341
916.371	10474
916.483	10466
916.595	10337
916.708	10352
916.82	10386
916.932	10352
917.044	10238
917.156	10398
917.268	10185
917.38	10287
917.491	10272
917.603	10268
917.715	10360
917.826	10310
917.938	10280
918.049	10143
918.161	10371
918.272	10382
918.384	10428
918.495	10284
918.606	10181
918.717	10063
918.828	10173
918.939	10124
919.05	10090
919.161	10150
919.272	10006
919.383	10082
919.494	10230
919.604	10382
919.715	10238
919.826	10055
919.936	10154
920.047	10344
920.157	10192
920.267	10333
920.378	10166
920.488	10097
920.598	10417
920.708	10535
920.818	10375
920.928	10352
921.038	10569
921.148	10519
921.258	10204
921.368	10021
921.477	10010
921.587	10055
921.697	9895
921.806	10071
921.916	9907
922.025	9808
922.134	9717
922.244	9709
922.353	9812
922.462	9686
922.571	9637
922.68	9431
922.789	9454
922.898	9420
923.007	9393
923.116	9511
923.224	9504
923.333	9428
923.442	9325
923.55	9325
923.659	9329
923.767	9367
923.876	9264
923.984	9466
924.092	9249
924.201	9310
924.309	9275
924.417	9313
924.525	9214
924.633	9283
924.741	10036
924.849	9039
924.956	9184
925.064	9104
925.172	9043
925.279	9093
925.387	9077
925.494	9043
925.602	9230
925.709	9195
925.816	9005
925.924	9074
926.031	9161
926.138	9104
926.245	9249
926.352	9093
926.459	9112
926.566	9081
926.673	9017
926.779	8982
926.886	8971
926.993	8899
927.099	8853
927.206	8766
927.312	8735
927.419	8895
927.525	8708
927.631	8838
927.737	8743
927.843	8743
927.95	8621
928.056	8632
928.162	8739
928.267	8731
928.373	9329
928.479	8766
928.585	8564
928.69	8712
928.796	8750
928.901	8564
929.007	8518
929.112	8610
929.218	8590
929.323	8549
929.428	8514
929.533	8640
929.638	8511
929.743	8499
929.848	8560
929.953	8556
930.058	8434
930.163	8320
930.267	8256
930.372	8415
930.477	8271
930.581	8533
930.685	8408
930.79	8301
930.894	8282
930.998	8218
931.103	8362
931.207	7982
931.311	8016
931.415	7921
931.519	7769
931.623	7738
