Data from test_V78500241_1210.txt Node
Date: Fri Mar 25 14:42:08 CST 2022
User: usil
Spectrometer: V785-0024
Trigger mode: 0
Integration Time (sec): 4.000000E-1
Scans to average: 1
Nonlinearity correction enabled: false
Boxcar width: 0
Storing dark spectrum: false
XAxis mode: Wavelengths
Number of Pixels in Spectrum: 1024
>>>>>Begin Spectral Data<<<<<
801.071	22478
801.214	22314
801.356	21987
801.499	21888
801.641	21827
801.783	21827
801.926	21652
802.068	21591
802.211	21629
802.353	21564
802.496	21317
802.638	21230
802.78	21237
802.923	21154
803.065	21017
803.208	20998
803.35	21154
803.492	21009
803.635	21283
803.777	21100
803.919	21051
804.061	21374
804.204	21226
804.346	21100
804.488	21039
804.63	20971
804.773	20921
804.915	21279
805.057	21062
805.199	20998
805.341	21112
805.483	21096
805.626	21089
805.768	21039
805.91	21077
806.052	20975
806.194	20963
806.336	21085
806.478	21058
806.62	20990
806.762	21077
806.904	21214
807.046	21389
807.188	21389
807.33	21340
807.472	21359
807.614	21397
807.756	21313
807.898	21230
808.04	21116
808.182	21047
808.324	21146
808.465	21302
808.607	21408
808.749	21492
808.891	21458
809.033	21561
809.174	21561
809.316	21389
809.458	21534
809.6	21359
809.741	21534
809.883	21549
810.025	21686
810.166	21507
810.308	21587
810.45	21477
810.591	21462
810.733	21348
810.875	21180
811.016	21150
811.158	21036
811.299	21389
811.441	21310
811.582	21405
811.724	21203
811.865	21173
812.007	21226
812.148	21116
812.29	21207
812.431	21287
812.573	21591
812.714	21526
812.855	21618
812.997	21720
813.138	21945
813.279	21816
813.421	21747
813.562	21618
813.703	21526
813.845	21382
813.986	20952
814.127	20788
814.268	20872
814.41	20796
814.551	20788
814.692	20800
814.833	20739
814.974	20708
815.115	20659
815.256	20507
815.397	20564
815.539	20648
815.68	20457
815.821	20480
815.962	20560
816.103	20434
816.244	20366
816.385	20244
816.526	20271
816.666	20081
816.807	19868
816.948	19986
817.089	20119
817.23	19963
817.371	19887
817.512	19753
817.653	19822
817.793	19795
817.934	19890
818.075	19875
818.216	19970
818.356	19852
818.497	19643
818.638	19514
818.778	19609
818.919	19601
819.06	19658
819.2	19799
819.341	19719
819.481	19750
819.622	19818
819.762	20054
819.903	20065
820.043	19917
820.184	19833
820.324	19909
820.465	19925
820.605	19849
820.746	19921
820.886	19780
821.026	19837
821.167	19871
821.307	19875
821.447	19822
821.588	19727
821.728	19590
821.868	19419
822.008	19293
822.149	19285
822.289	19244
822.429	19103
822.569	19027
822.709	18954
822.849	18791
822.99	18821
823.13	18795
823.27	18840
823.41	18593
823.55	18551
823.69	18627
823.83	18582
823.97	18544
824.11	18422
824.25	18338
824.389	18319
824.529	18448
824.669	18254
824.809	18471
824.949	18429
825.089	18395
825.228	18372
825.368	18346
825.508	18209
825.648	18190
825.787	18209
825.927	18213
826.067	18186
826.206	18060
826.346	18136
826.485	18254
826.625	18186
826.765	18220
826.904	18106
827.044	17965
827.183	17859
827.323	17821
827.462	17870
827.601	17885
827.741	17874
827.88	17779
828.02	17726
828.159	17794
828.298	17942
828.437	17855
828.577	17836
828.716	17954
828.855	17885
828.994	17634
829.134	17501
829.273	17630
829.412	17566
829.551	17570
829.69	17581
829.829	17554
829.968	17760
830.107	17520
830.246	17691
830.385	17543
830.524	17406
830.663	17410
830.802	17299
830.941	17174
831.08	17216
831.219	17273
831.357	17231
831.496	17509
831.635	17318
831.774	17117
831.913	17124
832.051	16942
832.19	17086
832.329	17037
832.467	17014
832.606	16915
832.744	16892
832.883	16953
833.022	16812
833.16	16904
833.299	16976
833.437	16862
833.576	17083
833.714	16991
833.852	17083
833.991	17018
834.129	17022
834.267	17037
834.406	16972
834.544	17037
834.682	17048
834.821	16801
834.959	17090
835.097	16934
835.235	16980
835.373	17010
835.511	17014
835.65	16904
835.788	16923
835.926	16740
836.064	16637
836.202	16668
836.34	16889
836.478	16915
836.615	16790
836.753	17025
836.891	16938
837.029	16877
837.167	16828
837.305	16809
837.443	16782
837.58	16672
837.718	16885
837.856	16767
837.993	16771
838.131	16889
838.269	16668
838.406	16607
838.544	16713
838.681	16512
838.819	16428
838.956	16299
839.094	16310
839.231	16382
839.369	16424
839.506	16698
839.643	16535
839.781	16375
839.918	16226
840.055	16303
840.193	16314
840.33	16390
840.467	16265
840.604	16291
840.742	16493
840.879	16154
841.016	16177
841.153	16230
841.29	16489
841.427	16211
841.564	16379
841.701	16344
841.838	16329
841.975	16344
842.112	16314
842.249	16048
842.385	16128
842.522	16261
842.659	16211
842.796	16158
842.933	16025
843.069	16105
843.206	16025
843.343	16124
843.479	16124
843.616	16105
843.752	15895
843.889	15831
844.025	15994
844.162	15842
844.298	16002
844.435	15911
844.571	15800
844.708	15918
844.844	16017
844.98	15991
845.117	16097
845.253	15899
845.389	15778
845.525	15816
845.661	15755
845.798	15709
845.934	15819
846.07	15629
846.206	15789
846.342	15827
846.478	15793
846.614	15557
846.75	15500
846.886	15507
847.022	15603
847.158	15450
847.294	15477
847.429	15534
847.565	15359
847.701	15576
847.837	15192
847.972	15154
848.108	15249
848.244	15237
848.379	15192
848.515	15093
848.65	15058
848.786	15062
848.921	15062
849.057	15188
849.192	15131
849.328	15070
849.463	15043
849.598	15112
849.734	14994
849.869	14929
850.004	14826
850.14	14853
850.275	14861
850.41	14731
850.545	14697
850.68	14857
850.815	14944
850.95	14807
851.085	14960
851.22	14941
851.355	14785
851.49	14716
851.625	14906
851.76	14758
851.895	14674
852.03	14705
852.165	14796
852.299	14872
852.434	14895
852.569	14899
852.703	14773
852.838	14921
852.973	14956
853.107	14925
853.242	14701
853.376	14720
853.511	14537
853.645	14697
853.78	14796
853.914	14636
854.048	14678
854.183	14708
854.317	14800
854.451	14864
854.585	14682
854.72	14670
854.854	14720
854.988	14621
855.122	14663
855.256	14457
855.39	14663
855.524	14769
855.658	14750
855.792	14762
855.926	14693
856.06	14788
856.194	14845
856.327	14800
856.461	14659
856.595	14670
856.729	14583
856.862	14735
856.996	14788
857.13	14689
857.263	14883
857.397	14762
857.53	14720
857.664	14674
857.797	14826
857.931	14655
858.064	14705
858.197	14853
858.331	14678
858.464	14602
858.597	14511
858.731	14678
858.864	14659
858.997	14648
859.13	14788
859.263	14667
859.396	14792
859.529	14670
859.662	14632
859.795	14640
859.928	14659
860.061	14868
860.194	14941
860.327	14750
860.46	14663
860.592	14838
860.725	14864
860.858	14708
860.99	14655
861.123	14571
861.256	14606
861.388	14659
861.521	15416
861.653	14507
861.786	14469
861.918	14526
862.05	14590
862.183	14610
862.315	14693
862.447	14769
862.58	14522
862.712	14537
862.844	14370
862.976	14514
863.108	14454
863.24	14910
863.372	14461
863.504	14431
863.636	14381
863.768	14511
863.9	14408
864.032	14415
864.164	14415
864.296	14476
864.428	14560
864.559	14541
864.691	14629
864.823	14511
864.954	14495
865.086	14575
865.217	14393
865.349	14431
865.48	14465
865.612	14484
865.743	14659
865.875	14385
866.006	14473
866.137	14473
866.269	14351
866.4	14400
866.531	14404
866.662	14347
866.793	14389
866.924	14518
867.055	14434
867.186	14492
867.317	14320
867.448	14393
867.579	14309
867.71	14332
867.841	14347
867.972	14473
868.103	14415
868.233	14484
868.364	14545
868.495	14438
868.625	14697
868.756	14754
868.886	14549
869.017	14632
869.147	14739
869.278	14754
869.408	14788
869.539	14731
869.669	14845
869.799	14655
869.929	14785
870.06	14792
870.19	14918
870.32	14998
870.45	15051
870.58	15077
870.71	15298
870.84	15195
870.97	15089
871.1	15020
871.23	15207
871.36	15252
871.489	15214
871.619	15203
871.749	15325
871.879	15291
872.008	15424
872.138	15233
872.267	15264
872.397	15169
872.526	15066
872.656	15131
872.785	15112
872.915	15245
873.044	15329
873.173	15279
873.303	15344
873.432	15325
873.561	15397
873.69	15367
873.819	15272
873.948	15412
874.077	15359
874.206	15306
874.335	15321
874.464	15534
874.593	15599
874.722	15610
874.851	15603
874.979	15629
875.108	15705
875.237	15561
875.365	15504
875.494	15603
875.623	15644
875.751	15545
875.88	15701
876.008	15762
876.136	15854
876.265	16051
876.393	16211
876.521	16086
876.65	16135
876.778	16105
876.906	16017
877.034	15922
877.162	16082
877.29	15953
877.418	16040
877.546	16040
877.674	16090
877.802	16013
877.93	16025
878.058	16101
878.185	15903
878.313	16071
878.441	16029
878.568	15899
878.696	15918
878.824	16071
878.951	16147
879.079	16265
879.206	16402
879.333	16280
879.461	16090
879.588	16253
879.715	16242
879.842	16432
879.97	16211
880.097	15888
880.224	15915
880.351	16010
880.478	15968
880.605	15895
880.732	15873
880.859	16162
880.986	15941
881.112	15953
881.239	15789
881.366	15720
881.493	15751
881.619	15545
881.746	15462
881.872	15443
881.999	15485
882.125	15526
882.252	15507
882.378	15485
882.505	15762
882.631	15488
882.757	15466
882.883	15389
883.01	15439
883.136	15233
883.262	15222
883.388	15241
883.514	15325
883.64	15568
883.766	15283
883.892	15226
884.018	15131
884.143	15359
884.269	15405
884.395	15241
884.52	15047
884.646	15104
884.772	15047
884.897	15001
885.023	14963
885.148	15051
885.274	15211
885.399	15222
885.524	15093
885.65	15116
885.775	15135
885.9	15157
886.025	15192
886.15	15138
886.275	14971
886.4	14925
886.525	15070
886.65	15013
886.775	14994
886.9	15176
887.025	15340
887.149	14967
887.274	14937
887.399	14800
887.523	14876
887.648	14868
887.773	14743
887.897	14986
888.021	14952
888.146	14807
888.27	14963
888.395	14929
888.519	14971
888.643	14967
888.767	15089
888.891	14754
889.015	14785
889.139	14693
889.263	14708
889.387	14956
889.511	14933
889.635	14883
889.759	14625
889.883	14796
890.006	14750
890.13	14918
890.254	14724
890.377	14712
890.501	14625
890.624	14606
890.748	14610
890.871	14594
890.995	14446
891.118	14294
891.241	14415
891.364	14476
891.488	14590
891.611	14541
891.734	14446
891.857	14606
891.98	14476
892.103	14457
892.226	14495
892.349	14465
892.471	14313
892.594	14320
892.717	14434
892.839	14514
892.962	14488
893.085	14560
893.207	14514
893.33	14278
893.452	14492
893.575	14533
893.697	14461
893.819	14636
893.941	14724
894.064	14629
894.186	14484
894.308	14434
894.43	14632
894.552	14739
894.674	14583
894.796	14480
894.918	14514
895.04	14476
895.161	14579
895.283	14571
895.405	14560
895.526	14594
895.648	14579
895.769	14689
895.891	14598
896.012	14724
896.134	14629
896.255	14686
896.376	14556
896.498	14602
896.619	14807
896.74	14629
896.861	14667
896.982	14982
897.103	15180
897.224	14975
897.345	14914
897.466	14868
897.587	14845
897.708	14982
897.828	14914
897.949	14769
898.07	14762
898.19	14811
898.311	15009
898.431	14876
898.552	14918
898.672	15108
898.792	15112
898.913	15070
899.033	14994
899.153	14910
899.273	14667
899.393	14727
899.513	14830
899.633	14804
899.753	14857
899.873	14887
899.993	14845
900.113	14891
900.232	14876
900.352	14811
900.472	14788
900.591	14701
900.711	14701
900.83	14629
900.95	14788
901.069	14750
901.189	14674
901.308	14438
901.427	14282
901.546	14393
901.665	14324
901.784	14419
901.904	14282
902.023	14176
902.141	13959
902.26	13890
902.379	14027
902.498	13883
902.617	13860
902.735	13917
902.854	13928
902.973	13833
903.091	13708
903.21	13658
903.328	13620
903.446	13483
903.565	13472
903.683	13597
903.801	13396
903.919	13369
904.038	13472
904.156	13324
904.274	13358
904.392	13289
904.51	13293
904.627	13403
904.745	13285
904.863	13327
904.981	13156
905.098	12966
905.216	12962
905.334	12989
905.451	12924
905.569	12985
905.686	13031
905.803	12977
905.921	12730
906.038	12897
906.155	12837
906.272	12684
906.389	12749
906.506	12681
906.623	12593
906.74	12525
906.857	12452
906.974	12486
907.091	12593
907.208	12726
907.324	12570
907.441	12555
907.557	12308
907.674	12323
907.79	12289
907.907	12323
908.023	12429
908.139	12334
908.256	12224
908.372	12190
908.488	12163
908.604	12194
908.72	12045
908.836	12015
908.952	12098
909.068	12114
909.184	12190
909.3	12091
909.415	12053
909.531	12038
909.647	11832
909.762	11764
909.878	11805
909.993	11885
910.108	11767
910.224	11790
910.339	11874
910.454	11691
910.57	11646
910.685	11714
910.8	11889
910.915	11897
911.03	11718
911.145	11627
911.259	11440
911.374	11501
911.489	11387
911.604	11429
911.718	11280
911.833	11261
911.947	11212
912.062	11140
912.176	11132
912.291	11322
912.405	11307
912.519	11505
912.633	11547
912.748	11383
912.862	11223
912.976	11220
913.09	11079
913.204	11140
913.318	11132
913.431	11227
913.545	11250
913.659	11258
913.772	11189
913.886	11014
914	11083
914.113	11067
914.226	11155
914.34	11159
914.453	10908
914.566	11128
914.68	10953
914.793	10980
914.906	10812
915.019	10698
915.132	10653
915.245	10843
915.358	10816
915.47	10767
915.583	10771
915.696	10778
915.809	10938
915.921	10889
916.034	10778
916.146	10755
916.259	10698
916.371	10816
916.483	10767
916.595	10687
916.708	10710
916.82	10714
916.932	10725
917.044	10778
917.156	10714
917.268	10504
917.38	10694
917.491	10584
917.603	10626
917.715	10611
917.826	10660
917.938	10626
918.049	10466
918.161	10580
918.272	10767
918.384	10736
918.495	10569
918.606	10470
918.717	10459
918.828	10455
918.939	10508
919.05	10413
919.161	10398
919.272	10276
919.383	10379
919.494	10500
919.604	10592
919.715	10455
919.826	10424
919.936	10440
920.047	10603
920.157	10474
920.267	10675
920.378	10519
920.488	10478
920.598	10630
920.708	10828
920.818	10679
920.928	10710
921.038	10801
921.148	10858
921.258	10565
921.368	10462
921.477	10337
921.587	10318
921.697	10280
921.806	10318
921.916	10249
922.025	9964
922.134	10044
922.244	10006
922.353	10048
922.462	9907
922.571	9797
922.68	9755
922.789	9732
922.898	9781
923.007	9622
923.116	9694
923.224	9667
923.333	9743
923.442	9641
923.55	9625
923.659	9606
923.767	9724
923.876	9447
923.984	9629
924.092	9568
924.201	9549
924.309	9606
924.417	9564
924.525	9488
924.633	9576
924.741	10261
924.849	9336
924.956	9454
925.064	9336
925.172	9188
925.279	9363
925.387	9344
925.494	9378
925.602	9492
925.709	9412
925.816	9264
925.924	9344
926.031	9458
926.138	9374
926.245	9386
926.352	9287
926.459	9401
926.566	9523
926.673	9272
926.779	9214
926.886	9165
926.993	9142
927.099	9036
927.206	9043
927.312	8948
927.419	9116
927.525	9077
927.631	9135
927.737	8944
927.843	8944
927.95	8887
928.056	8967
928.162	8918
928.267	9028
928.373	9625
928.479	9066
928.585	8826
928.69	8918
928.796	8937
928.901	8815
929.007	8712
929.112	8826
929.218	8857
929.323	8785
929.428	8670
929.533	8857
929.638	8708
929.743	8758
929.848	8781
929.953	8819
930.058	8655
930.163	8556
930.267	8568
930.372	8678
930.477	8518
930.581	8720
930.685	8594
930.79	8434
930.894	8556
930.998	8434
931.103	8640
931.207	8271
931.311	8206
931.415	8107
931.519	8031
931.623	8031
