Data from test_V78500241_1100.txt Node
Date: Fri Mar 25 14:41:22 CST 2022
User: usil
Spectrometer: V785-0024
Trigger mode: 0
Integration Time (sec): 4.000000E-1
Scans to average: 1
Nonlinearity correction enabled: false
Boxcar width: 0
Storing dark spectrum: false
XAxis mode: Wavelengths
Number of Pixels in Spectrum: 1024
>>>>>Begin Spectral Data<<<<<
801.071	22816
801.214	22516
801.356	22261
801.499	22177
801.641	22124
801.783	22048
801.926	22070
802.068	21876
802.211	21873
802.353	21831
802.496	21564
802.638	21496
802.78	21515
802.923	21424
803.065	21355
803.208	21203
803.35	21405
803.492	21561
803.635	21477
803.777	21230
803.919	21504
804.061	21679
804.204	21443
804.346	21218
804.488	21260
804.63	21260
804.773	21203
804.915	21260
805.057	21389
805.199	21268
805.341	21283
805.483	21477
805.626	21256
805.768	21256
805.91	21378
806.052	21351
806.194	21325
806.336	21393
806.478	21325
806.62	21294
806.762	21348
806.904	21481
807.046	21793
807.188	21732
807.33	21652
807.472	21823
807.614	21610
807.756	21732
807.898	21595
808.04	21564
808.182	21587
808.324	21671
808.465	21823
808.607	21991
808.749	21991
808.891	22143
809.033	22276
809.174	22112
809.316	22055
809.458	21903
809.6	21922
809.741	21934
809.883	21892
810.025	22063
810.166	21926
810.308	21922
810.45	21945
810.591	21766
810.733	21633
810.875	21591
811.016	21458
811.158	21450
811.299	21564
811.441	21610
811.582	21686
811.724	21557
811.865	21416
812.007	21500
812.148	21511
812.29	21477
812.431	21667
812.573	21793
812.714	21987
812.855	21895
812.997	22226
813.138	22185
813.279	22150
813.421	22067
813.562	22029
813.703	21755
813.845	21606
813.986	21298
814.127	21203
814.268	21112
814.41	21138
814.551	21138
814.692	20963
814.833	20914
814.974	20975
815.115	20982
815.256	20918
815.397	20910
815.539	20823
815.68	20800
815.821	20674
815.962	20792
816.103	20781
816.244	20701
816.385	20480
816.526	20537
816.666	20362
816.807	20164
816.948	20244
817.089	20355
817.23	20271
817.371	20263
817.512	20096
817.653	20187
817.793	20081
817.934	20161
818.075	20134
818.216	20206
818.356	20153
818.497	19967
818.638	19811
818.778	19917
818.919	19818
819.06	19906
819.2	19989
819.341	20134
819.481	20081
819.622	20168
819.762	20389
819.903	20259
820.043	20290
820.184	20172
820.324	20199
820.465	20259
820.605	20282
820.746	20161
820.886	20050
821.026	20180
821.167	20069
821.307	20240
821.447	20096
821.588	20050
821.728	19830
821.868	19677
822.008	19616
822.149	19616
822.289	19578
822.429	19202
822.569	19232
822.709	19206
822.849	19168
822.99	19076
823.13	18989
823.27	18989
823.41	18897
823.55	18798
823.69	18890
823.83	18928
823.97	18814
824.11	18608
824.25	18578
824.389	18798
824.529	18661
824.669	18658
824.809	18745
824.949	18772
825.089	18802
825.228	18650
825.368	18570
825.508	18399
825.648	18475
825.787	18464
825.927	18353
826.067	18410
826.206	18433
826.346	18437
826.485	18353
826.625	18426
826.765	18612
826.904	18437
827.044	18152
827.183	18171
827.323	18026
827.462	18281
827.601	18121
827.741	18144
827.88	18110
828.02	18110
828.159	18083
828.298	18053
828.437	18205
828.577	18098
828.716	18140
828.855	18030
828.994	17931
829.134	17855
829.273	17885
829.412	17805
829.551	17798
829.69	17866
829.829	17980
829.968	18026
830.107	17901
830.246	17912
830.385	17775
830.524	17687
830.663	17615
830.802	17581
830.941	17535
831.08	17436
831.219	17558
831.357	17524
831.496	17695
831.635	17509
831.774	17452
831.913	17318
832.051	17178
832.19	17368
832.329	17349
832.467	17200
832.606	17189
832.744	17223
832.883	17212
833.022	17109
833.16	17239
833.299	17178
833.437	17299
833.576	17250
833.714	17307
833.852	17216
833.991	17231
834.129	17318
834.267	17318
834.406	17227
834.544	17337
834.682	17318
834.821	17220
834.959	17391
835.097	17189
835.235	17311
835.373	17185
835.511	17216
835.65	17193
835.788	17159
835.926	17022
836.064	16987
836.202	16984
836.34	17132
836.478	17349
836.615	17143
836.753	17128
836.891	17402
837.029	17128
837.167	17056
837.305	17075
837.443	17117
837.58	17060
837.718	17094
837.856	17003
837.993	16847
838.131	17029
838.269	16946
838.406	16927
838.544	16965
838.681	16759
838.819	16626
838.956	16599
839.094	16607
839.231	16675
839.369	16691
839.506	16965
839.643	16793
839.781	16584
839.918	16466
840.055	16558
840.193	16527
840.33	16485
840.467	16504
840.604	16542
840.742	16820
840.879	16375
841.016	16527
841.153	16386
841.29	16615
841.427	16561
841.564	16607
841.701	16599
841.838	16436
841.975	16424
842.112	16500
842.249	16405
842.385	16299
842.522	16577
842.659	16459
842.796	16295
842.933	16356
843.069	16276
843.206	16314
843.343	16417
843.479	16246
843.616	16352
843.752	16090
843.889	16112
844.025	16215
844.162	16154
844.298	16238
844.435	16101
844.571	16055
844.708	16196
844.844	16299
844.98	16299
845.117	16226
845.253	16082
845.389	16128
845.525	16223
845.661	16314
845.798	16246
845.934	16386
846.07	16356
846.206	16459
846.342	16352
846.478	16200
846.614	15854
846.75	15747
846.886	15713
847.022	15770
847.158	15652
847.294	15755
847.429	15770
847.565	15739
847.701	15903
847.837	15401
847.972	15500
848.108	15462
848.244	15420
848.379	15321
848.515	15222
848.65	15325
848.786	15302
848.921	15214
849.057	15424
849.192	15405
849.328	15310
849.463	15359
849.598	15291
849.734	15089
849.869	15127
850.004	15058
850.14	14994
850.275	15135
850.41	14971
850.545	15028
850.68	14906
850.815	15058
850.95	15112
851.085	15211
851.22	15039
851.355	15135
851.49	15009
851.625	15001
851.76	15005
851.895	14906
852.03	14834
852.165	15005
852.299	15066
852.434	15127
852.569	15039
852.703	15093
852.838	15093
852.973	15264
853.107	15222
853.242	15013
853.376	14967
853.511	14910
853.645	14861
853.78	15017
853.914	14952
854.048	14838
854.183	14792
854.317	14887
854.451	15062
854.585	14975
854.72	14880
854.854	14929
854.988	14727
855.122	14872
855.256	14781
855.39	14883
855.524	15017
855.658	14944
855.792	14910
855.926	14971
856.06	14998
856.194	15081
856.327	14876
856.461	14792
856.595	14914
856.729	14853
856.862	15005
856.996	14941
857.13	15005
857.263	15070
857.397	15020
857.53	14925
857.664	14921
857.797	15028
857.931	15009
858.064	14887
858.197	14979
858.331	14979
858.464	14864
858.597	14792
858.731	14918
858.864	14880
858.997	14815
859.13	14918
859.263	15058
859.396	14975
859.529	14929
859.662	14838
859.795	14883
859.928	14956
860.061	14994
860.194	15066
860.327	14971
860.46	14937
860.592	14990
860.725	15005
860.858	15051
860.99	14921
861.123	14826
861.256	14819
861.388	14887
861.521	15660
861.653	14769
861.786	14792
861.918	14727
862.05	14834
862.183	14921
862.315	14845
862.447	14956
862.58	14845
862.712	14693
862.844	14590
862.976	14720
863.108	14762
863.24	15154
863.372	14533
863.504	14526
863.636	14625
863.768	14804
863.9	14697
864.032	14571
864.164	14693
864.296	14781
864.428	14891
864.559	14758
864.691	14758
864.823	14697
864.954	14746
865.086	14663
865.217	14629
865.349	14518
865.48	14632
865.612	14651
865.743	14853
865.875	14575
866.006	14663
866.137	14640
866.269	14727
866.4	14670
866.531	14727
866.662	14556
866.793	14648
866.924	14621
867.055	14701
867.186	14640
867.317	14587
867.448	14461
867.579	14598
867.71	14522
867.841	14587
867.972	14651
868.103	14594
868.233	14693
868.364	14693
868.495	14705
868.625	14872
868.756	15043
868.886	14842
869.017	14918
869.147	14956
869.278	14948
869.408	14925
869.539	14861
869.669	15013
869.799	14960
869.929	14986
870.06	14967
870.19	15131
870.32	15180
870.45	15260
870.58	15310
870.71	15378
870.84	15450
870.97	15298
871.1	15245
871.23	15473
871.36	15530
871.489	15374
871.619	15504
871.749	15386
871.879	15534
872.008	15606
872.138	15507
872.267	15481
872.397	15359
872.526	15332
872.656	15214
872.785	15363
872.915	15526
873.044	15523
873.173	15526
873.303	15564
873.432	15644
873.561	15603
873.69	15488
873.819	15694
873.948	15641
874.077	15572
874.206	15534
874.335	15466
874.464	15705
874.593	15766
874.722	15682
874.851	15876
874.979	15778
875.108	15854
875.237	15781
875.365	15835
875.494	15713
875.623	15873
875.751	15884
875.88	15934
876.008	16055
876.136	15972
876.265	16291
876.393	16436
876.521	16356
876.65	16322
876.778	16257
876.906	16200
877.034	16173
877.162	16215
877.29	16196
877.418	16200
877.546	16200
877.674	16223
877.802	16181
877.93	16249
878.058	16154
878.185	16169
878.313	16299
878.441	16310
878.568	16059
878.696	16207
878.824	16333
878.951	16348
879.079	16500
879.206	16755
879.333	16622
879.461	16596
879.588	16580
879.715	16801
879.842	16805
879.97	16481
880.097	16322
880.224	16303
880.351	16230
880.478	16177
880.605	16135
880.732	16105
880.859	16466
880.986	16135
881.112	16162
881.239	15975
881.366	16010
881.493	15739
881.619	15789
881.746	15835
881.872	15831
881.999	15766
882.125	15732
882.252	15766
882.378	15812
882.505	16006
882.631	15770
882.757	15679
882.883	15648
883.01	15656
883.136	15492
883.262	15515
883.388	15454
883.514	15663
883.64	15599
883.766	15576
883.892	15458
884.018	15420
884.143	15591
884.269	15694
884.395	15477
884.52	15310
884.646	15382
884.772	15199
884.897	15283
885.023	15294
885.148	15428
885.274	15408
885.399	15351
885.524	15233
885.65	15260
885.775	15416
885.9	15226
886.025	15477
886.15	15408
886.275	15325
886.4	15237
886.525	15310
886.65	15230
886.775	15260
886.9	15389
887.025	15485
887.149	15192
887.274	15135
887.399	15127
887.523	15097
887.648	14982
887.773	14956
887.897	15214
888.021	15272
888.146	15100
888.27	15260
888.395	15233
888.519	15180
888.643	15127
888.767	15108
888.891	15074
889.015	14956
889.139	15024
889.263	14906
889.387	15036
889.511	15245
889.635	15093
889.759	15028
889.883	14777
890.006	15138
890.13	15009
890.254	14864
890.377	14899
890.501	14758
890.624	14724
890.748	14826
890.871	14777
890.995	14689
891.118	14568
891.241	14598
891.364	14568
891.488	14674
891.611	14659
891.734	14507
891.857	14705
891.98	14617
892.103	14655
892.226	14708
892.349	14571
892.471	14514
892.594	14678
892.717	14663
892.839	14625
892.962	14739
893.085	14708
893.207	14659
893.33	14514
893.452	14552
893.575	14769
893.697	14617
893.819	14674
893.941	14773
894.064	14762
894.186	14617
894.308	14590
894.43	14716
894.552	14804
894.674	14731
894.796	14602
894.918	14587
895.04	14621
895.161	14769
895.283	14667
895.405	14507
895.526	14754
895.648	14724
895.769	14788
895.891	14708
896.012	14861
896.134	14880
896.255	14773
896.376	14697
896.498	14739
896.619	14845
896.74	14804
896.861	14834
896.982	15119
897.103	15195
897.224	15123
897.345	15024
897.466	14986
897.587	15066
897.708	15233
897.828	15028
897.949	15047
898.07	14899
898.19	15036
898.311	15256
898.431	15051
898.552	15062
898.672	15218
898.792	15135
898.913	15268
899.033	15051
899.153	15116
899.273	14929
899.393	15039
899.513	14990
899.633	14864
899.753	14975
899.873	14960
899.993	14986
900.113	15062
900.232	15039
900.352	14998
900.472	14990
900.591	14746
900.711	14826
900.83	14746
900.95	14929
901.069	14925
901.189	14758
901.308	14556
901.427	14434
901.546	14484
901.665	14473
901.784	14408
901.904	14351
902.023	14328
902.141	14096
902.26	14081
902.379	14252
902.498	14046
902.617	13989
902.735	14005
902.854	14031
902.973	14043
903.091	13814
903.21	13864
903.328	13677
903.446	13685
903.565	13715
903.683	13594
903.801	13571
903.919	13559
904.038	13518
904.156	13491
904.274	13438
904.392	13525
904.51	13384
904.627	13312
904.745	13422
904.863	13419
904.981	13152
905.098	13164
905.216	13061
905.334	13149
905.451	13152
905.569	13206
905.686	13133
905.803	13175
905.921	12947
906.038	13099
906.155	12993
906.272	12768
906.389	12806
906.506	12703
906.623	12681
906.74	12639
906.857	12616
906.974	12521
907.091	12768
907.208	12878
907.324	12753
907.441	12620
907.557	12486
907.674	12441
907.79	12361
907.907	12426
908.023	12410
908.139	12467
908.256	12376
908.372	12399
908.488	12346
908.604	12251
908.72	12251
908.836	12152
908.952	12125
909.068	12083
909.184	12403
909.3	12262
909.415	12285
909.531	12235
909.647	11977
909.762	11939
909.878	11996
909.993	11961
910.108	11980
910.224	11897
910.339	11984
910.454	11794
910.57	11771
910.685	11722
910.8	12034
910.915	12003
911.03	11817
911.145	11608
911.259	11573
911.374	11638
911.489	11646
911.604	11509
911.718	11421
911.833	11406
911.947	11250
912.062	11193
912.176	11349
912.291	11345
912.405	11376
912.519	11600
912.633	11581
912.748	11429
912.862	11433
912.976	11269
913.09	11132
913.204	11254
913.318	11292
913.431	11379
913.545	11307
913.659	11417
913.772	11284
913.886	11216
914	11067
914.113	11303
914.226	11250
914.34	11201
914.453	11132
914.566	11223
914.68	11162
914.793	11098
914.906	10976
915.019	10839
915.132	10759
915.245	10930
915.358	10915
915.47	10862
915.583	10900
915.696	10892
915.809	11010
915.921	11003
916.034	10889
916.146	10820
916.259	10850
916.371	10953
916.483	10892
916.595	10767
916.708	10767
916.82	10721
916.932	10847
917.044	10805
917.156	10702
917.268	10763
917.38	10675
917.491	10706
917.603	10782
917.715	10786
917.826	10828
917.938	10656
918.049	10580
918.161	10683
918.272	10896
918.384	10831
918.495	10717
918.606	10550
918.717	10474
918.828	10565
918.939	10558
919.05	10592
919.161	10538
919.272	10371
919.383	10500
919.494	10618
919.604	10790
919.715	10558
919.826	10504
919.936	10512
920.047	10637
920.157	10637
920.267	10771
920.378	10641
920.488	10592
920.598	10820
920.708	10991
920.818	10698
920.928	10736
921.038	11022
921.148	10820
921.258	10603
921.368	10466
921.477	10443
921.587	10402
921.697	10356
921.806	10489
921.916	10337
922.025	10196
922.134	10188
922.244	10013
922.353	10090
922.462	10006
922.571	9972
922.68	9850
922.789	9804
922.898	9770
923.007	9648
923.116	9835
923.224	9865
923.333	9846
923.442	9667
923.55	9686
923.659	9751
923.767	9698
923.876	9618
923.984	9732
924.092	9633
924.201	9705
924.309	9652
924.417	9667
924.525	9614
924.633	9614
924.741	10535
924.849	9443
924.956	9618
925.064	9515
925.172	9412
925.279	9443
925.387	9412
925.494	9424
925.602	9606
925.709	9492
925.816	9389
925.924	9439
926.031	9523
926.138	9450
926.245	9519
926.352	9401
926.459	9492
926.566	9538
926.673	9420
926.779	9306
926.886	9256
926.993	9104
927.099	9157
927.206	9093
927.312	9070
927.419	9195
927.525	9233
927.631	9195
927.737	9081
927.843	9024
927.95	8899
928.056	8982
928.162	9081
928.267	9123
928.373	9705
928.479	9097
928.585	8872
928.69	8982
928.796	9100
928.901	8918
929.007	8845
929.112	8994
929.218	8906
929.323	8906
929.428	8880
929.533	8925
929.638	8788
929.743	8811
929.848	8925
929.953	8777
930.058	8807
930.163	8579
930.267	8640
930.372	8762
930.477	8644
930.581	8857
930.685	8686
930.79	8514
930.894	8545
930.998	8495
931.103	8670
931.207	8370
931.311	8301
931.415	8263
931.519	8031
931.623	8073
