Data from test_V78500241_3302.txt Node
Date: Fri Mar 25 14:56:42 CST 2022
User: usil
Spectrometer: V785-0024
Trigger mode: 0
Integration Time (sec): 4.000000E-1
Scans to average: 1
Nonlinearity correction enabled: false
Boxcar width: 0
Storing dark spectrum: false
XAxis mode: Wavelengths
Number of Pixels in Spectrum: 1024
>>>>>Begin Spectral Data<<<<<
801.071	21899
801.214	21956
801.356	21698
801.499	21660
801.641	21245
801.783	21321
801.926	21302
802.068	21157
802.211	21192
802.353	20982
802.496	20921
802.638	20944
802.78	20792
802.923	20724
803.065	20670
803.208	20568
803.35	20583
803.492	20819
803.635	20872
803.777	20640
803.919	20686
804.061	21039
804.204	20811
804.346	20659
804.488	20522
804.63	20697
804.773	20484
804.915	20549
805.057	20746
805.199	20530
805.341	20606
805.483	20705
805.626	20579
805.768	20408
805.91	20526
806.052	20499
806.194	20438
806.336	20731
806.478	20347
806.62	20522
806.762	20564
806.904	20670
807.046	20979
807.188	20823
807.33	20921
807.472	20868
807.614	20876
807.756	20830
807.898	20670
808.04	20526
808.182	20613
808.324	20640
808.465	20689
808.607	20902
808.749	20880
808.891	21047
809.033	21112
809.174	20967
809.316	20868
809.458	20895
809.6	20773
809.741	20986
809.883	20933
810.025	21013
810.166	21074
810.308	21020
810.45	20902
810.591	20975
810.733	20773
810.875	20697
811.016	20716
811.158	20640
811.299	20746
811.441	20872
811.582	20686
811.724	20727
811.865	20739
812.007	20632
812.148	20739
812.29	20743
812.431	20758
812.573	20979
812.714	21138
812.855	21108
812.997	21237
813.138	21386
813.279	21329
813.421	21096
813.562	21096
813.703	20967
813.845	20804
813.986	20598
814.127	20324
814.268	20275
814.41	20248
814.551	20267
814.692	20221
814.833	20157
814.974	20187
815.115	20195
815.256	19997
815.397	20054
815.539	20065
815.68	19898
815.821	19932
815.962	19932
816.103	19959
816.244	19841
816.385	19734
816.526	19586
816.666	19430
816.807	19381
816.948	19381
817.089	19453
817.23	19396
817.371	19331
817.512	19327
817.653	19324
817.793	19320
817.934	19282
818.075	19381
818.216	19312
818.356	19316
818.497	19156
818.638	19080
818.778	18996
818.919	19099
819.06	18973
819.2	19023
819.341	19285
819.481	19050
819.622	19377
819.762	19601
819.903	19464
820.043	19339
820.184	19320
820.324	19312
820.465	19419
820.605	19240
820.746	19384
820.886	19145
821.026	19228
821.167	19304
821.307	19346
821.447	19274
821.588	19114
821.728	19042
821.868	18844
822.008	18734
822.149	18646
822.289	18700
822.429	18506
822.569	18410
822.709	18414
822.849	18209
822.99	18247
823.13	18171
823.27	18224
823.41	18064
823.55	17958
823.69	18064
823.83	17969
823.97	17984
824.11	17718
824.25	17817
824.389	17817
824.529	17866
824.669	17695
824.809	17927
824.949	17851
825.089	17771
825.228	17870
825.368	17627
825.508	17554
825.648	17573
825.787	17566
825.927	17661
826.067	17482
826.206	17649
826.346	17543
826.485	17600
826.625	17649
826.765	17741
826.904	17604
827.044	17395
827.183	17391
827.323	17265
827.462	17463
827.601	17429
827.741	17258
827.88	17330
828.02	17170
828.159	17280
828.298	17246
828.437	17227
828.577	17299
828.716	17482
828.855	17280
828.994	17159
829.134	17170
829.273	17121
829.412	17006
829.551	16961
829.69	17117
829.829	17143
829.968	17128
830.107	17128
830.246	17083
830.385	17117
830.524	16930
830.663	16892
830.802	16793
830.941	16664
831.08	16713
831.219	16869
831.357	16744
831.496	16885
831.635	16740
831.774	16561
831.913	16637
832.051	16455
832.19	16531
832.329	16535
832.467	16402
832.606	16398
832.744	16485
832.883	16504
833.022	16363
833.16	16352
833.299	16390
833.437	16363
833.576	16485
833.714	16382
833.852	16500
833.991	16474
834.129	16508
834.267	16485
834.406	16455
834.544	16508
834.682	16516
834.821	16447
834.959	16645
835.097	16356
835.235	16607
835.373	16531
835.511	16470
835.65	16379
835.788	16367
835.926	16291
836.064	16143
836.202	16223
836.34	16371
836.478	16519
836.615	16360
836.753	16421
836.891	16356
837.029	16379
837.167	16360
837.305	16253
837.443	16265
837.58	16276
837.718	16363
837.856	16284
837.993	16192
838.131	16310
838.269	16211
838.406	16185
838.544	16131
838.681	15941
838.819	15975
838.956	15747
839.094	15766
839.231	15918
839.369	15895
839.506	16177
839.643	16010
839.781	15732
839.918	15698
840.055	15838
840.193	15759
840.33	15816
840.467	15770
840.604	15861
840.742	15953
840.879	15656
841.016	15648
841.153	15663
841.29	15926
841.427	15808
841.564	15842
841.701	15842
841.838	15732
841.975	15587
842.112	15747
842.249	15629
842.385	15530
842.522	15778
842.659	15618
842.796	15603
842.933	15542
843.069	15481
843.206	15553
843.343	15682
843.479	15492
843.616	15603
843.752	15454
843.889	15374
844.025	15454
844.162	15245
844.298	15523
844.435	15245
844.571	15230
844.708	15359
844.844	15466
844.98	15500
845.117	15496
845.253	15317
845.389	15207
845.525	15287
845.661	15169
845.798	15062
845.934	15188
846.07	15104
846.206	15180
846.342	15355
846.478	15188
846.614	14937
846.75	14937
846.886	15017
847.022	15043
847.158	14921
847.294	14990
847.429	14914
847.565	14952
847.701	15192
847.837	14682
847.972	14606
848.108	14838
848.244	14834
848.379	14530
848.515	14575
848.65	14473
848.786	14530
848.921	14522
849.057	14606
849.192	14590
849.328	14587
849.463	14610
849.598	14530
849.734	14560
849.869	14438
850.004	14237
850.14	14381
850.275	14355
850.41	14305
850.545	14278
850.68	14206
850.815	14294
850.95	14271
851.085	14480
851.22	14476
851.355	14317
851.49	14187
851.625	14256
851.76	14267
851.895	14149
852.03	14233
852.165	14210
852.299	14305
852.434	14374
852.569	14263
852.703	14362
852.838	14366
852.973	14511
853.107	14454
853.242	14202
853.376	14218
853.511	13978
853.645	14107
853.78	14282
853.914	14210
854.048	14115
854.183	14111
854.317	14123
854.451	14324
854.585	14191
854.72	14134
854.854	14233
854.988	14043
855.122	14191
855.256	14016
855.39	14126
855.524	14267
855.658	14259
855.792	14218
855.926	14180
856.06	14183
856.194	14290
856.327	14202
856.461	14107
856.595	14103
856.729	14199
856.862	14263
856.996	14229
857.13	14214
857.263	14332
857.397	14328
857.53	14164
857.664	14206
857.797	14294
857.931	14233
858.064	14237
858.197	14244
858.331	14138
858.464	14123
858.597	14088
858.731	14153
858.864	14073
858.997	14153
859.13	14138
859.263	14240
859.396	14229
859.529	14180
859.662	14191
859.795	14142
859.928	14248
860.061	14309
860.194	14298
860.327	14149
860.46	14123
860.592	14298
860.725	14339
860.858	14366
860.99	14172
861.123	14012
861.256	14130
861.388	14199
861.521	15043
861.653	14100
861.786	13932
861.918	13947
862.05	14119
862.183	14111
862.315	14115
862.447	14168
862.58	14039
862.712	13963
862.844	13993
862.976	13955
863.108	14054
863.24	14225
863.372	13818
863.504	13970
863.636	13879
863.768	13913
863.9	13921
864.032	13970
864.164	13864
864.296	13951
864.428	14126
864.559	14039
864.691	14081
864.823	14020
864.954	13997
865.086	14046
865.217	13947
865.349	13894
865.48	13883
865.612	13913
865.743	14035
865.875	13887
866.006	13902
866.137	14031
866.269	13913
866.4	13928
866.531	13906
866.662	13921
866.793	13921
866.924	13902
867.055	13906
867.186	13944
867.317	13932
867.448	13852
867.579	13864
867.71	13898
867.841	13879
867.972	13909
868.103	13989
868.233	13936
868.364	13921
868.495	14123
868.625	14202
868.756	14286
868.886	14084
869.017	14168
869.147	14267
869.278	14358
869.408	14218
869.539	14252
869.669	14358
869.799	14290
869.929	14320
870.06	14332
870.19	14400
870.32	14431
870.45	14518
870.58	14678
870.71	14625
870.84	14720
870.97	14537
871.1	14518
871.23	14804
871.36	14785
871.489	14735
871.619	14781
871.749	14739
871.879	14785
872.008	14906
872.138	14754
872.267	14826
872.397	14640
872.526	14648
872.656	14602
872.785	14674
872.915	14785
873.044	14891
873.173	14800
873.303	14853
873.432	14960
873.561	14990
873.69	14853
873.819	14769
873.948	14876
874.077	14739
874.206	14727
874.335	14834
874.464	14998
874.593	15138
874.722	15047
874.851	15138
874.979	15116
875.108	15192
875.237	15119
875.365	15119
875.494	15192
875.623	15313
875.751	15173
875.88	15184
876.008	15367
876.136	15283
876.265	15641
876.393	15762
876.521	15682
876.65	15618
876.778	15606
876.906	15679
877.034	15595
877.162	15572
877.29	15507
877.418	15591
877.546	15526
877.674	15591
877.802	15591
877.93	15603
878.058	15526
878.185	15378
878.313	15488
878.441	15580
878.568	15416
878.696	15507
878.824	15584
878.951	15625
879.079	15667
879.206	15854
879.333	15671
879.461	15663
879.588	15686
879.715	15709
879.842	15865
879.97	15701
880.097	15336
880.224	15386
880.351	15469
880.478	15458
880.605	15431
880.732	15443
880.859	15667
880.986	15344
881.112	15530
881.239	15237
881.366	15116
881.493	15085
881.619	15028
881.746	15085
881.872	15062
881.999	15013
882.125	14998
882.252	15074
882.378	15154
882.505	15245
882.631	15055
882.757	14929
882.883	14937
883.01	14963
883.136	14777
883.262	14785
883.388	14670
883.514	14937
883.64	14952
883.766	14781
883.892	14705
884.018	14720
884.143	14872
884.269	15043
884.395	14682
884.52	14640
884.646	14625
884.772	14522
884.897	14549
885.023	14663
885.148	14686
885.274	14762
885.399	14743
885.524	14636
885.65	14583
885.775	14594
885.9	14598
886.025	14682
886.15	14651
886.275	14473
886.4	14594
886.525	14594
886.65	14541
886.775	14526
886.9	14697
887.025	14864
887.149	14564
887.274	14484
887.399	14393
887.523	14427
887.648	14298
887.773	14313
887.897	14522
888.021	14514
888.146	14351
888.27	14613
888.395	14590
888.519	14431
888.643	14484
888.767	14404
888.891	14294
889.015	14305
889.139	14267
889.263	14256
889.387	14396
889.511	14537
889.635	14434
889.759	14229
889.883	14309
890.006	14328
890.13	14355
890.254	14149
890.377	14195
890.501	14134
890.624	14107
890.748	14180
890.871	13955
890.995	13944
891.118	13947
891.241	13993
891.364	13940
891.488	14088
891.611	13982
891.734	14081
891.857	14077
891.98	13970
892.103	13989
892.226	14001
892.349	13928
892.471	13727
892.594	13978
892.717	13947
892.839	14031
892.962	13959
893.085	14062
893.207	13986
893.33	13906
893.452	13906
893.575	14062
893.697	13932
893.819	14134
893.941	14221
894.064	14134
894.186	13959
894.308	13974
894.43	14103
894.552	14202
894.674	14081
894.796	13955
894.918	14043
895.04	13982
895.161	14115
895.283	14115
895.405	14046
895.526	14138
895.648	14172
895.769	14096
895.891	14168
896.012	14210
896.134	14275
896.255	14168
896.376	14081
896.498	14134
896.619	14248
896.74	14214
896.861	14290
896.982	14484
897.103	14678
897.224	14389
897.345	14461
897.466	14408
897.587	14473
897.708	14613
897.828	14450
897.949	14313
898.07	14366
898.19	14442
898.311	14632
898.431	14396
898.552	14488
898.672	14632
898.792	14583
898.913	14590
899.033	14492
899.153	14320
899.273	14248
899.393	14412
899.513	14336
899.633	14377
899.753	14404
899.873	14385
899.993	14442
900.113	14358
900.232	14469
900.352	14332
900.472	14229
900.591	14126
900.711	14233
900.83	14138
900.95	14457
901.069	14286
901.189	14210
901.308	14035
901.427	13932
901.546	13902
901.665	13932
901.784	13970
901.904	13727
902.023	13628
902.141	13575
902.26	13525
902.379	13563
902.498	13506
902.617	13445
902.735	13578
902.854	13441
902.973	13419
903.091	13225
903.21	13202
903.328	13232
903.446	13168
903.565	13088
903.683	13080
903.801	12856
903.919	13031
904.038	12928
904.156	12962
904.274	13004
904.392	12821
904.51	12806
904.627	12875
904.745	12829
904.863	12935
904.981	12730
905.098	12551
905.216	12631
905.334	12570
905.451	12456
905.569	12525
905.686	12544
905.803	12525
905.921	12498
906.038	12578
906.155	12395
906.272	12323
906.389	12296
906.506	12163
906.623	12125
906.74	12117
906.857	12019
906.974	11965
907.091	12289
907.208	12266
907.324	12224
907.441	12110
907.557	12007
907.674	11939
907.79	11764
907.907	11996
908.023	11832
908.139	11893
908.256	11783
908.372	11836
908.488	11775
908.604	11737
908.72	11634
908.836	11646
908.952	11566
909.068	11703
909.184	11767
909.3	11684
909.415	11684
909.531	11604
909.647	11448
909.762	11463
909.878	11417
909.993	11391
910.108	11501
910.224	11353
910.339	11471
910.454	11299
910.57	11360
910.685	11204
910.8	11482
910.915	11520
911.03	11455
911.145	11071
911.259	11147
911.374	11041
911.489	11098
911.604	11006
911.718	10858
911.833	10953
911.947	10801
912.062	10687
912.176	10877
912.291	10923
912.405	10938
912.519	11086
912.633	11166
912.748	10934
912.862	10915
912.976	10733
913.09	10664
913.204	10771
913.318	10763
913.431	10908
913.545	10862
913.659	10889
913.772	10786
913.886	10717
914	10645
914.113	10733
914.226	10755
914.34	10793
914.453	10592
914.566	10744
914.68	10641
914.793	10611
914.906	10432
915.019	10470
915.132	10360
915.245	10333
915.358	10474
915.47	10432
915.583	10379
915.696	10379
915.809	10558
915.921	10618
916.034	10394
916.146	10367
916.259	10291
916.371	10451
916.483	10367
916.595	10344
916.708	10386
916.82	10428
916.932	10280
917.044	10253
917.156	10337
917.268	10154
917.38	10295
917.491	10215
917.603	10287
917.715	10287
917.826	10322
917.938	10295
918.049	10128
918.161	10177
918.272	10375
918.384	10356
918.495	10268
918.606	10158
918.717	10067
918.828	10044
918.939	10090
919.05	10044
919.161	10131
919.272	9907
919.383	10010
919.494	10135
919.604	10341
919.715	10139
919.826	10105
919.936	10143
920.047	10188
920.157	10124
920.267	10341
920.378	10238
920.488	10112
920.598	10322
920.708	10466
920.818	10276
920.928	10390
921.038	10516
921.148	10462
921.258	10211
921.368	10112
921.477	10044
921.587	9998
921.697	9873
921.806	10017
921.916	9873
922.025	9743
922.134	9747
922.244	9629
922.353	9717
922.462	9580
922.571	9545
922.68	9462
922.789	9348
922.898	9420
923.007	9310
923.116	9447
923.224	9466
923.333	9386
923.442	9264
923.55	9245
923.659	9359
923.767	9336
923.876	9294
923.984	9363
924.092	9249
924.201	9268
924.309	9279
924.417	9313
924.525	9176
924.633	9249
924.741	10211
924.849	9123
924.956	9214
925.064	9028
925.172	8971
925.279	9028
925.387	9013
925.494	9051
925.602	9188
925.709	9085
925.816	9108
925.924	9047
926.031	9100
926.138	9093
926.245	9070
926.352	9005
926.459	9081
926.566	9180
926.673	9077
926.779	8952
926.886	8929
926.993	8823
927.099	8796
927.206	8735
927.312	8697
927.419	8838
927.525	8724
927.631	8800
927.737	8655
927.843	8663
927.95	8552
928.056	8610
928.162	8697
928.267	8735
928.373	9370
928.479	8792
928.585	8564
928.69	8568
928.796	8724
928.901	8636
929.007	8400
929.112	8602
929.218	8461
929.323	8552
929.428	8484
929.533	8610
929.638	8484
929.743	8400
929.848	8514
929.953	8511
930.058	8355
930.163	8199
930.267	8259
930.372	8377
930.477	8218
930.581	8454
930.685	8366
930.79	8145
930.894	8218
930.998	8153
931.103	8256
931.207	8054
931.311	7967
931.415	7940
931.519	7738
931.623	7628
