Data from test_V78500241_1584.txt Node
Date: Fri Mar 25 14:44:44 CST 2022
User: usil
Spectrometer: V785-0024
Trigger mode: 0
Integration Time (sec): 4.000000E-1
Scans to average: 1
Nonlinearity correction enabled: false
Boxcar width: 0
Storing dark spectrum: false
XAxis mode: Wavelengths
Number of Pixels in Spectrum: 1024
>>>>>Begin Spectral Data<<<<<
801.071	22451
801.214	22276
801.356	22116
801.499	22055
801.641	21854
801.783	21846
801.926	21724
802.068	21736
802.211	21644
802.353	21458
802.496	21344
802.638	21268
802.78	21165
802.923	21085
803.065	20956
803.208	21020
803.35	21203
803.492	21203
803.635	21279
803.777	21032
803.919	21157
804.061	21329
804.204	21199
804.346	21001
804.488	21047
804.63	21047
804.773	20849
804.915	20960
805.057	20998
805.199	20956
805.341	20975
805.483	21127
805.626	21036
805.768	21024
805.91	21036
806.052	20941
806.194	20899
806.336	21131
806.478	20883
806.62	21165
806.762	21051
806.904	21214
807.046	21386
807.188	21374
807.33	21291
807.472	21481
807.614	21348
807.756	21230
807.898	21291
808.04	21119
808.182	21180
808.324	21135
808.465	21310
808.607	21382
808.749	21583
808.891	21492
809.033	21705
809.174	21526
809.316	21447
809.458	21530
809.6	21496
809.741	21507
809.883	21553
810.025	21720
810.166	21526
810.308	21557
810.45	21553
810.591	21458
810.733	21317
810.875	21188
811.016	21081
811.158	21036
811.299	21173
811.441	21408
811.582	21329
811.724	21142
811.865	21100
812.007	21081
812.148	21135
812.29	21298
812.431	21431
812.573	21458
812.714	21667
812.855	21583
812.997	21838
813.138	21960
813.279	21743
813.421	21656
813.562	21606
813.703	21485
813.845	21344
813.986	21135
814.127	20948
814.268	20845
814.41	20777
814.551	20746
814.692	20834
814.833	20617
814.974	20625
815.115	20648
815.256	20602
815.397	20564
815.539	20617
815.68	20549
815.821	20408
815.962	20484
816.103	20495
816.244	20351
816.385	20278
816.526	20294
816.666	20119
816.807	19978
816.948	20062
817.089	19986
817.23	19967
817.371	19898
817.512	19871
817.653	19833
817.793	19811
817.934	19925
818.075	19940
818.216	19936
818.356	19925
818.497	19807
818.638	19613
818.778	19609
818.919	19453
819.06	19582
819.2	19670
819.341	19788
819.481	19723
819.622	19723
819.762	20084
819.903	20035
820.043	19928
820.184	19830
820.324	19818
820.465	20020
820.605	19875
820.746	19871
820.886	19727
821.026	19772
821.167	19860
821.307	19925
821.447	19769
821.588	19674
821.728	19556
821.868	19377
822.008	19312
822.149	19175
822.289	19095
822.429	18939
822.569	19034
822.709	18973
822.849	18730
822.99	18715
823.13	18829
823.27	18726
823.41	18528
823.55	18494
823.69	18589
823.83	18681
823.97	18433
824.11	18304
824.25	18388
824.389	18353
824.529	18391
824.669	18258
824.809	18441
824.949	18426
825.089	18262
825.228	18273
825.368	18224
825.508	18228
825.648	18106
825.787	18159
825.927	18296
826.067	18121
826.206	18068
826.346	18133
826.485	18163
826.625	18110
826.765	18110
826.904	18174
827.044	17760
827.183	17878
827.323	17798
827.462	17874
827.601	17847
827.741	17756
827.88	17859
828.02	17623
828.159	17741
828.298	17885
828.437	17878
828.577	17764
828.716	17904
828.855	17756
828.994	17573
829.134	17615
829.273	17463
829.412	17509
829.551	17364
829.69	17501
829.829	17524
829.968	17771
830.107	17524
830.246	17573
830.385	17554
830.524	17372
830.663	17246
830.802	17269
830.941	17185
831.08	17159
831.219	17212
831.357	17147
831.496	17292
831.635	17170
831.774	17048
831.913	16968
832.051	16949
832.19	16930
832.329	17079
832.467	16862
832.606	16740
832.744	16850
832.883	16862
833.022	16740
833.16	16812
833.299	16831
833.437	16805
833.576	16930
833.714	16835
833.852	16927
833.991	16949
834.129	17006
834.267	16889
834.406	16873
834.544	16965
834.682	16923
834.821	16911
834.959	17025
835.097	16824
835.235	16923
835.373	16896
835.511	16816
835.65	16771
835.788	16778
835.926	16687
836.064	16691
836.202	16561
836.34	16839
836.478	16805
836.615	16618
836.753	16759
836.891	16850
837.029	16820
837.167	16706
837.305	16637
837.443	16554
837.58	16580
837.718	16713
837.856	16713
837.993	16660
838.131	16691
838.269	16565
838.406	16440
838.544	16508
838.681	16398
838.819	16284
838.956	16131
839.094	16143
839.231	16249
839.369	16314
839.506	16512
839.643	16405
839.781	16181
839.918	16128
840.055	16230
840.193	16116
840.33	16150
840.467	16158
840.604	16303
840.742	16436
840.879	16025
841.016	16002
841.153	16040
841.29	16246
841.427	16211
841.564	16329
841.701	16166
841.838	16017
841.975	16120
842.112	16051
842.249	16002
842.385	15949
842.522	16112
842.659	15934
842.796	15838
842.933	15861
843.069	15842
843.206	15960
843.343	15949
843.479	15937
843.616	15934
843.752	15797
843.889	15633
844.025	15823
844.162	15728
844.298	15850
844.435	15713
844.571	15618
844.708	15800
844.844	15831
844.98	15911
845.117	15789
845.253	15717
845.389	15584
845.525	15694
845.661	15755
845.798	15644
845.934	15808
846.07	15603
846.206	15717
846.342	15781
846.478	15515
846.614	15420
846.75	15245
846.886	15351
847.022	15359
847.158	15287
847.294	15237
847.429	15363
847.565	15302
847.701	15492
847.837	15116
847.972	14952
848.108	15081
848.244	15005
848.379	14986
848.515	14925
848.65	14811
848.786	14895
848.921	14918
849.057	14990
849.192	15001
849.328	14967
849.463	14933
849.598	14815
849.734	14788
849.869	14834
850.004	14552
850.14	14720
850.275	14739
850.41	14568
850.545	14689
850.68	14682
850.815	14674
850.95	14617
851.085	14785
851.22	14838
851.355	14758
851.49	14632
851.625	14621
851.76	14629
851.895	14522
852.03	14552
852.165	14632
852.299	14701
852.434	14644
852.569	14693
852.703	14640
852.838	14804
852.973	14796
853.107	14754
853.242	14564
853.376	14526
853.511	14343
853.645	14457
853.78	14697
853.914	14499
854.048	14552
854.183	14404
854.317	14507
854.451	14651
854.585	14419
854.72	14461
854.854	14613
854.988	14438
855.122	14503
855.256	14393
855.39	14507
855.524	14560
855.658	14587
855.792	14518
855.926	14602
856.06	14613
856.194	14670
856.327	14492
856.461	14408
856.595	14461
856.729	14385
856.862	14560
856.996	14552
857.13	14552
857.263	14537
857.397	14651
857.53	14606
857.664	14629
857.797	14594
857.931	14632
858.064	14511
858.197	14583
858.331	14469
858.464	14450
858.597	14499
858.731	14434
858.864	14473
858.997	14503
859.13	14518
859.263	14606
859.396	14560
859.529	14568
859.662	14450
859.795	14461
859.928	14446
860.061	14632
860.194	14552
860.327	14530
860.46	14495
860.592	14663
860.725	14670
860.858	14621
860.99	14587
861.123	14431
861.256	14495
861.388	14499
861.521	15332
861.653	14469
861.786	14309
861.918	14423
862.05	14450
862.183	14522
862.315	14480
862.447	14514
862.58	14499
862.712	14298
862.844	14191
862.976	14328
863.108	14324
863.24	14750
863.372	14252
863.504	14313
863.636	14298
863.768	14229
863.9	14259
864.032	14221
864.164	14206
864.296	14370
864.428	14347
864.559	14362
864.691	14415
864.823	14290
864.954	14271
865.086	14298
865.217	14324
865.349	14191
865.48	14263
865.612	14225
865.743	14374
865.875	14252
866.006	14180
866.137	14225
866.269	14286
866.4	14271
866.531	14176
866.662	14183
866.793	14195
866.924	14240
867.055	14275
867.186	14210
867.317	14134
867.448	14221
867.579	14282
867.71	14237
867.841	14157
867.972	14199
868.103	14294
868.233	14221
868.364	14267
868.495	14259
868.625	14590
868.756	14610
868.886	14442
869.017	14476
869.147	14663
869.278	14644
869.408	14552
869.539	14583
869.669	14651
869.799	14537
869.929	14693
870.06	14670
870.19	14853
870.32	14823
870.45	14853
870.58	14868
870.71	15066
870.84	15009
870.97	14872
871.1	14819
871.23	15173
871.36	15085
871.489	15043
871.619	15062
871.749	15051
871.879	15169
872.008	15291
872.138	15180
872.267	15085
872.397	15024
872.526	14902
872.656	14834
872.785	14925
872.915	15218
873.044	15268
873.173	15150
873.303	15195
873.432	15165
873.561	15211
873.69	15154
873.819	15268
873.948	15256
874.077	15154
874.206	15020
874.335	15230
874.464	15230
874.593	15428
874.722	15408
874.851	15488
874.979	15488
875.108	15401
875.237	15408
875.365	15428
875.494	15473
875.623	15523
875.751	15386
875.88	15538
876.008	15679
876.136	15633
876.265	15964
876.393	16013
876.521	15964
876.65	15937
876.778	15846
876.906	15850
877.034	15797
877.162	15781
877.29	15808
877.418	15884
877.546	15797
877.674	15934
877.802	15865
877.93	15880
878.058	15816
878.185	15770
878.313	15842
878.441	15838
878.568	15675
878.696	15819
878.824	15850
878.951	15922
879.079	16173
879.206	16196
879.333	16090
879.461	15975
879.588	15956
879.715	16109
879.842	16230
879.97	16055
880.097	15698
880.224	15876
880.351	15694
880.478	15793
880.605	15660
880.732	15625
880.859	15991
880.986	15762
881.112	15808
881.239	15572
881.366	15435
881.493	15416
881.619	15408
881.746	15291
881.872	15302
881.999	15344
882.125	15291
882.252	15344
882.378	15370
882.505	15496
882.631	15393
882.757	15119
882.883	15279
883.01	15138
883.136	15161
883.262	15203
883.388	15062
883.514	15192
883.64	15291
883.766	15146
883.892	15005
884.018	15051
884.143	15211
884.269	15279
884.395	14925
884.52	14895
884.646	14941
884.772	14918
884.897	14902
885.023	14883
885.148	15005
885.274	14979
885.399	15036
885.524	14941
885.65	14891
885.775	14941
885.9	14921
886.025	14975
886.15	14929
886.275	14842
886.4	14902
886.525	14765
886.65	14762
886.775	14849
886.9	15005
887.025	15108
887.149	14960
887.274	14686
887.399	14743
887.523	14697
887.648	14682
887.773	14587
887.897	14750
888.021	14781
888.146	14716
888.27	14788
888.395	14925
888.519	14815
888.643	14762
888.767	14781
888.891	14773
889.015	14587
889.139	14560
889.263	14533
889.387	14720
889.511	14785
889.635	14686
889.759	14610
889.883	14579
890.006	14640
890.13	14655
890.254	14552
890.377	14571
890.501	14305
890.624	14415
890.748	14518
890.871	14442
890.995	14149
891.118	14187
891.241	14237
891.364	14271
891.488	14381
891.611	14214
891.734	14328
891.857	14358
891.98	14240
892.103	14412
892.226	14366
892.349	14317
892.471	14107
892.594	14233
892.717	14324
892.839	14301
892.962	14248
893.085	14438
893.207	14332
893.33	14195
893.452	14218
893.575	14324
893.697	14161
893.819	14423
893.941	14377
894.064	14423
894.186	14218
894.308	14252
894.43	14473
894.552	14476
894.674	14400
894.796	14286
894.918	14351
895.04	14339
895.161	14408
895.283	14339
895.405	14332
895.526	14427
895.648	14377
895.769	14450
895.891	14442
896.012	14549
896.134	14511
896.255	14419
896.376	14450
896.498	14488
896.619	14526
896.74	14423
896.861	14537
896.982	14857
897.103	15020
897.224	14777
897.345	14689
897.466	14804
897.587	14712
897.708	14785
897.828	14773
897.949	14644
898.07	14659
898.19	14720
898.311	14872
898.431	14781
898.552	14815
898.672	14971
898.792	14853
898.913	14895
899.033	14712
899.153	14708
899.273	14625
899.393	14663
899.513	14682
899.633	14594
899.753	14686
899.873	14667
899.993	14868
900.113	14579
900.232	14735
900.352	14670
900.472	14583
900.591	14476
900.711	14590
900.83	14514
900.95	14541
901.069	14659
901.189	14434
901.308	14294
901.427	14107
901.546	14191
901.665	14195
901.784	14248
901.904	14142
902.023	14016
902.141	13940
902.26	13830
902.379	13860
902.498	13776
902.617	13727
902.735	13849
902.854	13799
902.973	13624
903.091	13491
903.21	13453
903.328	13487
903.446	13422
903.565	13339
903.683	13392
903.801	13198
903.919	13251
904.038	13263
904.156	13171
904.274	13190
904.392	13133
904.51	13091
904.627	13171
904.745	13240
904.863	13164
904.981	12954
905.098	12871
905.216	12764
905.334	12859
905.451	12848
905.569	12814
905.686	12837
905.803	12776
905.921	12669
906.038	12802
906.155	12673
906.272	12506
906.389	12467
906.506	12525
906.623	12334
906.74	12372
906.857	12235
906.974	12273
907.091	12498
907.208	12559
907.324	12330
907.441	12391
907.557	12140
907.674	12129
907.79	12060
907.907	12155
908.023	12182
908.139	12125
908.256	12087
908.372	12053
908.488	12140
908.604	12019
908.72	11946
908.836	11931
908.952	11885
909.068	11942
909.184	12057
909.3	11878
909.415	11927
909.531	11893
909.647	11653
909.762	11726
909.878	11634
909.993	11726
910.108	11741
910.224	11722
910.339	11703
910.454	11554
910.57	11570
910.685	11436
910.8	11756
910.915	11722
911.03	11543
911.145	11383
911.259	11376
911.374	11391
911.489	11345
911.604	11284
911.718	11109
911.833	11136
911.947	11033
912.062	11014
912.176	11105
912.291	11117
912.405	11166
912.519	11349
912.633	11330
912.748	11143
912.862	11067
912.976	11090
913.09	10908
913.204	10854
913.318	11052
913.431	11098
913.545	11105
913.659	11140
913.772	10976
913.886	10908
914	10839
914.113	10953
914.226	10930
914.34	10934
914.453	10786
914.566	10938
914.68	10805
914.793	10877
914.906	10668
915.019	10626
915.132	10561
915.245	10599
915.358	10611
915.47	10630
915.583	10618
915.696	10691
915.809	10847
915.921	10809
916.034	10596
916.146	10554
916.259	10634
916.371	10645
916.483	10660
916.595	10565
916.708	10641
916.82	10531
916.932	10588
917.044	10531
917.156	10481
917.268	10394
917.38	10523
917.491	10436
917.603	10440
917.715	10538
917.826	10596
917.938	10413
918.049	10363
918.161	10508
918.272	10622
918.384	10588
918.495	10531
918.606	10382
918.717	10280
918.828	10303
918.939	10440
919.05	10291
919.161	10386
919.272	10097
919.383	10188
919.494	10363
919.604	10542
919.715	10295
919.826	10227
919.936	10261
920.047	10352
920.157	10386
920.267	10546
920.378	10413
920.488	10371
920.598	10558
920.708	10577
920.818	10535
920.928	10554
921.038	10706
921.148	10710
921.258	10424
921.368	10390
921.477	10246
921.587	10207
921.697	10139
921.806	10188
921.916	10067
922.025	9892
922.134	9953
922.244	9743
922.353	9968
922.462	9846
922.571	9755
922.68	9622
922.789	9507
922.898	9557
923.007	9587
923.116	9545
923.224	9587
923.333	9549
923.442	9515
923.55	9477
923.659	9447
923.767	9580
923.876	9450
923.984	9469
924.092	9370
924.201	9431
924.309	9496
924.417	9397
924.525	9401
924.633	9466
924.741	10363
924.849	9253
924.956	9344
925.064	9321
925.172	9097
925.279	9173
925.387	9222
925.494	9214
925.602	9325
925.709	9294
925.816	9222
925.924	9230
926.031	9332
926.138	9329
926.245	9283
926.352	9123
926.459	9272
926.566	9363
926.673	9272
926.779	9127
926.886	9135
926.993	8952
927.099	8902
927.206	8948
927.312	8910
927.419	9074
927.525	8902
927.631	8975
927.737	8864
927.843	8800
927.95	8693
928.056	8830
928.162	8826
928.267	8906
928.373	9405
928.479	8979
928.585	8701
928.69	8773
928.796	8910
928.901	8758
929.007	8629
929.112	8762
929.218	8708
929.323	8663
929.428	8594
929.533	8883
929.638	8568
929.743	8613
929.848	8785
929.953	8568
930.058	8575
930.163	8404
930.267	8446
930.372	8606
930.477	8370
930.581	8644
930.685	8511
930.79	8366
930.894	8389
930.998	8366
931.103	8446
931.207	8252
931.311	8126
931.415	8081
931.519	7913
931.623	7894
