Data from test_V78500241_3425.txt Node
Date: Fri Mar 25 14:57:33 CST 2022
User: usil
Spectrometer: V785-0024
Trigger mode: 0
Integration Time (sec): 4.000000E-1
Scans to average: 1
Nonlinearity correction enabled: false
Boxcar width: 0
Storing dark spectrum: false
XAxis mode: Wavelengths
Number of Pixels in Spectrum: 1024
>>>>>Begin Spectral Data<<<<<
801.071	21941
801.214	21827
801.356	21564
801.499	21454
801.641	21359
801.783	21336
801.926	21340
802.068	21222
802.211	21188
802.353	21085
802.496	20796
802.638	20796
802.78	20758
802.923	20781
803.065	20602
803.208	20648
803.35	20552
803.492	20720
803.635	20727
803.777	20701
803.919	20762
804.061	20952
804.204	20678
804.346	20526
804.488	20476
804.63	20545
804.773	20564
804.915	20537
805.057	20640
805.199	20412
805.341	20446
805.483	20541
805.626	20678
805.768	20545
805.91	20484
806.052	20549
806.194	20476
806.336	20613
806.478	20480
806.62	20522
806.762	20473
806.904	20750
807.046	20986
807.188	20754
807.33	20830
807.472	20990
807.614	20651
807.756	20640
807.898	20636
808.04	20461
808.182	20587
808.324	20564
808.465	20511
808.607	20746
808.749	20845
808.891	20994
809.033	21058
809.174	20853
809.316	20830
809.458	20887
809.6	20925
809.741	20975
809.883	20872
810.025	21146
810.166	21036
810.308	20971
810.45	20788
810.591	20853
810.733	20750
810.875	20731
811.016	20579
811.158	20442
811.299	20648
811.441	20750
811.582	20727
811.724	20461
811.865	20636
812.007	20511
812.148	20556
812.29	20731
812.431	20720
812.573	20853
812.714	20941
812.855	21180
812.997	21165
813.138	21283
813.279	21233
813.421	20994
813.562	21058
813.703	20910
813.845	20689
813.986	20533
814.127	20370
814.268	20176
814.41	20202
814.551	20126
814.692	20286
814.833	20092
814.974	20153
815.115	20161
815.256	20077
815.397	20050
815.539	19951
815.68	19925
815.821	19871
815.962	19921
816.103	19830
816.244	19772
816.385	19647
816.526	19559
816.666	19392
816.807	19236
816.948	19415
817.089	19415
817.23	19441
817.371	19343
817.512	19194
817.653	19301
817.793	19324
817.934	19217
818.075	19426
818.216	19430
818.356	19270
818.497	19133
818.638	18882
818.778	18894
818.919	18943
819.06	18996
819.2	19137
819.341	19099
819.481	19168
819.622	19324
819.762	19514
819.903	19392
820.043	19384
820.184	19221
820.324	19221
820.465	19304
820.605	19228
820.746	19270
820.886	19107
821.026	19183
821.167	19145
821.307	19316
821.447	19164
821.588	19095
821.728	18993
821.868	18848
822.008	18734
822.149	18642
822.289	18681
822.429	18426
822.569	18365
822.709	18353
822.849	18292
822.99	18209
823.13	18114
823.27	18186
823.41	17893
823.55	17927
823.69	18106
823.83	18007
823.97	17996
824.11	17851
824.25	17767
824.389	17779
824.529	17847
824.669	17691
824.809	17904
824.949	17794
825.089	17874
825.228	17771
825.368	17684
825.508	17543
825.648	17604
825.787	17630
825.927	17634
826.067	17493
826.206	17509
826.346	17505
826.485	17520
826.625	17611
826.765	17661
826.904	17573
827.044	17444
827.183	17345
827.323	17311
827.462	17273
827.601	17299
827.741	17280
827.88	17269
828.02	17212
828.159	17261
828.298	17322
828.437	17372
828.577	17239
828.716	17372
828.855	17239
828.994	17010
829.134	17018
829.273	17025
829.412	16995
829.551	17048
829.69	16965
829.829	17064
829.968	17105
830.107	16965
830.246	17117
830.385	16892
830.524	16923
830.663	16850
830.802	16679
830.941	16729
831.08	16637
831.219	16744
831.357	16721
831.496	16873
831.635	16500
831.774	16500
831.913	16660
832.051	16421
832.19	16470
832.329	16500
832.467	16436
832.606	16272
832.744	16287
832.883	16322
833.022	16287
833.16	16295
833.299	16413
833.437	16363
833.576	16447
833.714	16394
833.852	16371
833.991	16443
834.129	16554
834.267	16409
834.406	16367
834.544	16405
834.682	16459
834.821	16466
834.959	16592
835.097	16379
835.235	16398
835.373	16493
835.511	16443
835.65	16394
835.788	16276
835.926	16219
836.064	16101
836.202	16257
836.34	16284
836.478	16325
836.615	16181
836.753	16318
836.891	16314
837.029	16451
837.167	16230
837.305	16226
837.443	16242
837.58	16139
837.718	16261
837.856	16169
837.993	16090
838.131	16219
838.269	16185
838.406	16291
838.544	16078
838.681	15911
838.819	15831
838.956	15812
839.094	15774
839.231	15808
839.369	15884
839.506	16143
839.643	15956
839.781	15804
839.918	15789
840.055	15808
840.193	15713
840.33	15759
840.467	15789
840.604	15682
840.742	16067
840.879	15633
841.016	15785
841.153	15759
841.29	15861
841.427	15774
841.564	15804
841.701	15823
841.838	15739
841.975	15648
842.112	15713
842.249	15587
842.385	15587
842.522	15759
842.659	15523
842.796	15504
842.933	15568
843.069	15584
843.206	15507
843.343	15652
843.479	15660
843.616	15660
843.752	15325
843.889	15420
844.025	15545
844.162	15180
844.298	15348
844.435	15336
844.571	15382
844.708	15428
844.844	15534
844.98	15507
845.117	15416
845.253	15256
845.389	15260
845.525	15313
845.661	15249
845.798	15100
845.934	15249
846.07	15154
846.206	15252
846.342	15173
846.478	15093
846.614	15070
846.75	14849
846.886	14910
847.022	14963
847.158	14944
847.294	15024
847.429	14933
847.565	14861
847.701	15169
847.837	14636
847.972	14686
848.108	14731
848.244	14792
848.379	14522
848.515	14568
848.65	14560
848.786	14461
848.921	14533
849.057	14644
849.192	14590
849.328	14541
849.463	14442
849.598	14492
849.734	14404
849.869	14290
850.004	14233
850.14	14317
850.275	14290
850.41	14252
850.545	14073
850.68	14309
850.815	14298
850.95	14313
851.085	14347
851.22	14229
851.355	14290
851.49	14153
851.625	14191
851.76	14259
851.895	14096
852.03	14138
852.165	14278
852.299	14244
852.434	14278
852.569	14282
852.703	14301
852.838	14446
852.973	14423
853.107	14374
853.242	14218
853.376	14092
853.511	14050
853.645	14130
853.78	14206
853.914	14111
854.048	14092
854.183	14145
854.317	14138
854.451	14294
854.585	14119
854.72	14103
854.854	14267
854.988	14039
855.122	14130
855.256	13997
855.39	14024
855.524	14130
855.658	14180
855.792	14237
855.926	14081
856.06	14180
856.194	14240
856.327	14126
856.461	14031
856.595	14157
856.729	14138
856.862	14290
856.996	14153
857.13	14263
857.263	14267
857.397	14229
857.53	14153
857.664	14168
857.797	14168
857.931	14206
858.064	14229
858.197	14229
858.331	14244
858.464	14149
858.597	13997
858.731	14176
858.864	14043
858.997	14164
859.13	14126
859.263	14176
859.396	14138
859.529	14012
859.662	14084
859.795	14115
859.928	14191
860.061	14336
860.194	14248
860.327	14195
860.46	14153
860.592	14358
860.725	14263
860.858	14320
860.99	14183
861.123	14119
861.256	14088
861.388	14176
861.521	14834
861.653	14054
861.786	13955
861.918	14058
862.05	14073
862.183	14081
862.315	14153
862.447	14145
862.58	14142
862.712	13955
862.844	13902
862.976	13951
863.108	14046
863.24	14328
863.372	13868
863.504	13879
863.636	13921
863.768	14031
863.9	13932
864.032	13917
864.164	13814
864.296	13940
864.428	14001
864.559	14008
864.691	14024
864.823	14054
864.954	13959
865.086	13982
865.217	13830
865.349	13845
865.48	13883
865.612	13875
865.743	14100
865.875	13830
866.006	13772
866.137	13890
866.269	13978
866.4	13856
866.531	13868
866.662	13784
866.793	13963
866.924	13883
867.055	13879
867.186	13982
867.317	13811
867.448	13879
867.579	13894
867.71	13864
867.841	13921
867.972	13913
868.103	13822
868.233	13944
868.364	13978
868.495	14027
868.625	14206
868.756	14233
868.886	14069
869.017	14206
869.147	14286
869.278	14320
869.408	14195
869.539	14100
869.669	14259
869.799	14267
869.929	14267
870.06	14313
870.19	14495
870.32	14377
870.45	14469
870.58	14575
870.71	14667
870.84	14712
870.97	14465
871.1	14625
871.23	14727
871.36	14864
871.489	14701
871.619	14727
871.749	14746
871.879	14830
872.008	14952
872.138	14785
872.267	14762
872.397	14682
872.526	14598
872.656	14613
872.785	14590
872.915	14731
873.044	14724
873.173	14785
873.303	14811
873.432	14864
873.561	14796
873.69	14845
873.819	14876
873.948	14891
874.077	14785
874.206	14746
874.335	14925
874.464	15005
874.593	15093
874.722	15100
874.851	15039
874.979	15211
875.108	15203
875.237	15097
875.365	15138
875.494	15093
875.623	15192
875.751	15157
875.88	15222
876.008	15241
876.136	15313
876.265	15679
876.393	15656
876.521	15679
876.65	15618
876.778	15542
876.906	15469
877.034	15447
877.162	15545
877.29	15492
877.418	15526
877.546	15538
877.674	15561
877.802	15530
877.93	15515
878.058	15504
878.185	15435
878.313	15389
878.441	15534
878.568	15317
878.696	15416
878.824	15557
878.951	15682
879.079	15759
879.206	15819
879.333	15770
879.461	15606
879.588	15660
879.715	15720
879.842	15850
879.97	15679
880.097	15462
880.224	15481
880.351	15424
880.478	15454
880.605	15473
880.732	15439
880.859	15724
880.986	15481
881.112	15386
881.239	15252
881.366	15233
881.493	15077
881.619	15024
881.746	15062
881.872	15085
881.999	15017
882.125	15085
882.252	15138
882.378	15036
882.505	15226
882.631	14933
882.757	14902
882.883	14967
883.01	14842
883.136	14842
883.262	14746
883.388	14712
883.514	14921
883.64	14891
883.766	14838
883.892	14663
884.018	14651
884.143	14815
884.269	14861
884.395	14590
884.52	14556
884.646	14583
884.772	14473
884.897	14461
885.023	14583
885.148	14651
885.274	14724
885.399	14625
885.524	14648
885.65	14579
885.775	14564
885.9	14564
886.025	14682
886.15	14583
886.275	14659
886.4	14488
886.525	14541
886.65	14423
886.775	14552
886.9	14648
887.025	14746
887.149	14549
887.274	14374
887.399	14431
887.523	14370
887.648	14370
887.773	14351
887.897	14488
888.021	14492
888.146	14415
888.27	14549
888.395	14659
888.519	14473
888.643	14362
888.767	14454
888.891	14355
889.015	14259
889.139	14278
889.263	14301
889.387	14290
889.511	14518
889.635	14389
889.759	14278
889.883	14111
890.006	14320
890.13	14457
890.254	14218
890.377	14301
890.501	14035
890.624	14005
890.748	14126
890.871	13997
890.995	13902
891.118	13928
891.241	14001
891.364	13997
891.488	14103
891.611	14054
891.734	13963
891.857	14065
891.98	13989
892.103	14008
892.226	13959
892.349	13928
892.471	13811
892.594	13986
892.717	13993
892.839	13989
892.962	13982
893.085	14046
893.207	13963
893.33	13852
893.452	14016
893.575	14084
893.697	13913
893.819	14183
893.941	14221
894.064	14084
894.186	13963
894.308	14001
894.43	14157
894.552	14294
894.674	14115
894.796	13997
894.918	14103
895.04	14130
895.161	14043
895.283	14130
895.405	13974
895.526	14031
895.648	14103
895.769	14123
895.891	14043
896.012	14221
896.134	14149
896.255	14115
896.376	14096
896.498	14081
896.619	14206
896.74	14176
896.861	14195
896.982	14495
897.103	14648
897.224	14495
897.345	14366
897.466	14374
897.587	14370
897.708	14495
897.828	14446
897.949	14393
898.07	14248
898.19	14389
898.311	14507
898.431	14511
898.552	14518
898.672	14621
898.792	14606
898.913	14507
899.033	14358
899.153	14290
899.273	14301
899.393	14343
899.513	14404
899.633	14305
899.753	14434
899.873	14396
899.993	14408
900.113	14370
900.232	14278
900.352	14305
900.472	14225
900.591	14130
900.711	14164
900.83	14123
900.95	14305
901.069	14370
901.189	14256
901.308	13928
901.427	13814
901.546	13894
901.665	13887
901.784	13951
901.904	13753
902.023	13601
902.141	13464
902.26	13491
902.379	13487
902.498	13567
902.617	13358
902.735	13514
902.854	13491
902.973	13369
903.091	13274
903.21	13236
903.328	13114
903.446	13137
903.565	12977
903.683	13103
903.801	12970
903.919	12989
904.038	12996
904.156	12863
904.274	12867
904.392	12837
904.51	12791
904.627	12810
904.745	12897
904.863	12894
904.981	12593
905.098	12555
905.216	12471
905.334	12665
905.451	12574
905.569	12467
905.686	12525
905.803	12570
905.921	12407
906.038	12502
906.155	12380
906.272	12281
906.389	12300
906.506	12106
906.623	12079
906.74	12095
906.857	11996
906.974	12022
907.091	12224
907.208	12270
907.324	12091
907.441	12076
907.557	11954
907.674	11836
907.79	11764
907.907	11931
908.023	11912
908.139	11889
908.256	11866
908.372	11863
908.488	11779
908.604	11642
908.72	11627
908.836	11680
908.952	11619
909.068	11638
909.184	11745
909.3	11661
909.415	11726
909.531	11570
909.647	11452
909.762	11421
909.878	11398
909.993	11455
910.108	11383
910.224	11326
910.339	11387
910.454	11311
910.57	11265
910.685	11197
910.8	11505
910.915	11414
911.03	11326
911.145	11170
911.259	11067
911.374	11121
911.489	11029
911.604	10972
911.718	10942
911.833	10949
911.947	10850
912.062	10729
912.176	10820
912.291	10881
912.405	10900
912.519	11056
912.633	11136
912.748	11033
912.862	10889
912.976	10809
913.09	10694
913.204	10717
913.318	10809
913.431	10919
913.545	10869
913.659	10934
913.772	10831
913.886	10599
914	10618
914.113	10740
914.226	10786
914.34	10752
914.453	10599
914.566	10725
914.68	10542
914.793	10565
914.906	10428
915.019	10402
915.132	10348
915.245	10447
915.358	10489
915.47	10478
915.583	10394
915.696	10474
915.809	10573
915.921	10588
916.034	10337
916.146	10375
916.259	10360
916.371	10447
916.483	10367
916.595	10246
916.708	10337
916.82	10322
916.932	10337
917.044	10276
917.156	10314
917.268	10188
917.38	10291
917.491	10143
917.603	10257
917.715	10306
917.826	10299
917.938	10166
918.049	10090
918.161	10204
918.272	10394
918.384	10303
918.495	10265
918.606	10116
918.717	10082
918.828	10131
918.939	10105
919.05	10021
919.161	10067
919.272	9918
919.383	9998
919.494	10265
919.604	10291
919.715	10257
919.826	10200
919.936	10055
920.047	10143
920.157	10169
920.267	10356
920.378	10105
920.488	10082
920.598	10394
920.708	10459
920.818	10314
920.928	10356
921.038	10455
921.148	10382
921.258	10078
921.368	10105
921.477	10055
921.587	9964
921.697	9941
921.806	9960
921.916	9854
922.025	9793
922.134	9686
922.244	9713
922.353	9751
922.462	9561
922.571	9530
922.68	9454
922.789	9367
922.898	9329
923.007	9348
923.116	9405
923.224	9363
923.333	9428
923.442	9317
923.55	9275
923.659	9325
923.767	9344
923.876	9226
923.984	9348
924.092	9173
924.201	9363
924.309	9287
924.417	9237
924.525	9218
924.633	9264
924.741	10150
924.849	8963
924.956	9165
925.064	9032
925.172	8941
925.279	8948
925.387	9077
925.494	9085
925.602	9154
925.709	9116
925.816	8994
925.924	9005
926.031	9180
926.138	9009
926.245	9032
926.352	8902
926.459	9081
926.566	9127
926.673	8979
926.779	8895
926.886	8982
926.993	8773
927.099	8861
927.206	8716
927.312	8781
927.419	8845
927.525	8735
927.631	8785
927.737	8648
927.843	8659
927.95	8606
928.056	8629
928.162	8640
928.267	8708
928.373	9291
928.479	8758
928.585	8571
928.69	8640
928.796	8697
928.901	8621
929.007	8415
929.112	8518
929.218	8537
929.323	8518
929.428	8552
929.533	8613
929.638	8408
929.743	8400
929.848	8545
929.953	8476
930.058	8389
930.163	8248
930.267	8271
930.372	8358
930.477	8221
930.581	8484
930.685	8362
930.79	8123
930.894	8271
930.998	8191
931.103	8282
931.207	7993
931.311	7936
931.415	7852
931.519	7689
931.623	7753
