Data from test_V78500241_1815.txt Node
Date: Fri Mar 25 14:46:21 CST 2022
User: usil
Spectrometer: V785-0024
Trigger mode: 0
Integration Time (sec): 4.000000E-1
Scans to average: 1
Nonlinearity correction enabled: false
Boxcar width: 0
Storing dark spectrum: false
XAxis mode: Wavelengths
Number of Pixels in Spectrum: 1024
>>>>>Begin Spectral Data<<<<<
801.071	22112
801.214	22131
801.356	21713
801.499	21652
801.641	21530
801.783	21545
801.926	21625
802.068	21580
802.211	21450
802.353	21180
802.496	21009
802.638	21017
802.78	21039
802.923	20773
803.065	20834
803.208	20785
803.35	20861
803.492	20971
803.635	21017
803.777	20899
803.919	20952
804.061	21241
804.204	20899
804.346	20815
804.488	20720
804.63	20727
804.773	20724
804.915	20811
805.057	20845
805.199	20792
805.341	20891
805.483	21017
805.626	20883
805.768	20830
805.91	20800
806.052	20861
806.194	20716
806.336	20910
806.478	20895
806.62	20678
806.762	20830
806.904	20952
807.046	21154
807.188	21112
807.33	21192
807.472	21222
807.614	20990
807.756	21062
807.898	20994
808.04	20872
808.182	20773
808.324	20845
808.465	20952
808.607	21020
808.749	21131
808.891	21294
809.033	21199
809.174	21321
809.316	21188
809.458	21188
809.6	21062
809.741	21127
809.883	21188
810.025	21420
810.166	21287
810.308	21359
810.45	21268
810.591	21237
810.733	21036
810.875	20948
811.016	20887
811.158	20960
811.299	21077
811.441	21077
811.582	20979
811.724	20880
811.865	20853
812.007	20994
812.148	20910
812.29	21062
812.431	21192
812.573	21176
812.714	21401
812.855	21367
812.997	21568
813.138	21660
813.279	21625
813.421	21393
813.562	21389
813.703	21192
813.845	21081
813.986	20826
814.127	20670
814.268	20560
814.41	20598
814.551	20530
814.692	20507
814.833	20450
814.974	20351
815.115	20404
815.256	20317
815.397	20347
815.539	20351
815.68	20240
815.821	20142
815.962	20244
816.103	20153
816.244	20005
816.385	20024
816.526	19902
816.666	19750
816.807	19693
816.948	19784
817.089	19712
817.23	19601
817.371	19677
817.512	19571
817.653	19632
817.793	19594
817.934	19521
818.075	19723
818.216	19548
818.356	19586
818.497	19426
818.638	19209
818.778	19365
818.919	19247
819.06	19350
819.2	19377
819.341	19529
819.481	19613
819.622	19670
819.762	19791
819.903	19753
820.043	19658
820.184	19658
820.324	19681
820.465	19791
820.605	19540
820.746	19597
820.886	19449
821.026	19559
821.167	19582
821.307	19700
821.447	19605
821.588	19403
821.728	19415
821.868	19160
822.008	19050
822.149	19015
822.289	18935
822.429	18833
822.569	18673
822.709	18658
822.849	18490
822.99	18540
823.13	18338
823.27	18559
823.41	18304
823.55	18254
823.69	18281
823.83	18216
823.97	18228
824.11	18091
824.25	18072
824.389	18106
824.529	18216
824.669	17999
824.809	18159
824.949	18167
825.089	18140
825.228	18232
825.368	18015
825.508	17847
825.648	17927
825.787	17882
825.927	17954
826.067	17798
826.206	17802
826.346	17904
826.485	17859
826.625	17824
826.765	17984
826.904	17942
827.044	17630
827.183	17452
827.323	17581
827.462	17608
827.601	17532
827.741	17562
827.88	17585
828.02	17376
828.159	17665
828.298	17608
828.437	17554
828.577	17665
828.716	17699
828.855	17577
828.994	17463
829.134	17379
829.273	17395
829.412	17318
829.551	17284
829.69	17269
829.829	17326
829.968	17444
830.107	17398
830.246	17387
830.385	17231
830.524	17166
830.663	17140
830.802	17052
830.941	16953
831.08	16946
831.219	17109
831.357	16995
831.496	17083
831.635	17018
831.774	16736
831.913	16820
832.051	16710
832.19	16565
832.329	16702
832.467	16630
832.606	16607
832.744	16611
832.883	16687
833.022	16558
833.16	16660
833.299	16656
833.437	16717
833.576	16611
833.714	16660
833.852	16740
833.991	16672
834.129	16797
834.267	16733
834.406	16668
834.544	16694
834.682	16767
834.821	16668
834.959	16866
835.097	16615
835.235	16752
835.373	16694
835.511	16660
835.65	16675
835.788	16474
835.926	16413
836.064	16398
836.202	16322
836.34	16558
836.478	16717
836.615	16626
836.753	16645
836.891	16748
837.029	16626
837.167	16565
837.305	16489
837.443	16428
837.58	16413
837.718	16550
837.856	16436
837.993	16428
838.131	16455
838.269	16424
838.406	16409
838.544	16322
838.681	16249
838.819	16265
838.956	16051
839.094	15972
839.231	16048
839.369	16135
839.506	16413
839.643	16211
839.781	16025
839.918	15945
840.055	16010
840.193	15983
840.33	15949
840.467	16017
840.604	16059
840.742	16215
840.879	15884
841.016	15873
841.153	15934
841.29	16082
841.427	16090
841.564	16021
841.701	16067
841.838	15983
841.975	15846
842.112	15937
842.249	15800
842.385	15808
842.522	16002
842.659	15816
842.796	15766
842.933	15800
843.069	15739
843.206	15705
843.343	15857
843.479	15770
843.616	15774
843.752	15667
843.889	15625
844.025	15705
844.162	15568
844.298	15698
844.435	15606
844.571	15492
844.708	15694
844.844	15755
844.98	15671
845.117	15732
845.253	15507
845.389	15511
845.525	15458
845.661	15424
845.798	15355
845.934	15469
846.07	15329
846.206	15477
846.342	15401
846.478	15416
846.614	15306
846.75	15192
846.886	15203
847.022	15146
847.158	15222
847.294	15135
847.429	15127
847.565	15036
847.701	15458
847.837	14937
847.972	14754
848.108	15032
848.244	15013
848.379	14670
848.515	14731
848.65	14701
848.786	14716
848.921	14777
849.057	14804
849.192	14918
849.328	14754
849.463	14670
849.598	14731
849.734	14655
849.869	14701
850.004	14530
850.14	14579
850.275	14492
850.41	14530
850.545	14374
850.68	14438
850.815	14606
850.95	14514
851.085	14651
851.22	14606
851.355	14518
851.49	14484
851.625	14442
851.76	14427
851.895	14454
852.03	14473
852.165	14503
852.299	14560
852.434	14621
852.569	14476
852.703	14473
852.838	14583
852.973	14705
853.107	14632
853.242	14526
853.376	14419
853.511	14225
853.645	14309
853.78	14514
853.914	14286
854.048	14309
854.183	14351
854.317	14332
854.451	14606
854.585	14522
854.72	14332
854.854	14575
854.988	14298
855.122	14347
855.256	14233
855.39	14343
855.524	14545
855.658	14484
855.792	14347
855.926	14419
856.06	14461
856.194	14503
856.327	14343
856.461	14286
856.595	14393
856.729	14412
856.862	14469
856.996	14415
857.13	14461
857.263	14465
857.397	14457
857.53	14377
857.664	14434
857.797	14442
857.931	14507
858.064	14404
858.197	14495
858.331	14396
858.464	14358
858.597	14290
858.731	14385
858.864	14343
858.997	14347
859.13	14415
859.263	14275
859.396	14351
859.529	14446
859.662	14347
859.795	14298
859.928	14404
860.061	14526
860.194	14640
860.327	14457
860.46	14434
860.592	14488
860.725	14537
860.858	14446
860.99	14347
861.123	14358
861.256	14221
861.388	14446
861.521	14971
861.653	14328
861.786	14218
861.918	14286
862.05	14294
862.183	14332
862.315	14431
862.447	14343
862.58	14309
862.712	14157
862.844	14081
862.976	14248
863.108	14267
863.24	14469
863.372	14027
863.504	14115
863.636	14081
863.768	14240
863.9	14161
864.032	14130
864.164	14081
864.296	14134
864.428	14202
864.559	14233
864.691	14218
864.823	14271
864.954	14202
865.086	14176
865.217	14123
865.349	14062
865.48	14191
865.612	14092
865.743	14282
865.875	14142
866.006	14153
866.137	14111
866.269	14088
866.4	14103
866.531	14084
866.662	13986
866.793	14035
866.924	14149
867.055	14168
867.186	14218
867.317	14058
867.448	14107
867.579	14016
867.71	14035
867.841	14062
867.972	14180
868.103	14153
868.233	14084
868.364	14111
868.495	14187
868.625	14366
868.756	14473
868.886	14286
869.017	14339
869.147	14545
869.278	14533
869.408	14271
869.539	14370
869.669	14473
869.799	14393
869.929	14473
870.06	14590
870.19	14781
870.32	14697
870.45	14765
870.58	14796
870.71	14853
870.84	14937
870.97	14750
871.1	14746
871.23	15028
871.36	14971
871.489	14941
871.619	14998
871.749	14933
871.879	14979
872.008	15039
872.138	14986
872.267	15024
872.397	14880
872.526	14739
872.656	14777
872.785	14830
872.915	14872
873.044	15051
873.173	14971
873.303	15058
873.432	15039
873.561	15047
873.69	15036
873.819	15127
873.948	15066
874.077	15135
874.206	14998
874.335	14982
874.464	15214
874.593	15329
874.722	15306
874.851	15336
874.979	15435
875.108	15401
875.237	15249
875.365	15298
875.494	15313
875.623	15412
875.751	15344
875.88	15348
876.008	15473
876.136	15587
876.265	15781
876.393	15903
876.521	15827
876.65	15838
876.778	15724
876.906	15637
877.034	15701
877.162	15690
877.29	15633
877.418	15774
877.546	15652
877.674	15838
877.802	15743
877.93	15831
878.058	15717
878.185	15675
878.313	15736
878.441	15698
878.568	15561
878.696	15823
878.824	15884
878.951	15941
879.079	15892
879.206	16071
879.333	15884
879.461	15857
879.588	15945
879.715	15915
879.842	16071
879.97	15781
880.097	15701
880.224	15549
880.351	15656
880.478	15633
880.605	15625
880.732	15580
880.859	15819
880.986	15713
881.112	15698
881.239	15481
881.366	15329
881.493	15218
881.619	15264
881.746	15256
881.872	15165
881.999	15218
882.125	15287
882.252	15256
882.378	15279
882.505	15348
882.631	15237
882.757	15093
882.883	15081
883.01	15207
883.136	15039
883.262	15017
883.388	14910
883.514	15017
883.64	15169
883.766	15032
883.892	14914
884.018	14937
884.143	15108
884.269	15077
884.395	14880
884.52	14743
884.646	14895
884.772	14758
884.897	14648
885.023	14788
885.148	14902
885.274	14963
885.399	14910
885.524	14705
885.65	14838
885.775	14834
885.9	14686
886.025	14914
886.15	14868
886.275	14933
886.4	14659
886.525	14724
886.65	14750
886.775	14655
886.9	14941
887.025	15070
887.149	14735
887.274	14678
887.399	14640
887.523	14533
887.648	14701
887.773	14564
887.897	14674
888.021	14648
888.146	14541
888.27	14769
888.395	14758
888.519	14693
888.643	14697
888.767	14720
888.891	14613
889.015	14396
889.139	14564
889.263	14465
889.387	14530
889.511	14720
889.635	14583
889.759	14442
889.883	14400
890.006	14518
890.13	14594
890.254	14366
890.377	14450
890.501	14259
890.624	14328
890.748	14343
890.871	14145
890.995	14107
891.118	14084
891.241	14145
891.364	14176
891.488	14271
891.611	14191
891.734	14225
891.857	14336
891.98	14199
892.103	14282
892.226	14176
892.349	14138
892.471	14073
892.594	14134
892.717	14172
892.839	14050
892.962	14115
893.085	14221
893.207	14233
893.33	14123
893.452	14103
893.575	14191
893.697	14115
893.819	14313
893.941	14328
894.064	14294
894.186	14119
894.308	14065
894.43	14339
894.552	14412
894.674	14385
894.796	14123
894.918	14256
895.04	14130
895.161	14305
895.283	14199
895.405	14172
895.526	14282
895.648	14351
895.769	14355
895.891	14366
896.012	14431
896.134	14377
896.255	14389
896.376	14336
896.498	14351
896.619	14442
896.74	14442
896.861	14438
896.982	14590
897.103	14861
897.224	14678
897.345	14602
897.466	14579
897.587	14587
897.708	14796
897.828	14701
897.949	14575
898.07	14556
898.19	14495
898.311	14773
898.431	14602
898.552	14689
898.672	14731
898.792	14712
898.913	14845
899.033	14621
899.153	14610
899.273	14492
899.393	14552
899.513	14602
899.633	14575
899.753	14552
899.873	14530
899.993	14632
900.113	14526
900.232	14594
900.352	14537
900.472	14522
900.591	14412
900.711	14412
900.83	14419
900.95	14412
901.069	14541
901.189	14244
901.308	14138
901.427	14058
901.546	13978
901.665	14164
901.784	14161
901.904	13906
902.023	13845
902.141	13681
902.26	13681
902.379	13719
902.498	13666
902.617	13594
902.735	13609
902.854	13719
902.973	13544
903.091	13384
903.21	13472
903.328	13384
903.446	13270
903.565	13304
903.683	13247
903.801	13145
903.919	13160
904.038	13206
904.156	12985
904.274	13171
904.392	13023
904.51	13012
904.627	13038
904.745	13103
904.863	13091
904.981	12928
905.098	12707
905.216	12730
905.334	12719
905.451	12719
905.569	12711
905.686	12776
905.803	12776
905.921	12490
906.038	12616
906.155	12570
906.272	12536
906.389	12456
906.506	12342
906.623	12327
906.74	12243
906.857	12296
906.974	12178
907.091	12395
907.208	12464
907.324	12353
907.441	12224
907.557	12064
907.674	12057
907.79	11977
907.907	12011
908.023	12125
908.139	12045
908.256	11942
908.372	11950
908.488	11992
908.604	11813
908.72	11779
908.836	11828
908.952	11783
909.068	11836
909.184	11885
909.3	11843
909.415	11916
909.531	11824
909.647	11615
909.762	11642
909.878	11524
909.993	11615
910.108	11512
910.224	11471
910.339	11585
910.454	11486
910.57	11455
910.685	11414
910.8	11573
910.915	11592
911.03	11402
911.145	11303
911.259	11227
911.374	11284
911.489	11280
911.604	11162
911.718	11071
911.833	11079
911.947	10980
912.062	10831
912.176	11033
912.291	11067
912.405	11060
912.519	11239
912.633	11181
912.748	11155
912.862	11006
912.976	10927
913.09	10793
913.204	10915
913.318	10957
913.431	10995
913.545	11060
913.659	11029
913.772	10892
913.886	10824
914	10759
914.113	10869
914.226	10915
914.34	10866
914.453	10729
914.566	10949
914.68	10755
914.793	10824
914.906	10618
915.019	10519
915.132	10573
915.245	10512
915.358	10641
915.47	10569
915.583	10550
915.696	10569
915.809	10645
915.921	10721
916.034	10554
916.146	10459
916.259	10443
916.371	10599
916.483	10523
916.595	10546
916.708	10443
916.82	10497
916.932	10402
917.044	10447
917.156	10508
917.268	10375
917.38	10367
917.491	10356
917.603	10402
917.715	10432
917.826	10573
917.938	10390
918.049	10207
918.161	10398
918.272	10500
918.384	10558
918.495	10398
918.606	10299
918.717	10192
918.828	10303
918.939	10333
919.05	10162
919.161	10227
919.272	10097
919.383	10162
919.494	10375
919.604	10428
919.715	10268
919.826	10188
919.936	10230
920.047	10367
920.157	10280
920.267	10508
920.378	10329
920.488	10314
920.598	10451
920.708	10561
920.818	10451
920.928	10413
921.038	10694
921.148	10592
921.258	10303
921.368	10287
921.477	10074
921.587	10074
921.697	10055
921.806	10169
921.916	10036
922.025	9899
922.134	9751
922.244	9816
922.353	9876
922.462	9656
922.571	9686
922.68	9580
922.789	9447
922.898	9549
923.007	9523
923.116	9584
923.224	9553
923.333	9466
923.442	9424
923.55	9519
923.659	9370
923.767	9458
923.876	9370
923.984	9481
924.092	9317
924.201	9405
924.309	9393
924.417	9291
924.525	9291
924.633	9336
924.741	10276
924.849	9161
924.956	9340
925.064	9138
925.172	9089
925.279	9184
925.387	9123
925.494	9207
925.602	9325
925.709	9264
925.816	9138
925.924	9138
926.031	9264
926.138	9157
926.245	9157
926.352	9104
926.459	9207
926.566	9249
926.673	9051
926.779	8963
926.886	8967
926.993	8914
927.099	8876
927.206	8796
927.312	8792
927.419	8887
927.525	8948
927.631	8902
927.737	8796
927.843	8746
927.95	8686
928.056	8720
928.162	8800
928.267	8826
928.373	9389
928.479	8853
928.585	8655
928.69	8731
928.796	8796
928.901	8712
929.007	8552
929.112	8670
929.218	8655
929.323	8583
929.428	8629
929.533	8693
929.638	8571
929.743	8530
929.848	8594
929.953	8568
930.058	8450
930.163	8332
930.267	8366
930.372	8526
930.477	8343
930.581	8533
930.685	8473
930.79	8263
930.894	8381
930.998	8282
931.103	8446
931.207	8103
931.311	8024
931.415	8016
931.519	7780
931.623	7731
