Data from test_V78500241_778.txt Node
Date: Fri Mar 25 14:39:08 CST 2022
User: usil
Spectrometer: V785-0024
Trigger mode: 0
Integration Time (sec): 4.000000E-1
Scans to average: 1
Nonlinearity correction enabled: false
Boxcar width: 0
Storing dark spectrum: false
XAxis mode: Wavelengths
Number of Pixels in Spectrum: 1024
>>>>>Begin Spectral Data<<<<<
801.071	26868
801.214	26625
801.356	26427
801.499	26309
801.641	26031
801.783	26111
801.926	26290
802.068	26119
802.211	25947
802.353	26005
802.496	25727
802.638	25597
802.78	25586
802.923	25693
803.065	25453
803.208	25518
803.35	25677
803.492	25639
803.635	25670
803.777	25738
803.919	25696
804.061	25970
804.204	25776
804.346	25727
804.488	25731
804.63	25757
804.773	25868
804.915	25993
805.057	26065
805.199	26001
805.341	26252
805.483	26225
805.626	26164
805.768	26263
805.91	26484
806.052	26514
806.194	26453
806.336	26891
806.478	26918
806.62	27062
806.762	27367
806.904	27755
807.046	28253
807.188	28512
807.33	28904
807.472	29474
807.614	29958
807.756	30977
807.898	32001
808.04	33431
808.182	35277
808.324	37540
808.465	40500
808.607	43358
808.749	45968
808.891	47733
809.033	47950
809.174	46257
809.316	43712
809.458	40542
809.6	37388
809.741	34752
809.883	32830
810.025	31605
810.166	30452
810.308	29756
810.45	28809
810.591	28580
810.733	28086
810.875	27766
811.016	27382
811.158	27306
811.299	27218
811.441	27127
811.582	26998
811.724	26750
811.865	26644
812.007	26484
812.148	26461
812.29	26423
812.431	26457
812.573	26693
812.714	26724
812.855	26632
812.997	26651
813.138	26838
813.279	26575
813.421	26514
813.562	26457
813.703	26240
813.845	26077
813.986	25803
814.127	25628
814.268	25430
814.41	25430
814.551	25350
814.692	25384
814.833	25160
814.974	25320
815.115	25118
815.256	25088
815.397	25099
815.539	25042
815.68	24939
815.821	24791
815.962	24863
816.103	24859
816.244	24669
816.385	24593
816.526	24525
816.666	24338
816.807	24152
816.948	24213
817.089	24357
817.23	24194
817.371	24121
817.512	24205
817.653	24121
817.793	24045
817.934	24041
818.075	24064
818.216	24102
818.356	24117
818.497	23939
818.638	23729
818.778	23726
818.919	23897
819.06	23737
819.2	23866
819.341	23901
819.481	23931
819.622	24136
819.762	24296
819.903	24224
820.043	24053
820.184	24072
820.324	24041
820.465	23965
820.605	23931
820.746	23912
820.886	23847
821.026	23912
821.167	23847
821.307	23878
821.447	23798
821.588	23623
821.728	23528
821.868	23414
822.008	23185
822.149	23212
822.289	23250
822.429	22892
822.569	22831
822.709	22923
822.849	22588
822.99	22710
823.13	22535
823.27	22519
823.41	22550
823.55	22268
823.69	22375
823.83	22405
823.97	22466
824.11	22093
824.25	22249
824.389	22074
824.529	22143
824.669	22139
824.809	22322
824.949	22322
825.089	22249
825.228	22105
825.368	22040
825.508	21850
825.648	22029
825.787	22074
825.927	22135
826.067	21899
826.206	21903
826.346	22082
826.485	21979
826.625	21842
826.765	22032
826.904	21945
827.044	21682
827.183	21667
827.323	21595
827.462	21606
827.601	21648
827.741	21557
827.88	21599
828.02	21587
828.159	21587
828.298	21485
828.437	21671
828.577	21523
828.716	21580
828.855	21561
828.994	21340
829.134	21424
829.273	21382
829.412	21119
829.551	21226
829.69	21207
829.829	21355
829.968	21188
830.107	21401
830.246	21317
830.385	21249
830.524	21184
830.663	21085
830.802	20963
830.941	20918
831.08	21009
831.219	20918
831.357	20975
831.496	21093
831.635	20815
831.774	20842
831.913	20918
832.051	20765
832.19	20724
832.329	20735
832.467	20716
832.606	20678
832.744	20834
832.883	20674
833.022	20864
833.16	20975
833.299	21100
833.437	21157
833.576	21313
833.714	21469
833.852	21633
833.991	21663
834.129	21789
834.267	21713
834.406	21739
834.544	21534
834.682	21652
834.821	21401
834.959	21439
835.097	21131
835.235	21161
835.373	20918
835.511	20921
835.65	20701
835.788	20674
835.926	20556
836.064	20480
836.202	20400
836.34	20632
836.478	20587
836.615	20362
836.753	20507
836.891	20545
837.029	20552
837.167	20507
837.305	20469
837.443	20248
837.58	20225
837.718	20298
837.856	20237
837.993	20157
838.131	20168
838.269	20221
838.406	20122
838.544	20058
838.681	19776
838.819	19890
838.956	19700
839.094	19658
839.231	19685
839.369	19788
839.506	20073
839.643	19879
839.781	19712
839.918	19628
840.055	19704
840.193	19704
840.33	19544
840.467	19635
840.604	19734
840.742	19921
840.879	19362
841.016	19506
841.153	19613
841.29	19917
841.427	19723
841.564	19582
841.701	19776
841.838	19609
841.975	19510
842.112	19563
842.249	19571
842.385	19331
842.522	19662
842.659	19483
842.796	19556
842.933	19495
843.069	19495
843.206	19537
843.343	19651
843.479	19533
843.616	19594
843.752	19312
843.889	19529
844.025	19700
844.162	19708
844.298	19921
844.435	19761
844.571	19963
844.708	20385
844.844	20689
844.98	21085
845.117	21679
845.253	22573
845.389	24174
845.525	27507
845.661	32956
845.798	39176
845.934	43955
846.07	45713
846.206	44271
846.342	40223
846.478	33800
846.614	28443
846.75	24867
846.886	22664
847.022	21477
847.158	20758
847.294	20096
847.429	19719
847.565	19521
847.701	19563
847.837	19012
847.972	18802
848.108	19015
848.244	18806
848.379	18570
848.515	18570
848.65	18593
848.786	18540
848.921	18384
849.057	18471
849.192	18536
849.328	18521
849.463	18422
849.598	18277
849.734	18254
849.869	18292
850.004	18220
850.14	18114
850.275	18114
850.41	18155
850.545	18216
850.68	18098
850.815	18163
850.95	18117
851.085	18300
851.22	18300
851.355	18106
851.49	17988
851.625	18034
851.76	18117
851.895	18140
852.03	18068
852.165	18140
852.299	18182
852.434	18292
852.569	18167
852.703	18182
852.838	18285
852.973	18407
853.107	18380
853.242	18262
853.376	18182
853.511	18049
853.645	18148
853.78	18273
853.914	18311
854.048	18209
854.183	18407
854.317	18319
854.451	18532
854.585	18403
854.72	18270
854.854	18380
854.988	18201
855.122	18239
855.256	18068
855.39	18171
855.524	18209
855.658	18110
855.792	18121
855.926	18152
856.06	18003
856.194	18171
856.327	17999
856.461	18079
856.595	18034
856.729	17973
856.862	17965
856.996	18007
857.13	17980
857.263	18076
857.397	18030
857.53	17931
857.664	17996
857.797	18057
857.931	17988
858.064	17912
858.197	17939
858.331	17920
858.464	17771
858.597	17855
858.731	17874
858.864	17927
858.997	17775
859.13	17855
859.263	17901
859.396	18019
859.529	17821
859.662	17878
859.795	17767
859.928	17828
860.061	17912
860.194	18053
860.327	17832
860.46	17779
860.592	17863
860.725	18015
860.858	17885
860.99	17863
861.123	17695
861.256	17726
861.388	17809
861.521	18486
861.653	17676
861.786	17646
861.918	17611
862.05	17665
862.183	17687
862.315	17783
862.447	17767
862.58	17760
862.712	17463
862.844	17543
862.976	17474
863.108	17520
863.24	18019
863.372	17558
863.504	17410
863.636	17463
863.768	17532
863.9	17436
864.032	17356
864.164	17478
864.296	17516
864.428	17539
864.559	17566
864.691	17520
864.823	17501
864.954	17520
865.086	17501
865.217	17410
865.349	17334
865.48	17444
865.612	17440
865.743	17554
865.875	17448
866.006	17311
866.137	17433
866.269	17398
866.4	17242
866.531	17368
866.662	17360
866.793	17307
866.924	17364
867.055	17318
867.186	17433
867.317	17414
867.448	17376
867.579	17239
867.71	17299
867.841	17250
867.972	17486
868.103	17387
868.233	17315
868.364	17395
868.495	17459
868.625	17661
868.756	17714
868.886	17646
869.017	17657
869.147	17710
869.278	17786
869.408	17726
869.539	17668
869.669	17619
869.799	17748
869.929	17840
870.06	17813
870.19	18057
870.32	18041
870.45	18072
870.58	18079
870.71	18197
870.84	18209
870.97	18133
871.1	18083
871.23	18311
871.36	18323
871.489	18239
871.619	18254
871.749	18243
871.879	18391
872.008	18460
872.138	18346
872.267	18498
872.397	18273
872.526	18152
872.656	18342
872.785	18311
872.915	18483
873.044	18540
873.173	18570
873.303	18604
873.432	18604
873.561	18722
873.69	18551
873.819	18597
873.948	18757
874.077	18745
874.206	18631
874.335	18703
874.464	18768
874.593	19012
874.722	19042
874.851	19164
874.979	19129
875.108	19137
875.237	19202
875.365	19304
875.494	19263
875.623	19244
875.751	19297
875.88	19373
876.008	19495
876.136	19655
876.265	19883
876.393	20088
876.521	20107
876.65	20111
876.778	20008
876.906	20001
877.034	20111
877.162	20202
877.29	20199
877.418	20370
877.546	20438
877.674	20454
877.802	20689
877.93	20773
878.058	21009
878.185	20941
878.313	21260
878.441	21694
878.568	21778
878.696	22443
878.824	23273
878.951	24342
879.079	25780
879.206	27717
879.333	29585
879.461	31080
879.588	32237
879.715	32233
879.842	31377
879.97	29600
880.097	27542
880.224	26073
880.351	25012
880.478	24197
880.605	23661
880.732	23334
880.859	23250
880.986	22946
881.112	22869
881.239	22607
881.366	22554
881.493	22443
881.619	22318
881.746	22447
881.872	22390
881.999	22402
882.125	22421
882.252	22634
882.378	22573
882.505	22831
882.631	22592
882.757	22474
882.883	22413
883.01	22485
883.136	22379
883.262	22367
883.388	22196
883.514	22470
883.64	22466
883.766	22253
883.892	22192
884.018	22188
884.143	22421
884.269	22474
884.395	22200
884.52	22158
884.646	22268
884.772	22055
884.897	22090
885.023	22131
885.148	22268
885.274	22230
885.399	22082
885.524	21823
885.65	21732
885.775	21823
885.9	21595
886.025	21488
886.15	21389
886.275	21222
886.4	21028
886.525	20895
886.65	20712
886.775	20583
886.9	20682
887.025	20667
887.149	20495
887.274	20161
887.399	20069
887.523	19902
887.648	19860
887.773	19723
887.897	19830
888.021	19715
888.146	19597
888.27	19647
888.395	19616
888.519	19529
888.643	19472
888.767	19540
888.891	19312
889.015	19217
889.139	19263
889.263	19091
889.387	19236
889.511	19270
889.635	19194
889.759	19015
889.883	19004
890.006	18928
890.13	18954
890.254	18867
890.377	18730
890.501	18525
890.624	18555
890.748	18707
890.871	18399
890.995	18292
891.118	18258
891.241	18273
891.364	18258
891.488	18350
891.611	18079
891.734	18129
891.857	18273
891.98	18152
892.103	18171
892.226	18106
892.349	17977
892.471	17878
892.594	17874
892.717	17950
892.839	17897
892.962	17973
893.085	17950
893.207	17760
893.33	17813
893.452	17634
893.575	17847
893.697	17809
893.819	17901
893.941	17897
894.064	17733
894.186	17684
894.308	17554
894.43	17627
894.552	17748
894.674	17676
894.796	17425
894.918	17611
895.04	17558
895.161	17619
895.283	17478
895.405	17467
895.526	17577
895.648	17524
895.769	17486
895.891	17467
896.012	17554
896.134	17585
896.255	17463
896.376	17311
896.498	17414
896.619	17471
896.74	17410
896.861	17505
896.982	17779
897.103	17939
897.224	17687
897.345	17611
897.466	17570
897.587	17627
897.708	17756
897.828	17703
897.949	17547
898.07	17493
898.19	17516
898.311	17661
898.431	17573
898.552	17627
898.672	17695
898.792	17634
898.913	17661
899.033	17516
899.153	17493
899.273	17341
899.393	17414
899.513	17509
899.633	17436
899.753	17406
899.873	17356
899.993	17482
900.113	17364
900.232	17395
900.352	17368
900.472	17345
900.591	17197
900.711	17307
900.83	17284
900.95	17417
901.069	17330
901.189	17185
901.308	16980
901.427	16744
901.546	16782
901.665	16797
901.784	16889
901.904	16596
902.023	16565
902.141	16363
902.26	16303
902.379	16478
902.498	16314
902.617	16154
902.735	16284
902.854	16303
902.973	16204
903.091	15972
903.21	15934
903.328	15869
903.446	15800
903.565	15690
903.683	15728
903.801	15599
903.919	15713
904.038	15713
904.156	15576
904.274	15545
904.392	15424
904.51	15526
904.627	15496
904.745	15500
904.863	15545
904.981	15237
905.098	15173
905.216	15138
905.334	15161
905.451	15249
905.569	15074
905.686	15245
905.803	15100
905.921	14918
906.038	15051
906.155	14963
906.272	14804
906.389	14849
906.506	14727
906.623	14632
906.74	14590
906.857	14473
906.974	14552
907.091	14750
907.208	14815
907.324	14724
907.441	14537
907.557	14343
907.674	14362
907.79	14294
907.907	14286
908.023	14412
908.139	14385
908.256	14282
908.372	14278
908.488	14248
908.604	14191
908.72	13982
908.836	14134
908.952	14008
909.068	14138
909.184	14206
909.3	14081
909.415	14039
909.531	14077
909.647	13868
909.762	13822
909.878	13830
909.993	13864
910.108	13875
910.224	13750
910.339	13746
910.454	13715
910.57	13578
910.685	13552
910.8	13875
910.915	13784
911.03	13620
911.145	13533
911.259	13491
911.374	13510
911.489	13430
911.604	13301
911.718	13244
911.833	13221
911.947	13183
912.062	13042
912.176	13228
912.291	13247
912.405	13221
912.519	13324
912.633	13434
912.748	13282
912.862	13278
912.976	13065
913.09	12863
913.204	12977
913.318	13099
913.431	13099
913.545	13084
913.659	13099
913.772	13107
913.886	13031
914	12935
914.113	13046
914.226	13065
914.34	13008
914.453	12897
914.566	12973
914.68	12882
914.793	12852
914.906	12696
915.019	12585
915.132	12540
915.245	12578
915.358	12669
915.47	12604
915.583	12662
915.696	12696
915.809	12859
915.921	12772
916.034	12620
916.146	12570
916.259	12509
916.371	12612
916.483	12711
916.595	12509
916.708	12551
916.82	12707
916.932	12513
917.044	12555
917.156	12578
917.268	12448
917.38	12452
917.491	12399
917.603	12502
917.715	12353
917.826	12445
917.938	12384
918.049	12167
918.161	12311
918.272	12460
918.384	12388
918.495	12308
918.606	12148
918.717	12125
918.828	12220
918.939	12140
919.05	12079
919.161	12148
919.272	12007
919.383	11954
919.494	12167
919.604	12300
919.715	12114
919.826	12034
919.936	12095
920.047	12220
920.157	12110
920.267	12422
920.378	12163
920.488	12095
920.598	12285
920.708	12509
920.818	12376
920.928	12338
921.038	12361
921.148	12452
921.258	12133
921.368	11996
921.477	11980
921.587	11912
921.697	11786
921.806	11897
921.916	11802
922.025	11623
922.134	11653
922.244	11611
922.353	11585
922.462	11444
922.571	11452
922.68	11406
922.789	11250
922.898	11383
923.007	11239
923.116	11330
923.224	11303
923.333	11330
923.442	11128
923.55	11140
923.659	11143
923.767	11189
923.876	11037
923.984	11193
924.092	11067
924.201	11121
924.309	11121
924.417	11102
924.525	11079
924.633	11014
924.741	11863
924.849	10805
924.956	11033
925.064	10847
925.172	10816
925.279	10694
925.387	10889
925.494	10881
925.602	11037
925.709	10885
925.816	10672
925.924	10824
926.031	10869
926.138	10854
926.245	10850
926.352	10683
926.459	10877
926.566	10904
926.673	10752
926.779	10618
926.886	10634
926.993	10519
927.099	10497
927.206	10478
927.312	10500
927.419	10497
927.525	10451
927.631	10504
927.737	10398
927.843	10341
927.95	10272
928.056	10318
928.162	10291
928.267	10379
928.373	10987
928.479	10424
928.585	10185
928.69	10329
928.796	10375
928.901	10234
929.007	10109
929.112	10234
929.218	10150
929.323	10139
929.428	10185
929.533	10291
929.638	10101
929.743	10192
929.848	10173
929.953	10166
930.058	10021
930.163	9770
930.267	9819
930.372	10032
930.477	9846
930.581	10078
930.685	9922
930.79	9819
930.894	9732
930.998	9755
931.103	9960
931.207	9507
931.311	9500
931.415	9412
931.519	9272
931.623	9142
