Data from test_V78500241_3516.txt Node
Date: Fri Mar 25 14:58:11 CST 2022
User: usil
Spectrometer: V785-0024
Trigger mode: 0
Integration Time (sec): 4.000000E-1
Scans to average: 1
Nonlinearity correction enabled: false
Boxcar width: 0
Storing dark spectrum: false
XAxis mode: Wavelengths
Number of Pixels in Spectrum: 1024
>>>>>Begin Spectral Data<<<<<
801.071	21937
801.214	21717
801.356	21462
801.499	21523
801.641	21359
801.783	21268
801.926	21260
802.068	21142
802.211	21116
802.353	21009
802.496	20914
802.638	20899
802.78	20743
802.923	20678
803.065	20621
803.208	20503
803.35	20590
803.492	20804
803.635	20655
803.777	20545
803.919	20689
804.061	20933
804.204	20750
804.346	20583
804.488	20530
804.63	20522
804.773	20396
804.915	20446
805.057	20480
805.199	20313
805.341	20575
805.483	20556
805.626	20579
805.768	20465
805.91	20526
806.052	20419
806.194	20381
806.336	20678
806.478	20511
806.62	20549
806.762	20454
806.904	20731
807.046	20838
807.188	20895
807.33	20849
807.472	20944
807.614	20735
807.756	20716
807.898	20598
808.04	20552
808.182	20492
808.324	20609
808.465	20636
808.607	20682
808.749	20895
808.891	20933
809.033	20979
809.174	20872
809.316	20861
809.458	20910
809.6	20765
809.741	20960
809.883	20895
810.025	21043
810.166	21013
810.308	20929
810.45	20963
810.591	21009
810.733	20667
810.875	20575
811.016	20518
811.158	20503
811.299	20686
811.441	20686
811.582	20773
811.724	20648
811.865	20556
812.007	20594
812.148	20511
812.29	20587
812.431	20705
812.573	20921
812.714	21207
812.855	21119
812.997	21135
813.138	21313
813.279	21146
813.421	21062
813.562	21028
813.703	20899
813.845	20739
813.986	20579
814.127	20305
814.268	20172
814.41	20161
814.551	20229
814.692	20244
814.833	20164
814.974	20092
815.115	20229
815.256	19925
815.397	20027
815.539	19917
815.68	20001
815.821	19864
815.962	19917
816.103	19970
816.244	19833
816.385	19670
816.526	19643
816.666	19430
816.807	19308
816.948	19354
817.089	19449
817.23	19358
817.371	19194
817.512	19304
817.653	19293
817.793	19217
817.934	19202
818.075	19297
818.216	19274
818.356	19225
818.497	19038
818.638	18970
818.778	19008
818.919	19042
819.06	19065
819.2	18977
819.341	19133
819.481	19236
819.622	19308
819.762	19449
819.903	19396
820.043	19274
820.184	19293
820.324	19285
820.465	19407
820.605	19304
820.746	19339
820.886	19080
821.026	19156
821.167	19137
821.307	19228
821.447	19133
821.588	19145
821.728	18935
821.868	18768
822.008	18703
822.149	18597
822.289	18631
822.429	18544
822.569	18395
822.709	18342
822.849	18232
822.99	18213
823.13	18129
823.27	18148
823.41	17931
823.55	17939
823.69	18060
823.83	17878
823.97	17942
824.11	17817
824.25	17809
824.389	17710
824.529	17863
824.669	17832
824.809	17817
824.949	17973
825.089	17836
825.228	17767
825.368	17592
825.508	17551
825.648	17471
825.787	17577
825.927	17558
826.067	17547
826.206	17573
826.346	17543
826.485	17570
826.625	17554
826.765	17520
826.904	17520
827.044	17391
827.183	17284
827.323	17227
827.462	17330
827.601	17315
827.741	17178
827.88	17246
828.02	17132
828.159	17227
828.298	17307
828.437	17334
828.577	17200
828.716	17296
828.855	17353
828.994	17041
829.134	17010
829.273	16999
829.412	16885
829.551	16915
829.69	17041
829.829	17048
829.968	17086
830.107	16927
830.246	16961
830.385	16968
830.524	17029
830.663	16843
830.802	16725
830.941	16512
831.08	16504
831.219	16725
831.357	16683
831.496	16839
831.635	16519
831.774	16565
831.913	16584
832.051	16424
832.19	16413
832.329	16447
832.467	16432
832.606	16238
832.744	16310
832.883	16299
833.022	16234
833.16	16405
833.299	16379
833.437	16306
833.576	16318
833.714	16348
833.852	16352
833.991	16443
834.129	16318
834.267	16424
834.406	16390
834.544	16409
834.682	16447
834.821	16348
834.959	16577
835.097	16363
835.235	16504
835.373	16306
835.511	16310
835.65	16367
835.788	16325
835.926	16158
836.064	16078
836.202	16166
836.34	16329
836.478	16390
836.615	16253
836.753	16295
836.891	16402
837.029	16272
837.167	16177
837.305	16185
837.443	16200
837.58	16166
837.718	16257
837.856	16143
837.993	16067
838.131	16055
838.269	16025
838.406	15979
838.544	16006
838.681	15854
838.819	15918
838.956	15770
839.094	15766
839.231	15682
839.369	15899
839.506	16188
839.643	15953
839.781	15724
839.918	15663
840.055	15686
840.193	15698
840.33	15701
840.467	15800
840.604	15759
840.742	16029
840.879	15572
841.016	15671
841.153	15511
841.29	15800
841.427	15732
841.564	15739
841.701	15789
841.838	15701
841.975	15576
842.112	15644
842.249	15557
842.385	15553
842.522	15637
842.659	15450
842.796	15492
842.933	15435
843.069	15526
843.206	15507
843.343	15618
843.479	15519
843.616	15500
843.752	15321
843.889	15336
844.025	15389
844.162	15321
844.298	15321
844.435	15443
844.571	15268
844.708	15348
844.844	15386
844.98	15378
845.117	15264
845.253	15325
845.389	15188
845.525	15176
845.661	15066
845.798	15074
845.934	15051
846.07	15074
846.206	15108
846.342	15233
846.478	15085
846.614	14895
846.75	14868
846.886	14861
847.022	15020
847.158	14918
847.294	14887
847.429	14948
847.565	14815
847.701	15176
847.837	14621
847.972	14590
848.108	14613
848.244	14644
848.379	14556
848.515	14450
848.65	14362
848.786	14537
848.921	14469
849.057	14678
849.192	14518
849.328	14431
849.463	14568
849.598	14507
849.734	14400
849.869	14256
850.004	14259
850.14	14294
850.275	14317
850.41	14187
850.545	14119
850.68	14183
850.815	14427
850.95	14229
851.085	14412
851.22	14400
851.355	14206
851.49	14202
851.625	14183
851.76	14161
851.895	14100
852.03	14187
852.165	14202
852.299	14240
852.434	14366
852.569	14180
852.703	14180
852.838	14366
852.973	14442
853.107	14427
853.242	14244
853.376	14073
853.511	14016
853.645	14077
853.78	14275
853.914	14142
854.048	14130
854.183	14126
854.317	14168
854.451	14282
854.585	14096
854.72	14096
854.854	14210
854.988	14062
855.122	14073
855.256	13868
855.39	14069
855.524	14157
855.658	14180
855.792	14081
855.926	14145
856.06	14103
856.194	14123
856.327	14111
856.461	14001
856.595	14065
856.729	14016
856.862	14248
856.996	14153
857.13	14161
857.263	14267
857.397	14259
857.53	14081
857.664	14202
857.797	14149
857.931	14210
858.064	14107
858.197	14164
858.331	14092
858.464	14107
858.597	13974
858.731	14126
858.864	14176
858.997	14100
859.13	14138
859.263	14240
859.396	14168
859.529	14092
859.662	14161
859.795	14069
859.928	14199
860.061	14153
860.194	14286
860.327	14161
860.46	14096
860.592	14130
860.725	14210
860.858	14256
860.99	14168
861.123	14073
861.256	14016
861.388	14073
861.521	14891
861.653	13967
861.786	13974
861.918	14020
862.05	13970
862.183	14001
862.315	14050
862.447	14103
862.58	14043
862.712	13909
862.844	13780
862.976	14020
863.108	13944
863.24	14301
863.372	13883
863.504	13947
863.636	13864
863.768	13928
863.9	13856
864.032	13769
864.164	13856
864.296	13913
864.428	13917
864.559	14073
864.691	13997
864.823	13932
864.954	13967
865.086	13936
865.217	13894
865.349	13833
865.48	13913
865.612	13887
865.743	14050
865.875	13898
866.006	13890
866.137	13940
866.269	13879
866.4	13879
866.531	13932
866.662	13788
866.793	13818
866.924	13811
867.055	13849
867.186	13890
867.317	13837
867.448	13875
867.579	13807
867.71	13780
867.841	13761
867.972	13913
868.103	13902
868.233	13997
868.364	13852
868.495	13947
868.625	14115
868.756	14183
868.886	14050
869.017	14058
869.147	14218
869.278	14142
869.408	14286
869.539	14073
869.669	14069
869.799	14145
869.929	14218
870.06	14210
870.19	14442
870.32	14347
870.45	14473
870.58	14461
870.71	14617
870.84	14575
870.97	14693
871.1	14564
871.23	14697
871.36	14689
871.489	14636
871.619	14678
871.749	14746
871.879	14781
872.008	14868
872.138	14724
872.267	14678
872.397	14682
872.526	14526
872.656	14492
872.785	14621
872.915	14746
873.044	14830
873.173	14758
873.303	14838
873.432	14861
873.561	14868
873.69	14720
873.819	14834
873.948	14804
874.077	14750
874.206	14712
874.335	14838
874.464	14979
874.593	15051
874.722	14994
874.851	15093
874.979	15119
875.108	15184
875.237	15036
875.365	15043
875.494	15093
875.623	15123
875.751	15123
875.88	15188
876.008	15226
876.136	15275
876.265	15485
876.393	15675
876.521	15557
876.65	15629
876.778	15584
876.906	15500
877.034	15428
877.162	15530
877.29	15466
877.418	15534
877.546	15591
877.674	15507
877.802	15481
877.93	15530
878.058	15557
878.185	15458
878.313	15477
878.441	15439
878.568	15389
878.696	15393
878.824	15504
878.951	15595
879.079	15759
879.206	15827
879.333	15766
879.461	15595
879.588	15587
879.715	15732
879.842	15732
879.97	15553
880.097	15378
880.224	15370
880.351	15439
880.478	15439
880.605	15310
880.732	15370
880.859	15534
880.986	15412
881.112	15458
881.239	15344
881.366	15123
881.493	15161
881.619	15062
881.746	15104
881.872	14963
881.999	14994
882.125	14979
882.252	15127
882.378	15047
882.505	15279
882.631	15047
882.757	14800
882.883	14857
883.01	14895
883.136	14788
883.262	14670
883.388	14678
883.514	14876
883.64	14944
883.766	14731
883.892	14625
884.018	14632
884.143	14887
884.269	14948
884.395	14568
884.52	14602
884.646	14537
884.772	14503
884.897	14469
885.023	14659
885.148	14655
885.274	14632
885.399	14606
885.524	14575
885.65	14579
885.775	14610
885.9	14492
886.025	14682
886.15	14754
886.275	14571
886.4	14484
886.525	14473
886.65	14579
886.775	14465
886.9	14613
887.025	14823
887.149	14560
887.274	14431
887.399	14320
887.523	14385
887.648	14244
887.773	14370
887.897	14492
888.021	14446
888.146	14415
888.27	14545
888.395	14442
888.519	14465
888.643	14492
888.767	14480
888.891	14393
889.015	14176
889.139	14286
889.263	14172
889.387	14389
889.511	14355
889.635	14400
889.759	14393
889.883	14278
890.006	14355
890.13	14374
890.254	14172
890.377	14229
890.501	14077
890.624	14050
890.748	14092
890.871	13970
890.995	14005
891.118	13902
891.241	13974
891.364	14039
891.488	14035
891.611	14100
891.734	13925
891.857	13955
891.98	13989
892.103	14058
892.226	13913
892.349	13944
892.471	13841
892.594	13875
892.717	14035
892.839	13902
892.962	13963
893.085	14088
893.207	13951
893.33	13860
893.452	13860
893.575	13997
893.697	13951
893.819	14168
893.941	14107
894.064	14142
894.186	13944
894.308	13940
894.43	14103
894.552	14191
894.674	14176
894.796	14001
894.918	13959
895.04	13944
895.161	14172
895.283	14058
895.405	14103
895.526	14062
895.648	14126
895.769	14123
895.891	14096
896.012	14138
896.134	14062
896.255	14073
896.376	14187
896.498	14111
896.619	14115
896.74	14111
896.861	14172
896.982	14522
897.103	14495
897.224	14355
897.345	14393
897.466	14286
897.587	14488
897.708	14575
897.828	14431
897.949	14343
898.07	14317
898.19	14396
898.311	14568
898.431	14351
898.552	14473
898.672	14590
898.792	14541
898.913	14511
899.033	14446
899.153	14347
899.273	14229
899.393	14294
899.513	14317
899.633	14328
899.753	14328
899.873	14187
899.993	14412
900.113	14282
900.232	14381
900.352	14377
900.472	14267
900.591	14267
900.711	14267
900.83	14180
900.95	14267
901.069	14393
901.189	14077
901.308	13898
901.427	13849
901.546	13811
901.665	13837
901.784	13879
901.904	13761
902.023	13769
902.141	13521
902.26	13445
902.379	13460
902.498	13483
902.617	13396
902.735	13419
902.854	13407
902.973	13278
903.091	13198
903.21	13110
903.328	13266
903.446	13088
903.565	12993
903.683	13088
903.801	12920
903.919	13031
904.038	13076
904.156	12863
904.274	12913
904.392	12894
904.51	12681
904.627	12745
904.745	12905
904.863	12856
904.981	12719
905.098	12536
905.216	12578
905.334	12627
905.451	12544
905.569	12555
905.686	12620
905.803	12464
905.921	12304
906.038	12422
906.155	12338
906.272	12296
906.389	12197
906.506	12148
906.623	12152
906.74	12083
906.857	11961
906.974	11950
907.091	12152
907.208	12270
907.324	12216
907.441	12057
907.557	11977
907.674	11836
907.79	11908
907.907	11882
908.023	11923
908.139	11824
908.256	11824
908.372	11737
908.488	11817
908.604	11688
908.72	11634
908.836	11691
908.952	11634
909.068	11672
909.184	11745
909.3	11604
909.415	11714
909.531	11726
909.647	11471
909.762	11455
909.878	11406
909.993	11417
910.108	11387
910.224	11448
910.339	11356
910.454	11284
910.57	11239
910.685	11159
910.8	11524
910.915	11417
911.03	11311
911.145	11102
911.259	11086
911.374	11094
911.489	11064
911.604	11086
911.718	10831
911.833	10801
911.947	10755
912.062	10710
912.176	10866
912.291	10847
912.405	10968
912.519	11067
912.633	11174
912.748	10980
912.862	10946
912.976	10816
913.09	10668
913.204	10721
913.318	10812
913.431	10828
913.545	10843
913.659	10900
913.772	10748
913.886	10698
914	10645
914.113	10782
914.226	10809
914.34	10736
914.453	10523
914.566	10710
914.68	10645
914.793	10542
914.906	10352
915.019	10325
915.132	10272
915.245	10325
915.358	10394
915.47	10398
915.583	10421
915.696	10451
915.809	10603
915.921	10535
916.034	10417
916.146	10417
916.259	10303
916.371	10417
916.483	10344
916.595	10337
916.708	10363
916.82	10371
916.932	10272
917.044	10337
917.156	10246
917.268	10185
917.38	10310
917.491	10177
917.603	10204
917.715	10333
917.826	10375
917.938	10257
918.049	10067
918.161	10158
918.272	10382
918.384	10379
918.495	10227
918.606	10128
918.717	10071
918.828	10143
918.939	10086
919.05	10051
919.161	10071
919.272	9960
919.383	9960
919.494	10181
919.604	10291
919.715	10120
919.826	9983
919.936	10101
920.047	10238
920.157	10097
920.267	10352
920.378	10173
920.488	10105
920.598	10268
920.708	10428
920.818	10341
920.928	10386
921.038	10508
921.148	10481
921.258	10143
921.368	10071
921.477	9979
921.587	10063
921.697	9800
921.806	10074
921.916	9876
922.025	9778
922.134	9759
922.244	9736
922.353	9762
922.462	9603
922.571	9561
922.68	9458
922.789	9458
922.898	9431
923.007	9317
923.116	9378
923.224	9382
923.333	9336
923.442	9230
923.55	9264
923.659	9294
923.767	9340
923.876	9203
923.984	9294
924.092	9211
924.201	9150
924.309	9253
924.417	9237
924.525	9211
924.633	9199
924.741	9987
924.849	9070
924.956	9138
925.064	9009
925.172	8975
925.279	9009
925.387	9070
925.494	9017
925.602	9138
925.709	9047
925.816	8941
925.924	9001
926.031	9097
926.138	9127
926.245	9055
926.352	8960
926.459	9097
926.566	9116
926.673	9039
926.779	8872
926.886	8906
926.993	8750
927.099	8819
927.206	8724
927.312	8674
927.419	8769
927.525	8769
927.631	8834
927.737	8750
927.843	8651
927.95	8568
928.056	8610
928.162	8712
928.267	8689
928.373	9367
928.479	8697
928.585	8533
928.69	8750
928.796	8686
928.901	8526
929.007	8457
929.112	8537
929.218	8533
929.323	8480
929.428	8415
929.533	8636
929.638	8465
929.743	8442
929.848	8473
929.953	8476
930.058	8358
930.163	8176
930.267	8237
930.372	8381
930.477	8191
930.581	8438
930.685	8324
930.79	8126
930.894	8301
930.998	8202
931.103	8313
931.207	8024
931.311	8012
931.415	7875
931.519	7780
931.623	7685
