Data from test_V78500241_1729.txt Node
Date: Fri Mar 25 14:45:45 CST 2022
User: usil
Spectrometer: V785-0024
Trigger mode: 0
Integration Time (sec): 4.000000E-1
Scans to average: 1
Nonlinearity correction enabled: false
Boxcar width: 0
Storing dark spectrum: false
XAxis mode: Wavelengths
Number of Pixels in Spectrum: 1024
>>>>>Begin Spectral Data<<<<<
801.071	22310
801.214	22070
801.356	21911
801.499	21759
801.641	21576
801.783	21618
801.926	21652
802.068	21481
802.211	21538
802.353	21344
802.496	21199
802.638	21131
802.78	21055
802.923	20990
803.065	21017
803.208	20929
803.35	20933
803.492	21100
803.635	21066
803.777	20967
803.919	20994
804.061	21218
804.204	20937
804.346	20857
804.488	20826
804.63	20883
804.773	20777
804.915	20910
805.057	21013
805.199	20868
805.341	21009
805.483	21036
805.626	20937
805.768	20838
805.91	20925
806.052	20933
806.194	20883
806.336	21043
806.478	20864
806.62	20731
806.762	21013
806.904	20986
807.046	21317
807.188	21252
807.33	21135
807.472	21188
807.614	21085
807.756	21214
807.898	20979
808.04	20872
808.182	20979
808.324	20906
808.465	21138
808.607	21188
808.749	21272
808.891	21332
809.033	21481
809.174	21317
809.316	21256
809.458	21272
809.6	21207
809.741	21363
809.883	21176
810.025	21485
810.166	21447
810.308	21355
810.45	21450
810.591	21313
810.733	21249
810.875	21108
811.016	20982
811.158	20815
811.299	21081
811.441	21096
811.582	21142
811.724	21093
811.865	21024
812.007	20963
812.148	21001
812.29	21070
812.431	21192
812.573	21363
812.714	21458
812.855	21488
812.997	21534
813.138	21728
813.279	21694
813.421	21412
813.562	21473
813.703	21370
813.845	21214
813.986	20975
814.127	20777
814.268	20655
814.41	20533
814.551	20533
814.692	20533
814.833	20446
814.974	20473
815.115	20598
815.256	20442
815.397	20389
815.539	20358
815.68	20282
815.821	20202
815.962	20225
816.103	20305
816.244	20180
816.385	20043
816.526	20126
816.666	19841
816.807	19890
816.948	19780
817.089	19803
817.23	19738
817.371	19769
817.512	19609
817.653	19757
817.793	19753
817.934	19715
818.075	19772
818.216	19674
818.356	19727
818.497	19460
818.638	19472
818.778	19434
818.919	19377
819.06	19445
819.2	19540
819.341	19578
819.481	19590
819.622	19685
819.762	19833
819.903	19856
820.043	19776
820.184	19712
820.324	19677
820.465	19639
820.605	19731
820.746	19715
820.886	19544
821.026	19594
821.167	19643
821.307	19772
821.447	19586
821.588	19495
821.728	19453
821.868	19289
822.008	19088
822.149	19053
822.289	19076
822.429	18875
822.569	18783
822.709	18757
822.849	18589
822.99	18597
823.13	18502
823.27	18566
823.41	18391
823.55	18270
823.69	18464
823.83	18437
823.97	18346
824.11	18216
824.25	18098
824.389	18095
824.529	18159
824.669	18083
824.809	18308
824.949	18281
825.089	18159
825.228	18178
825.368	17973
825.508	18038
825.648	18011
825.787	18060
825.927	17961
826.067	17908
826.206	17794
826.346	17939
826.485	17950
826.625	18007
826.765	18148
826.904	17961
827.044	17760
827.183	17680
827.323	17585
827.462	17657
827.601	17596
827.741	17558
827.88	17691
828.02	17417
828.159	17646
828.298	17596
828.437	17703
828.577	17646
828.716	17691
828.855	17497
828.994	17364
829.134	17349
829.273	17547
829.412	17353
829.551	17368
829.69	17322
829.829	17414
829.968	17421
830.107	17482
830.246	17391
830.385	17330
830.524	17250
830.663	17174
830.802	17170
830.941	17003
831.08	16961
831.219	17083
831.357	16999
831.496	17178
831.635	16877
831.774	16881
831.913	16820
832.051	16748
832.19	16721
832.329	16790
832.467	16729
832.606	16691
832.744	16683
832.883	16736
833.022	16649
833.16	16778
833.299	16649
833.437	16645
833.576	16721
833.714	16793
833.852	16672
833.991	16744
834.129	16839
834.267	16759
834.406	16607
834.544	16767
834.682	16683
834.821	16710
834.959	16771
835.097	16683
835.235	16862
835.373	16668
835.511	16763
835.65	16710
835.788	16710
835.926	16493
836.064	16440
836.202	16588
836.34	16653
836.478	16679
836.615	16626
836.753	16622
836.891	16801
837.029	16653
837.167	16558
837.305	16618
837.443	16402
837.58	16584
837.718	16485
837.856	16554
837.993	16432
838.131	16481
838.269	16424
838.406	16432
838.544	16344
838.681	16090
838.819	16246
838.956	16017
839.094	16131
839.231	16124
839.369	16261
839.506	16386
839.643	16291
839.781	16051
839.918	15949
840.055	16090
840.193	15922
840.33	16002
840.467	15945
840.604	15991
840.742	16284
840.879	15991
841.016	15953
841.153	15979
841.29	16105
841.427	16048
841.564	16071
841.701	16124
841.838	16051
841.975	15922
842.112	15838
842.249	15911
842.385	15755
842.522	15960
842.659	15861
842.796	15774
842.933	15873
843.069	15762
843.206	15781
843.343	15823
843.479	15762
843.616	15789
843.752	15629
843.889	15633
844.025	15846
844.162	15644
844.298	15762
844.435	15580
844.571	15542
844.708	15698
844.844	15842
844.98	15743
845.117	15686
845.253	15610
845.389	15473
845.525	15599
845.661	15587
845.798	15485
845.934	15542
846.07	15359
846.206	15587
846.342	15526
846.478	15428
846.614	15214
846.75	15188
846.886	15184
847.022	15298
847.158	15214
847.294	15199
847.429	15294
847.565	15203
847.701	15447
847.837	14948
847.972	14864
848.108	14952
848.244	14944
848.379	14857
848.515	14655
848.65	14781
848.786	14769
848.921	14720
849.057	14895
849.192	14849
849.328	14819
849.463	14754
849.598	14845
849.734	14610
849.869	14655
850.004	14564
850.14	14659
850.275	14568
850.41	14480
850.545	14518
850.68	14545
850.815	14507
850.95	14518
851.085	14781
851.22	14682
851.355	14533
851.49	14480
851.625	14473
851.76	14526
851.895	14480
852.03	14381
852.165	14469
852.299	14533
852.434	14602
852.569	14583
852.703	14492
852.838	14667
852.973	14705
853.107	14720
853.242	14522
853.376	14507
853.511	14271
853.645	14419
853.78	14480
853.914	14427
854.048	14465
854.183	14415
854.317	14454
854.451	14541
854.585	14404
854.72	14313
854.854	14537
854.988	14301
855.122	14355
855.256	14267
855.39	14374
855.524	14522
855.658	14454
855.792	14415
855.926	14454
856.06	14469
856.194	14503
856.327	14427
856.461	14328
856.595	14343
856.729	14408
856.862	14511
856.996	14461
857.13	14492
857.263	14495
857.397	14507
857.53	14393
857.664	14431
857.797	14530
857.931	14541
858.064	14404
858.197	14457
858.331	14431
858.464	14469
858.597	14324
858.731	14473
858.864	14393
858.997	14450
859.13	14351
859.263	14484
859.396	14431
859.529	14412
859.662	14385
859.795	14461
859.928	14473
860.061	14518
860.194	14640
860.327	14514
860.46	14454
860.592	14518
860.725	14655
860.858	14568
860.99	14328
861.123	14366
861.256	14298
861.388	14537
861.521	15028
861.653	14332
861.786	14275
861.918	14202
862.05	14278
862.183	14366
862.315	14480
862.447	14423
862.58	14343
862.712	14149
862.844	14081
862.976	14294
863.108	14267
863.24	14552
863.372	14107
863.504	14275
863.636	14183
863.768	14206
863.9	14084
864.032	14259
864.164	14164
864.296	14282
864.428	14317
864.559	14358
864.691	14301
864.823	14244
864.954	14298
865.086	14282
865.217	14183
865.349	14115
865.48	14145
865.612	14195
865.743	14305
865.875	14256
866.006	14153
866.137	14305
866.269	14252
866.4	14202
866.531	14130
866.662	14187
866.793	14073
866.924	14157
867.055	14164
867.186	14180
867.317	14183
867.448	14039
867.579	14123
867.71	14149
867.841	14016
867.972	14164
868.103	14081
868.233	14126
868.364	14195
868.495	14145
868.625	14499
868.756	14537
868.886	14450
869.017	14495
869.147	14533
869.278	14602
869.408	14457
869.539	14465
869.669	14465
869.799	14461
869.929	14610
870.06	14503
870.19	14788
870.32	14682
870.45	14727
870.58	14952
870.71	14986
870.84	14899
870.97	14819
871.1	14834
871.23	14986
871.36	14956
871.489	14883
871.619	15039
871.749	14998
871.879	15100
872.008	15100
872.138	14982
872.267	14979
872.397	14811
872.526	14746
872.656	14883
872.785	14823
872.915	15089
873.044	15127
873.173	15028
873.303	15100
873.432	15119
873.561	15131
873.69	15043
873.819	15024
873.948	15226
874.077	15150
874.206	15150
874.335	15062
874.464	15199
874.593	15351
874.722	15363
874.851	15374
874.979	15416
875.108	15443
875.237	15374
875.365	15313
875.494	15420
875.623	15530
875.751	15405
875.88	15519
876.008	15614
876.136	15656
876.265	15701
876.393	15907
876.521	15911
876.65	15816
876.778	15812
876.906	15698
877.034	15717
877.162	15766
877.29	15614
877.418	15819
877.546	15873
877.674	15831
877.802	15857
877.93	15778
878.058	15717
878.185	15629
878.313	15827
878.441	15751
878.568	15652
878.696	15709
878.824	15831
878.951	15865
879.079	16021
879.206	16131
879.333	15911
879.461	15759
879.588	15975
879.715	15953
879.842	16090
879.97	15880
880.097	15591
880.224	15614
880.351	15686
880.478	15633
880.605	15667
880.732	15675
880.859	15861
880.986	15644
881.112	15660
881.239	15564
881.366	15370
881.493	15291
881.619	15294
881.746	15249
881.872	15249
881.999	15249
882.125	15283
882.252	15370
882.378	15321
882.505	15584
882.631	15298
882.757	15154
882.883	15264
883.01	15112
883.136	15104
883.262	14895
883.388	14887
883.514	15161
883.64	15195
883.766	15077
883.892	14929
884.018	14982
884.143	15066
884.269	15176
884.395	15036
884.52	14807
884.646	14876
884.772	14853
884.897	14648
885.023	14773
885.148	14933
885.274	15051
885.399	14933
885.524	14925
885.65	14899
885.775	14937
885.9	14834
886.025	14849
886.15	14941
886.275	14773
886.4	14834
886.525	14800
886.65	14842
886.775	14796
886.9	14895
887.025	15066
887.149	14906
887.274	14636
887.399	14670
887.523	14522
887.648	14457
887.773	14537
887.897	14762
888.021	14765
888.146	14610
888.27	14785
888.395	14857
888.519	14746
888.643	14712
888.767	14739
888.891	14640
889.015	14511
889.139	14484
889.263	14427
889.387	14621
889.511	14621
889.635	14617
889.759	14545
889.883	14492
890.006	14590
890.13	14655
890.254	14495
890.377	14476
890.501	14366
890.624	14313
890.748	14381
890.871	14271
890.995	14199
891.118	14126
891.241	14225
891.364	14320
891.488	14339
891.611	14298
891.734	14153
891.857	14317
891.98	14233
892.103	14237
892.226	14263
892.349	14259
892.471	14092
892.594	14164
892.717	14168
892.839	14191
892.962	14161
893.085	14202
893.207	14240
893.33	14138
893.452	14138
893.575	14324
893.697	14161
893.819	14317
893.941	14461
894.064	14324
894.186	14130
894.308	14142
894.43	14427
894.552	14438
894.674	14278
894.796	14210
894.918	14248
895.04	14252
895.161	14324
895.283	14218
895.405	14244
895.526	14343
895.648	14328
895.769	14328
895.891	14347
896.012	14423
896.134	14377
896.255	14415
896.376	14400
896.498	14374
896.619	14431
896.74	14324
896.861	14419
896.982	14731
897.103	14853
897.224	14651
897.345	14530
897.466	14541
897.587	14663
897.708	14796
897.828	14735
897.949	14549
898.07	14583
898.19	14682
898.311	14807
898.431	14674
898.552	14750
898.672	14739
898.792	14891
898.913	14727
899.033	14697
899.153	14602
899.273	14533
899.393	14488
899.513	14659
899.633	14636
899.753	14610
899.873	14533
899.993	14636
900.113	14587
900.232	14739
900.352	14571
900.472	14495
900.591	14320
900.711	14495
900.83	14465
900.95	14556
901.069	14457
901.189	14393
901.308	14126
901.427	14126
901.546	14199
901.665	14149
901.784	14161
901.904	14050
902.023	13925
902.141	13715
902.26	13666
902.379	13803
902.498	13670
902.617	13670
902.735	13761
902.854	13727
902.973	13582
903.091	13384
903.21	13377
903.328	13445
903.446	13396
903.565	13266
903.683	13240
903.801	13156
903.919	13263
904.038	13217
904.156	13076
904.274	13129
904.392	13038
904.51	13050
904.627	13012
904.745	13118
904.863	13168
904.981	12776
905.098	12760
905.216	12730
905.334	12741
905.451	12772
905.569	12779
905.686	12802
905.803	12764
905.921	12589
906.038	12654
906.155	12623
906.272	12525
906.389	12490
906.506	12327
906.623	12361
906.74	12388
906.857	12205
906.974	12235
907.091	12365
907.208	12410
907.324	12296
907.441	12273
907.557	12197
907.674	12053
907.79	12057
907.907	12011
908.023	12060
908.139	12083
908.256	12041
908.372	12045
908.488	11977
908.604	11859
908.72	11821
908.836	11855
908.952	11813
909.068	11870
909.184	11961
909.3	11870
909.415	11958
909.531	11878
909.647	11672
909.762	11642
909.878	11653
909.993	11653
910.108	11589
910.224	11566
910.339	11585
910.454	11592
910.57	11372
910.685	11387
910.8	11699
910.915	11668
911.03	11581
911.145	11299
911.259	11231
911.374	11299
911.489	11254
911.604	11223
911.718	11090
911.833	11086
911.947	11048
912.062	10869
912.176	11109
912.291	11117
912.405	11056
912.519	11246
912.633	11254
912.748	11113
912.862	11029
912.976	10938
913.09	10866
913.204	10881
913.318	11025
913.431	11045
913.545	11048
913.659	11060
913.772	10999
913.886	10938
914	10873
914.113	10930
914.226	10976
914.34	10965
914.453	10778
914.566	10877
914.68	10778
914.793	10774
914.906	10588
915.019	10573
915.132	10535
915.245	10588
915.358	10584
915.47	10573
915.583	10615
915.696	10573
915.809	10649
915.921	10694
916.034	10554
916.146	10516
916.259	10618
916.371	10592
916.483	10599
916.595	10466
916.708	10493
916.82	10546
916.932	10519
917.044	10561
917.156	10554
917.268	10402
917.38	10413
917.491	10356
917.603	10421
917.715	10481
917.826	10474
917.938	10356
918.049	10333
918.161	10367
918.272	10519
918.384	10516
918.495	10413
918.606	10303
918.717	10204
918.828	10344
918.939	10207
919.05	10234
919.161	10329
919.272	10097
919.383	10166
919.494	10295
919.604	10523
919.715	10291
919.826	10192
919.936	10310
920.047	10371
920.157	10310
920.267	10481
920.378	10341
920.488	10291
920.598	10493
920.708	10653
920.818	10542
920.928	10531
921.038	10706
921.148	10546
921.258	10329
921.368	10234
921.477	10261
921.587	10112
921.697	10032
921.806	10265
921.916	10010
922.025	9876
922.134	9835
922.244	9781
922.353	9930
922.462	9759
922.571	9652
922.68	9564
922.789	9542
922.898	9545
923.007	9584
923.116	9576
923.224	9492
923.333	9545
923.442	9458
923.55	9378
923.659	9420
923.767	9507
923.876	9344
923.984	9492
924.092	9336
924.201	9405
924.309	9317
924.417	9386
924.525	9332
924.633	9420
924.741	10253
924.849	9123
924.956	9317
925.064	9169
925.172	9131
925.279	9142
925.387	9272
925.494	9176
925.602	9363
925.709	9291
925.816	9100
925.924	9195
926.031	9279
926.138	9199
926.245	9207
926.352	9142
926.459	9207
926.566	9203
926.673	9112
926.779	9001
926.886	9009
926.993	8956
927.099	8880
927.206	8868
927.312	8880
927.419	8918
927.525	8838
927.631	9020
927.737	8842
927.843	8796
927.95	8731
928.056	8823
928.162	8834
928.267	8868
928.373	9416
928.479	8853
928.585	8621
928.69	8785
928.796	8826
928.901	8674
929.007	8613
929.112	8686
929.218	8651
929.323	8583
929.428	8625
929.533	8682
929.638	8503
929.743	8644
929.848	8697
929.953	8610
930.058	8590
930.163	8332
930.267	8473
930.372	8530
930.477	8393
930.581	8655
930.685	8431
930.79	8294
930.894	8358
930.998	8320
931.103	8465
931.207	8149
931.311	8027
931.415	8016
931.519	7852
931.623	7769
