Data from test_V78500241_3461.txt Node
Date: Fri Mar 25 14:57:48 CST 2022
User: usil
Spectrometer: V785-0024
Trigger mode: 0
Integration Time (sec): 4.000000E-1
Scans to average: 1
Nonlinearity correction enabled: false
Boxcar width: 0
Storing dark spectrum: false
XAxis mode: Wavelengths
Number of Pixels in Spectrum: 1024
>>>>>Begin Spectral Data<<<<<
801.071	21892
801.214	21720
801.356	21572
801.499	21397
801.641	21287
801.783	21306
801.926	21214
802.068	21131
802.211	21176
802.353	21013
802.496	20807
802.638	20807
802.78	20838
802.923	20678
803.065	20526
803.208	20560
803.35	20583
803.492	20811
803.635	20735
803.777	20590
803.919	20754
804.061	20876
804.204	20670
804.346	20537
804.488	20549
804.63	20583
804.773	20457
804.915	20533
805.057	20629
805.199	20533
805.341	20476
805.483	20731
805.626	20549
805.768	20549
805.91	20507
806.052	20476
806.194	20408
806.336	20674
806.478	20549
806.62	20457
806.762	20514
806.904	20720
807.046	20834
807.188	20800
807.33	20781
807.472	20963
807.614	20800
807.756	20724
807.898	20549
808.04	20583
808.182	20549
808.324	20533
808.465	20609
808.607	20701
808.749	20777
808.891	20960
809.033	21089
809.174	20906
809.316	20849
809.458	20864
809.6	20769
809.741	20868
809.883	20975
810.025	21077
810.166	20941
810.308	21001
810.45	20948
810.591	20815
810.733	20701
810.875	20678
811.016	20598
811.158	20530
811.299	20739
811.441	20739
811.582	20746
811.724	20636
811.865	20590
812.007	20663
812.148	20556
812.29	20682
812.431	20720
812.573	20963
812.714	20998
812.855	21135
812.997	21245
813.138	21424
813.279	21241
813.421	21108
813.562	21043
813.703	20868
813.845	20678
813.986	20518
814.127	20385
814.268	20180
814.41	20218
814.551	20168
814.692	20282
814.833	20069
814.974	20157
815.115	20122
815.256	19974
815.397	20077
815.539	19997
815.68	19887
815.821	19818
815.962	19921
816.103	19940
816.244	19845
816.385	19700
816.526	19521
816.666	19491
816.807	19316
816.948	19369
817.089	19403
817.23	19396
817.371	19312
817.512	19312
817.653	19263
817.793	19175
817.934	19236
818.075	19320
818.216	19247
818.356	19278
818.497	19046
818.638	19019
818.778	18958
818.919	18993
819.06	19069
819.2	19095
819.341	19190
819.481	19202
819.622	19331
819.762	19403
819.903	19419
820.043	19400
820.184	19346
820.324	19259
820.465	19358
820.605	19228
820.746	19308
820.886	19069
821.026	19282
821.167	19202
821.307	19228
821.447	19213
821.588	19179
821.728	18924
821.868	18859
822.008	18692
822.149	18711
822.289	18696
822.429	18456
822.569	18296
822.709	18384
822.849	18224
822.99	18178
823.13	18201
823.27	18091
823.41	17923
823.55	18007
823.69	17950
823.83	18079
823.97	17904
824.11	17718
824.25	17805
824.389	17756
824.529	17931
824.669	17756
824.809	17923
824.949	17687
825.089	17771
825.228	17718
825.368	17585
825.508	17585
825.648	17604
825.787	17619
825.927	17630
826.067	17520
826.206	17433
826.346	17490
826.485	17520
826.625	17482
826.765	17562
826.904	17585
827.044	17372
827.183	17303
827.323	17181
827.462	17220
827.601	17227
827.741	17254
827.88	17170
828.02	17006
828.159	17166
828.298	17166
828.437	17322
828.577	17094
828.716	17368
828.855	17147
828.994	16930
829.134	16938
829.273	16919
829.412	16938
829.551	16892
829.69	16930
829.829	17117
829.968	17151
830.107	16976
830.246	16987
830.385	16828
830.524	16923
830.663	16793
830.802	16717
830.941	16603
831.08	16626
831.219	16710
831.357	16713
831.496	16824
831.635	16596
831.774	16561
831.913	16592
832.051	16409
832.19	16318
832.329	16424
832.467	16265
832.606	16249
832.744	16344
832.883	16306
833.022	16329
833.16	16318
833.299	16280
833.437	16409
833.576	16432
833.714	16424
833.852	16432
833.991	16329
834.129	16440
834.267	16329
834.406	16451
834.544	16447
834.682	16386
834.821	16371
834.959	16489
835.097	16253
835.235	16447
835.373	16432
835.511	16413
835.65	16257
835.788	16249
835.926	16116
836.064	16093
836.202	16063
836.34	16299
836.478	16325
836.615	16181
836.753	16344
836.891	16409
837.029	16386
837.167	16276
837.305	16128
837.443	16154
837.58	16188
837.718	16223
837.856	16128
837.993	16006
838.131	16116
838.269	16074
838.406	16181
838.544	16010
838.681	15747
838.819	15842
838.956	15671
839.094	15717
839.231	15774
839.369	15793
839.506	16082
839.643	15937
839.781	15720
839.918	15709
840.055	15789
840.193	15705
840.33	15739
840.467	15736
840.604	15732
840.742	16040
840.879	15603
841.016	15663
841.153	15705
841.29	15854
841.427	15724
841.564	15717
841.701	15644
841.838	15728
841.975	15629
842.112	15637
842.249	15534
842.385	15515
842.522	15724
842.659	15496
842.796	15545
842.933	15534
843.069	15530
843.206	15450
843.343	15561
843.479	15504
843.616	15481
843.752	15348
843.889	15302
844.025	15412
844.162	15214
844.298	15466
844.435	15302
844.571	15325
844.708	15405
844.844	15447
844.98	15515
845.117	15382
845.253	15192
845.389	15131
845.525	15226
845.661	15180
845.798	15100
845.934	15154
846.07	15093
846.206	15131
846.342	15245
846.478	15074
846.614	14956
846.75	14883
846.886	14883
847.022	14990
847.158	14830
847.294	14975
847.429	14979
847.565	14895
847.701	15138
847.837	14590
847.972	14640
848.108	14720
848.244	14682
848.379	14499
848.515	14514
848.65	14442
848.786	14469
848.921	14473
849.057	14621
849.192	14667
849.328	14530
849.463	14571
849.598	14473
849.734	14434
849.869	14408
850.004	14218
850.14	14282
850.275	14214
850.41	14233
850.545	14290
850.68	14240
850.815	14221
850.95	14214
851.085	14404
851.22	14282
851.355	14233
851.49	14088
851.625	14195
851.76	14229
851.895	14130
852.03	14134
852.165	14214
852.299	14183
852.434	14358
852.569	14168
852.703	14233
852.838	14377
852.973	14358
853.107	14393
853.242	14225
853.376	14119
853.511	13967
853.645	14008
853.78	14134
853.914	14084
854.048	14081
854.183	14005
854.317	14107
854.451	14408
854.585	14103
854.72	14100
854.854	14183
854.988	14027
855.122	14065
855.256	14024
855.39	14126
855.524	14134
855.658	14145
855.792	14115
855.926	14149
856.06	14138
856.194	14195
856.327	14103
856.461	14092
856.595	14161
856.729	14058
856.862	14225
856.996	14172
857.13	14115
857.263	14225
857.397	14275
857.53	14119
857.664	14202
857.797	14252
857.931	14214
858.064	14111
858.197	14282
858.331	14153
858.464	14123
858.597	14043
858.731	14130
858.864	14183
858.997	14092
859.13	14062
859.263	14202
859.396	14168
859.529	14123
859.662	14073
859.795	14126
859.928	14123
860.061	14294
860.194	14313
860.327	14187
860.46	14073
860.592	14214
860.725	14168
860.858	14168
860.99	14134
861.123	14031
861.256	14050
861.388	14138
861.521	14811
861.653	13967
861.786	13997
861.918	13970
862.05	14103
862.183	14073
862.315	14100
862.447	14126
862.58	14077
862.712	13986
862.844	13826
862.976	14016
863.108	14046
863.24	14294
863.372	13822
863.504	13917
863.636	13894
863.768	13951
863.9	13906
864.032	13742
864.164	13860
864.296	13940
864.428	13997
864.559	13856
864.691	13989
864.823	14024
864.954	13917
865.086	13951
865.217	13868
865.349	13826
865.48	13944
865.612	13883
865.743	14096
865.875	13921
866.006	13803
866.137	13875
866.269	13951
866.4	13845
866.531	13864
866.662	13788
866.793	13868
866.924	13841
867.055	13807
867.186	13883
867.317	13822
867.448	13856
867.579	13871
867.71	13871
867.841	13875
867.972	13921
868.103	13963
868.233	13894
868.364	13837
868.495	13879
868.625	14103
868.756	14168
868.886	14050
869.017	14119
869.147	14301
869.278	14240
869.408	14229
869.539	14183
869.669	14202
869.799	14259
869.929	14271
870.06	14328
870.19	14454
870.32	14389
870.45	14480
870.58	14549
870.71	14560
870.84	14556
870.97	14476
871.1	14560
871.23	14727
871.36	14765
871.489	14621
871.619	14670
871.749	14682
871.879	14800
872.008	14773
872.138	14731
872.267	14705
872.397	14590
872.526	14568
872.656	14484
872.785	14438
872.915	14754
873.044	14842
873.173	14731
873.303	14823
873.432	14788
873.561	14925
873.69	14815
873.819	14720
873.948	14929
874.077	14845
874.206	14781
874.335	14872
874.464	14948
874.593	15138
874.722	15043
874.851	15135
874.979	15135
875.108	15112
875.237	15017
875.365	14906
875.494	14963
875.623	15226
875.751	15074
875.88	15173
876.008	15192
876.136	15264
876.265	15511
876.393	15686
876.521	15610
876.65	15595
876.778	15462
876.906	15481
877.034	15488
877.162	15519
877.29	15477
877.418	15469
877.546	15515
877.674	15515
877.802	15466
877.93	15641
878.058	15405
878.185	15397
878.313	15572
878.441	15542
878.568	15260
878.696	15496
878.824	15473
878.951	15485
879.079	15610
879.206	15797
879.333	15648
879.461	15637
879.588	15648
879.715	15717
879.842	15819
879.97	15652
880.097	15374
880.224	15275
880.351	15294
880.478	15378
880.605	15332
880.732	15439
880.859	15644
880.986	15408
881.112	15412
881.239	15249
881.366	15169
881.493	15074
881.619	15005
881.746	15077
881.872	15051
881.999	15032
882.125	14887
882.252	15005
882.378	15077
882.505	15180
882.631	15051
882.757	14941
882.883	14834
883.01	14849
883.136	14834
883.262	14640
883.388	14769
883.514	14872
883.64	14895
883.766	14880
883.892	14697
884.018	14644
884.143	14864
884.269	14967
884.395	14640
884.52	14434
884.646	14568
884.772	14419
884.897	14442
885.023	14556
885.148	14663
885.274	14651
885.399	14663
885.524	14602
885.65	14594
885.775	14621
885.9	14556
886.025	14689
886.15	14640
886.275	14457
886.4	14571
886.525	14598
886.65	14465
886.775	14484
886.9	14708
887.025	14735
887.149	14625
887.274	14431
887.399	14404
887.523	14282
887.648	14286
887.773	14229
887.897	14419
888.021	14431
888.146	14305
888.27	14480
888.395	14514
888.519	14438
888.643	14454
888.767	14492
888.891	14374
889.015	14282
889.139	14240
889.263	14259
889.387	14355
889.511	14438
889.635	14381
889.759	14183
889.883	14176
890.006	14317
890.13	14332
890.254	14168
890.377	14183
890.501	14138
890.624	14065
890.748	14084
890.871	13967
890.995	13887
891.118	13906
891.241	13921
891.364	13909
891.488	14016
891.611	13982
891.734	13936
891.857	13917
891.98	13967
892.103	14058
892.226	13917
892.349	13879
892.471	13772
892.594	13955
892.717	13898
892.839	13928
892.962	13986
893.085	14020
893.207	14001
893.33	13909
893.452	13887
893.575	13982
893.697	13814
893.819	14221
893.941	14134
894.064	14107
894.186	13875
894.308	13887
894.43	14126
894.552	14240
894.674	14035
894.796	13887
894.918	14008
895.04	13997
895.161	14081
895.283	14016
895.405	14024
895.526	14062
895.648	14069
895.769	14119
895.891	14111
896.012	14183
896.134	14176
896.255	14111
896.376	14077
896.498	14126
896.619	14202
896.74	14119
896.861	14164
896.982	14499
897.103	14636
897.224	14404
897.345	14370
897.466	14282
897.587	14389
897.708	14564
897.828	14495
897.949	14454
898.07	14244
898.19	14370
898.311	14484
898.431	14495
898.552	14423
898.672	14560
898.792	14568
898.913	14522
899.033	14419
899.153	14404
899.273	14294
899.393	14301
899.513	14374
899.633	14339
899.753	14438
899.873	14355
899.993	14419
900.113	14339
900.232	14381
900.352	14362
900.472	14309
900.591	14142
900.711	14168
900.83	14149
900.95	14263
901.069	14343
901.189	14172
901.308	14039
901.427	13906
901.546	13898
901.665	13890
901.784	13932
901.904	13788
902.023	13636
902.141	13540
902.26	13415
902.379	13571
902.498	13491
902.617	13422
902.735	13457
902.854	13422
902.973	13403
903.091	13164
903.21	13095
903.328	13171
903.446	13084
903.565	13069
903.683	13053
903.801	12867
903.919	13057
904.038	13019
904.156	12863
904.274	12935
904.392	12897
904.51	12749
904.627	12825
904.745	12840
904.863	12875
904.981	12620
905.098	12544
905.216	12578
905.334	12540
905.451	12574
905.569	12460
905.686	12601
905.803	12525
905.921	12380
906.038	12452
906.155	12300
906.272	12224
906.389	12353
906.506	12178
906.623	12224
906.74	12186
906.857	12019
906.974	12038
907.091	12178
907.208	12270
907.324	12152
907.441	12068
907.557	11836
907.674	11916
907.79	11794
907.907	11908
908.023	11901
908.139	11866
908.256	11840
908.372	11764
908.488	11836
908.604	11661
908.72	11634
908.836	11623
908.952	11619
909.068	11615
909.184	11809
909.3	11657
909.415	11699
909.531	11764
909.647	11444
909.762	11474
909.878	11391
909.993	11467
910.108	11421
910.224	11360
910.339	11414
910.454	11334
910.57	11311
910.685	11246
910.8	11455
910.915	11478
911.03	11334
911.145	11143
911.259	11193
911.374	11098
911.489	11014
911.604	11041
911.718	10976
911.833	10938
911.947	10774
912.062	10664
912.176	10786
912.291	10847
912.405	10843
912.519	11010
912.633	11014
912.748	10968
912.862	10850
912.976	10793
913.09	10721
913.204	10733
913.318	10767
913.431	10889
913.545	10847
913.659	10854
913.772	10755
913.886	10660
914	10641
914.113	10717
914.226	10748
914.34	10755
914.453	10580
914.566	10710
914.68	10535
914.793	10634
914.906	10405
915.019	10367
915.132	10272
915.245	10337
915.358	10527
915.47	10394
915.583	10459
915.696	10421
915.809	10432
915.921	10573
916.034	10348
916.146	10413
916.259	10356
916.371	10375
916.483	10352
916.595	10344
916.708	10344
916.82	10398
916.932	10352
917.044	10363
917.156	10230
917.268	10188
917.38	10204
917.491	10162
917.603	10128
917.715	10246
917.826	10424
917.938	10200
918.049	10093
918.161	10310
918.272	10306
918.384	10322
918.495	10242
918.606	10169
918.717	10025
918.828	10048
918.939	10181
919.05	10036
919.161	10101
919.272	9953
919.383	9915
919.494	10219
919.604	10303
919.715	10131
919.826	9991
919.936	10078
920.047	10234
920.157	10162
920.267	10379
920.378	10177
920.488	10097
920.598	10337
920.708	10455
920.818	10363
920.928	10257
921.038	10500
921.148	10470
921.258	10120
921.368	10063
921.477	10017
921.587	9964
921.697	9937
921.806	10097
921.916	9899
922.025	9717
922.134	9641
922.244	9701
922.353	9705
922.462	9538
922.571	9572
922.68	9386
922.789	9348
922.898	9477
923.007	9405
923.116	9431
923.224	9325
923.333	9340
923.442	9237
923.55	9325
923.659	9268
923.767	9355
923.876	9279
923.984	9283
924.092	9222
924.201	9222
924.309	9241
924.417	9245
924.525	9272
924.633	9207
924.741	10162
924.849	9070
924.956	9146
925.064	9039
925.172	8876
925.279	9036
925.387	9039
925.494	9070
925.602	9192
925.709	9135
925.816	9020
925.924	9157
926.031	9097
926.138	9047
926.245	9085
926.352	8971
926.459	9062
926.566	9176
926.673	9039
926.779	8887
926.886	8967
926.993	8766
927.099	8773
927.206	8727
927.312	8739
927.419	8807
927.525	8796
927.631	8849
927.737	8640
927.843	8606
927.95	8473
928.056	8587
928.162	8678
928.267	8720
928.373	9340
928.479	8659
928.585	8533
928.69	8644
928.796	8766
928.901	8488
929.007	8461
929.112	8552
929.218	8564
929.323	8480
929.428	8408
929.533	8598
929.638	8412
929.743	8446
929.848	8522
929.953	8434
930.058	8427
930.163	8267
930.267	8263
930.372	8351
930.477	8366
930.581	8526
930.685	8347
930.79	8103
930.894	8240
930.998	8161
931.103	8305
931.207	7940
931.311	8016
931.415	7849
931.519	7658
931.623	7689
