Data from test_V78500241_3071.txt Node
Date: Fri Mar 25 14:55:05 CST 2022
User: usil
Spectrometer: V785-0024
Trigger mode: 0
Integration Time (sec): 4.000000E-1
Scans to average: 1
Nonlinearity correction enabled: false
Boxcar width: 0
Storing dark spectrum: false
XAxis mode: Wavelengths
Number of Pixels in Spectrum: 1024
>>>>>Begin Spectral Data<<<<<
801.071	22093
801.214	21835
801.356	21644
801.499	21583
801.641	21500
801.783	21439
801.926	21519
802.068	21416
802.211	21344
802.353	21230
802.496	20975
802.638	20929
802.78	20899
802.923	20857
803.065	20697
803.208	20735
803.35	20724
803.492	20804
803.635	20944
803.777	20777
803.919	20921
804.061	21081
804.204	20826
804.346	20598
804.488	20545
804.63	20800
804.773	20644
804.915	20727
805.057	20811
805.199	20636
805.341	20842
805.483	20769
805.626	20678
805.768	20583
805.91	20655
806.052	20781
806.194	20716
806.336	20807
806.478	20686
806.62	20682
806.762	20830
806.904	20944
807.046	21123
807.188	21009
807.33	20880
807.472	20986
807.614	21013
807.756	20963
807.898	20781
808.04	20655
808.182	20735
808.324	20712
808.465	20746
808.607	20971
808.749	21058
808.891	21104
809.033	21207
809.174	21013
809.316	21009
809.458	20986
809.6	21020
809.741	21017
809.883	21127
810.025	21279
810.166	21237
810.308	21165
810.45	21123
810.591	21154
810.733	20883
810.875	20845
811.016	20617
811.158	20743
811.299	20902
811.441	20921
811.582	20952
811.724	20880
811.865	20743
812.007	20842
812.148	20861
812.29	20925
812.431	21066
812.573	21093
812.714	21245
812.855	21389
812.997	21416
813.138	21332
813.279	21481
813.421	21336
813.562	21165
813.703	21119
813.845	20963
813.986	20708
814.127	20488
814.268	20446
814.41	20423
814.551	20419
814.692	20427
814.833	20294
814.974	20294
815.115	20233
815.256	20240
815.397	20202
815.539	20225
815.68	20161
815.821	20005
815.962	20069
816.103	20069
816.244	19940
816.385	19734
816.526	19795
816.666	19674
816.807	19537
816.948	19563
817.089	19655
817.23	19594
817.371	19518
817.512	19563
817.653	19499
817.793	19460
817.934	19472
818.075	19457
818.216	19472
818.356	19396
818.497	19392
818.638	19198
818.778	19236
818.919	19133
819.06	19160
819.2	19343
819.341	19377
819.481	19396
819.622	19449
819.762	19696
819.903	19578
820.043	19518
820.184	19411
820.324	19548
820.465	19411
820.605	19499
820.746	19476
820.886	19343
821.026	19308
821.167	19430
821.307	19529
821.447	19358
821.588	19308
821.728	19198
821.868	19004
822.008	18848
822.149	18886
822.289	18878
822.429	18665
822.569	18555
822.709	18585
822.849	18258
822.99	18384
823.13	18281
823.27	18251
823.41	18194
823.55	18133
823.69	18213
823.83	18239
823.97	18011
824.11	17961
824.25	17882
824.389	17969
824.529	18003
824.669	18038
824.809	17984
824.949	18087
825.089	18003
825.228	17942
825.368	17748
825.508	17745
825.648	17752
825.787	17805
825.927	17790
826.067	17703
826.206	17680
826.346	17642
826.485	17684
826.625	17714
826.765	17824
826.904	17653
827.044	17455
827.183	17376
827.323	17459
827.462	17436
827.601	17398
827.741	17349
827.88	17288
828.02	17376
828.159	17391
828.298	17452
828.437	17425
828.577	17410
828.716	17566
828.855	17360
828.994	17242
829.134	17162
829.273	17174
829.412	17147
829.551	17083
829.69	17143
829.829	17113
829.968	17197
830.107	17147
830.246	17113
830.385	17216
830.524	17086
830.663	16976
830.802	16877
830.941	16801
831.08	16683
831.219	16816
831.357	16835
831.496	16987
831.635	16733
831.774	16679
831.913	16500
832.051	16550
832.19	16474
832.329	16645
832.467	16470
832.606	16451
832.744	16451
832.883	16493
833.022	16428
833.16	16531
833.299	16558
833.437	16500
833.576	16554
833.714	16607
833.852	16500
833.991	16489
834.129	16542
834.267	16615
834.406	16447
834.544	16596
834.682	16508
834.821	16512
834.959	16641
835.097	16432
835.235	16546
835.373	16516
835.511	16493
835.65	16329
835.788	16459
835.926	16223
836.064	16192
836.202	16223
836.34	16379
836.478	16474
836.615	16398
836.753	16424
836.891	16398
837.029	16421
837.167	16424
837.305	16303
837.443	16185
837.58	16215
837.718	16276
837.856	16314
837.993	16215
838.131	16329
838.269	16150
838.406	16215
838.544	16116
838.681	16017
838.819	15876
838.956	15816
839.094	15804
839.231	15956
839.369	15888
839.506	16116
839.643	16044
839.781	15835
839.918	15793
840.055	15816
840.193	15835
840.33	15800
840.467	15823
840.604	15850
840.742	16025
840.879	15694
841.016	15671
841.153	15751
841.29	15895
841.427	15865
841.564	15835
841.701	15816
841.838	15732
841.975	15679
842.112	15690
842.249	15568
842.385	15622
842.522	15732
842.659	15686
842.796	15564
842.933	15606
843.069	15519
843.206	15542
843.343	15690
843.479	15614
843.616	15694
843.752	15443
843.889	15321
844.025	15473
844.162	15306
844.298	15454
844.435	15401
844.571	15359
844.708	15378
844.844	15542
844.98	15614
845.117	15507
845.253	15317
845.389	15180
845.525	15329
845.661	15252
845.798	15119
845.934	15180
846.07	15154
846.206	15150
846.342	15275
846.478	15146
846.614	14960
846.75	14781
846.886	14902
847.022	15001
847.158	14937
847.294	14902
847.429	15013
847.565	14895
847.701	15173
847.837	14674
847.972	14583
848.108	14754
848.244	14762
848.379	14648
848.515	14526
848.65	14511
848.786	14545
848.921	14598
849.057	14587
849.192	14629
849.328	14594
849.463	14530
849.598	14533
849.734	14431
849.869	14355
850.004	14381
850.14	14370
850.275	14328
850.41	14225
850.545	14263
850.68	14301
850.815	14377
850.95	14408
851.085	14404
851.22	14446
851.355	14271
851.49	14339
851.625	14153
851.76	14370
851.895	14115
852.03	14195
852.165	14263
852.299	14278
852.434	14404
852.569	14339
852.703	14309
852.838	14336
852.973	14309
853.107	14465
853.242	14347
853.376	14221
853.511	14084
853.645	14206
853.78	14343
853.914	14199
854.048	14043
854.183	14157
854.317	14183
854.451	14347
854.585	14168
854.72	14164
854.854	14214
854.988	14248
855.122	14199
855.256	14077
855.39	14214
855.524	14233
855.658	14248
855.792	14172
855.926	14305
856.06	14172
856.194	14248
856.327	14176
856.461	14164
856.595	14161
856.729	14149
856.862	14298
856.996	14081
857.13	14145
857.263	14286
857.397	14259
857.53	14100
857.664	14206
857.797	14240
857.931	14267
858.064	14252
858.197	14282
858.331	14172
858.464	14259
858.597	14130
858.731	14180
858.864	14218
858.997	14142
859.13	14237
859.263	14180
859.396	14206
859.529	14050
859.662	14191
859.795	14043
859.928	14252
860.061	14324
860.194	14427
860.327	14301
860.46	14115
860.592	14282
860.725	14267
860.858	14263
860.99	14164
861.123	14077
861.256	14016
861.388	14275
861.521	14876
861.653	14035
861.786	14035
861.918	14046
862.05	14050
862.183	14081
862.315	14183
862.447	14278
862.58	14115
862.712	13879
862.844	13845
862.976	14081
863.108	14050
863.24	14389
863.372	13928
863.504	13959
863.636	14016
863.768	13894
863.9	13864
864.032	13947
864.164	13921
864.296	14027
864.428	14073
864.559	13989
864.691	14134
864.823	14088
864.954	13997
865.086	13974
865.217	13967
865.349	13852
865.48	13940
865.612	13917
865.743	14058
865.875	13978
866.006	13940
866.137	13974
866.269	13970
866.4	13902
866.531	13807
866.662	13940
866.793	13959
866.924	13917
867.055	13932
867.186	13951
867.317	13902
867.448	13849
867.579	13902
867.71	13856
867.841	13818
867.972	13879
868.103	13887
868.233	13845
868.364	13993
868.495	14035
868.625	14187
868.756	14294
868.886	13989
869.017	14130
869.147	14191
869.278	14320
869.408	14172
869.539	14225
869.669	14370
869.799	14221
869.929	14233
870.06	14290
870.19	14545
870.32	14446
870.45	14530
870.58	14693
870.71	14693
870.84	14625
870.97	14590
871.1	14575
871.23	14606
871.36	14720
871.489	14720
871.619	14750
871.749	14823
871.879	14796
872.008	14921
872.138	14785
872.267	14785
872.397	14682
872.526	14674
872.656	14655
872.785	14640
872.915	14796
873.044	14899
873.173	14640
873.303	14899
873.432	14758
873.561	14948
873.69	14842
873.819	14891
873.948	14861
874.077	14967
874.206	14880
874.335	14826
874.464	14986
874.593	15173
874.722	15070
874.851	15192
874.979	15169
875.108	15195
875.237	15165
875.365	15169
875.494	15142
875.623	15283
875.751	15081
875.88	15245
876.008	15313
876.136	15374
876.265	15595
876.393	15717
876.521	15622
876.65	15713
876.778	15625
876.906	15557
877.034	15500
877.162	15549
877.29	15507
877.418	15488
877.546	15644
877.674	15545
877.802	15466
877.93	15542
878.058	15519
878.185	15393
878.313	15492
878.441	15557
878.568	15306
878.696	15591
878.824	15603
878.951	15701
879.079	15663
879.206	15804
879.333	15713
879.461	15599
879.588	15686
879.715	15705
879.842	15846
879.97	15625
880.097	15359
880.224	15329
880.351	15466
880.478	15348
880.605	15302
880.732	15405
880.859	15599
880.986	15473
881.112	15374
881.239	15245
881.366	15207
881.493	15100
881.619	15058
881.746	15100
881.872	15020
881.999	15055
882.125	14994
882.252	15116
882.378	15135
882.505	15157
882.631	14967
882.757	14857
882.883	14929
883.01	14921
883.136	14891
883.262	14777
883.388	14750
883.514	14944
883.64	14921
883.766	14800
883.892	14640
884.018	14807
884.143	14872
884.269	14990
884.395	14682
884.52	14549
884.646	14648
884.772	14598
884.897	14507
885.023	14659
885.148	14731
885.274	14739
885.399	14701
885.524	14606
885.65	14606
885.775	14583
885.9	14617
886.025	14621
886.15	14682
886.275	14518
886.4	14560
886.525	14606
886.65	14640
886.775	14461
886.9	14739
887.025	14838
887.149	14606
887.274	14381
887.399	14393
887.523	14355
887.648	14324
887.773	14336
887.897	14598
888.021	14469
888.146	14431
888.27	14556
888.395	14556
888.519	14457
888.643	14450
888.767	14541
888.891	14374
889.015	14149
889.139	14343
889.263	14294
889.387	14366
889.511	14526
889.635	14415
889.759	14256
889.883	14271
890.006	14313
890.13	14473
890.254	14244
890.377	14301
890.501	14157
890.624	14126
890.748	14058
890.871	14058
890.995	13936
891.118	13894
891.241	13932
891.364	14024
891.488	14126
891.611	13986
891.734	13986
891.857	14005
891.98	14005
892.103	14081
892.226	14050
892.349	14016
892.471	13852
892.594	13959
892.717	14092
892.839	14054
892.962	14001
893.085	13955
893.207	13951
893.33	13887
893.452	13928
893.575	14001
893.697	13989
893.819	14134
893.941	14138
894.064	14164
894.186	13989
894.308	13947
894.43	14092
894.552	14195
894.674	14199
894.796	14016
894.918	14111
895.04	14008
895.161	14176
895.283	14073
895.405	14005
895.526	14096
895.648	14161
895.769	14103
895.891	14126
896.012	14142
896.134	14210
896.255	14142
896.376	14183
896.498	14119
896.619	14252
896.74	14218
896.861	14210
896.982	14484
897.103	14667
897.224	14541
897.345	14396
897.466	14320
897.587	14366
897.708	14541
897.828	14602
897.949	14301
898.07	14317
898.19	14362
898.311	14575
898.431	14469
898.552	14537
898.672	14571
898.792	14625
898.913	14636
899.033	14533
899.153	14434
899.273	14278
899.393	14412
899.513	14343
899.633	14427
899.753	14317
899.873	14332
899.993	14457
900.113	14366
900.232	14423
900.352	14404
900.472	14355
900.591	14195
900.711	14221
900.83	14343
900.95	14328
901.069	14347
901.189	14233
901.308	13989
901.427	13906
901.546	13959
901.665	13951
901.784	14020
901.904	13879
902.023	13799
902.141	13594
902.26	13559
902.379	13525
902.498	13529
902.617	13426
902.735	13563
902.854	13480
902.973	13472
903.091	13187
903.21	13244
903.328	13160
903.446	13099
903.565	13126
903.683	13122
903.801	13023
903.919	13065
904.038	13053
904.156	12890
904.274	12913
904.392	12970
904.51	12932
904.627	12905
904.745	12943
904.863	13012
904.981	12707
905.098	12555
905.216	12566
905.334	12589
905.451	12551
905.569	12551
905.686	12513
905.803	12585
905.921	12464
906.038	12471
906.155	12403
906.272	12369
906.389	12311
906.506	12254
906.623	12266
906.74	12072
906.857	12102
906.974	12026
907.091	12235
907.208	12353
907.324	12239
907.441	12106
907.557	11950
907.674	11939
907.79	11821
907.907	11958
908.023	11893
908.139	11912
908.256	11870
908.372	11866
908.488	11893
908.604	11767
908.72	11630
908.836	11661
908.952	11649
909.068	11634
909.184	11729
909.3	11752
909.415	11714
909.531	11623
909.647	11417
909.762	11417
909.878	11406
909.993	11455
910.108	11414
910.224	11497
910.339	11509
910.454	11368
910.57	11284
910.685	11242
910.8	11562
910.915	11414
911.03	11356
911.145	11231
911.259	11223
911.374	11162
911.489	11018
911.604	11041
911.718	10915
911.833	10923
911.947	10820
912.062	10744
912.176	10976
912.291	10900
912.405	10980
912.519	11090
912.633	11155
912.748	11033
912.862	10847
912.976	10801
913.09	10714
913.204	10755
913.318	10900
913.431	10934
913.545	10923
913.659	10862
913.772	10854
913.886	10721
914	10679
914.113	10752
914.226	10843
914.34	10797
914.453	10558
914.566	10820
914.68	10622
914.793	10645
914.906	10443
915.019	10390
915.132	10417
915.245	10542
915.358	10466
915.47	10417
915.583	10527
915.696	10493
915.809	10626
915.921	10573
916.034	10485
916.146	10451
916.259	10421
916.371	10504
916.483	10451
916.595	10367
916.708	10398
916.82	10394
916.932	10386
917.044	10417
917.156	10314
917.268	10257
917.38	10303
917.491	10265
917.603	10322
917.715	10424
917.826	10325
917.938	10196
918.049	10147
918.161	10284
918.272	10478
918.384	10424
918.495	10318
918.606	10253
918.717	10143
918.828	10185
918.939	10227
919.05	10177
919.161	10215
919.272	9994
919.383	10036
919.494	10223
919.604	10409
919.715	10124
919.826	10036
919.936	10109
920.047	10314
920.157	10139
920.267	10356
920.378	10242
920.488	10154
920.598	10402
920.708	10535
920.818	10424
920.928	10390
921.038	10489
921.148	10478
921.258	10284
921.368	10207
921.477	10082
921.587	9987
921.697	9911
921.806	10021
921.916	9922
922.025	9831
922.134	9694
922.244	9709
922.353	9759
922.462	9679
922.571	9599
922.68	9443
922.789	9428
922.898	9458
923.007	9428
923.116	9473
923.224	9401
923.333	9450
923.442	9325
923.55	9253
923.659	9313
923.767	9386
923.876	9268
923.984	9397
924.092	9214
924.201	9287
924.309	9302
924.417	9317
924.525	9176
924.633	9340
924.741	10169
924.849	9051
924.956	9310
925.064	9047
925.172	8982
925.279	9062
925.387	9104
925.494	9173
925.602	9241
925.709	9100
925.816	9036
925.924	9089
926.031	9188
926.138	9089
926.245	9119
926.352	9043
926.459	9184
926.566	9173
926.673	9116
926.779	8982
926.886	8990
926.993	8876
927.099	8830
927.206	8807
927.312	8777
927.419	8887
927.525	8811
927.631	8826
927.737	8731
927.843	8644
927.95	8564
928.056	8674
928.162	8712
928.267	8804
928.373	9192
928.479	8792
928.585	8503
928.69	8754
928.796	8777
928.901	8621
929.007	8518
929.112	8670
929.218	8549
929.323	8556
929.428	8537
929.533	8670
929.638	8450
929.743	8522
929.848	8522
929.953	8530
930.058	8461
930.163	8286
930.267	8332
930.372	8408
930.477	8271
930.581	8545
930.685	8370
930.79	8256
930.894	8183
930.998	8218
931.103	8294
931.207	8046
931.311	8031
931.415	7951
931.519	7826
931.623	7784
