Data from test_V78500241_2156.txt Node
Date: Fri Mar 25 14:48:43 CST 2022
User: usil
Spectrometer: V785-0024
Trigger mode: 0
Integration Time (sec): 4.000000E-1
Scans to average: 1
Nonlinearity correction enabled: false
Boxcar width: 0
Storing dark spectrum: false
XAxis mode: Wavelengths
Number of Pixels in Spectrum: 1024
>>>>>Begin Spectral Data<<<<<
801.071	22116
801.214	22048
801.356	21831
801.499	21755
801.641	21583
801.783	21625
801.926	21698
802.068	21412
802.211	21443
802.353	21374
802.496	21222
802.638	21043
802.78	21119
802.923	20857
803.065	20857
803.208	20845
803.35	20891
803.492	20815
803.635	21123
803.777	20830
803.919	20933
804.061	21226
804.204	20876
804.346	20929
804.488	20762
804.63	20796
804.773	20708
804.915	20815
805.057	21001
805.199	20773
805.341	20887
805.483	20914
805.626	20921
805.768	20796
805.91	20826
806.052	20906
806.194	20785
806.336	20918
806.478	20765
806.62	20796
806.762	20845
806.904	20990
807.046	21268
807.188	21150
807.33	21024
807.472	21131
807.614	21051
807.756	21024
807.898	20861
808.04	20792
808.182	20804
808.324	21001
808.465	20975
808.607	21192
808.749	21176
808.891	21272
809.033	21351
809.174	21173
809.316	21192
809.458	21005
809.6	21203
809.741	21188
809.883	21325
810.025	21389
810.166	21264
810.308	21401
810.45	21279
810.591	21218
810.733	21043
810.875	21066
811.016	20952
811.158	20906
811.299	21032
811.441	21100
811.582	21123
811.724	20925
811.865	20960
812.007	20899
812.148	20979
812.29	20891
812.431	21268
812.573	21195
812.714	21351
812.855	21507
812.997	21557
813.138	21671
813.279	21557
813.421	21530
813.562	21397
813.703	21249
813.845	21154
813.986	20830
814.127	20613
814.268	20640
814.41	20545
814.551	20518
814.692	20598
814.833	20454
814.974	20408
815.115	20461
815.256	20431
815.397	20317
815.539	20328
815.68	20271
815.821	20240
815.962	20233
816.103	20195
816.244	20081
816.385	20039
816.526	19906
816.666	19727
816.807	19647
816.948	19769
817.089	19906
817.23	19769
817.371	19655
817.512	19563
817.653	19601
817.793	19582
817.934	19613
818.075	19632
818.216	19537
818.356	19620
818.497	19476
818.638	19358
818.778	19487
818.919	19422
819.06	19369
819.2	19434
819.341	19597
819.481	19548
819.622	19723
819.762	19864
819.903	19814
820.043	19689
820.184	19597
820.324	19480
820.465	19780
820.605	19742
820.746	19620
820.886	19521
821.026	19632
821.167	19472
821.307	19658
821.447	19468
821.588	19327
821.728	19225
821.868	19202
822.008	18966
822.149	19175
822.289	18962
822.429	18859
822.569	18757
822.709	18757
822.849	18639
822.99	18445
823.13	18642
823.27	18391
823.41	18418
823.55	18311
823.69	18327
823.83	18483
823.97	18133
824.11	18114
824.25	18064
824.389	18095
824.529	18182
824.669	18148
824.809	18243
824.949	18338
825.089	18277
825.228	18117
825.368	17874
825.508	17980
825.648	17904
825.787	17973
825.927	17859
826.067	17859
826.206	17836
826.346	17874
826.485	17866
826.625	17897
826.765	17950
826.904	17878
827.044	17748
827.183	17646
827.323	17566
827.462	17649
827.601	17589
827.741	17615
827.88	17547
828.02	17478
828.159	17577
828.298	17577
828.437	17665
828.577	17657
828.716	17646
828.855	17543
828.994	17250
829.134	17379
829.273	17261
829.412	17284
829.551	17204
829.69	17216
829.829	17410
829.968	17356
830.107	17356
830.246	17296
830.385	17261
830.524	17159
830.663	17292
830.802	17151
830.941	16953
831.08	16858
831.219	16911
831.357	17037
831.496	17140
831.635	16930
831.774	16869
831.913	16797
832.051	16725
832.19	16702
832.329	16698
832.467	16672
832.606	16607
832.744	16611
832.883	16577
833.022	16558
833.16	16561
833.299	16759
833.437	16588
833.576	16645
833.714	16588
833.852	16721
833.991	16694
834.129	16786
834.267	16752
834.406	16622
834.544	16790
834.682	16717
834.821	16599
834.959	16748
835.097	16523
835.235	16771
835.373	16675
835.511	16672
835.65	16634
835.788	16519
835.926	16497
836.064	16447
836.202	16447
836.34	16611
836.478	16740
836.615	16485
836.753	16607
836.891	16710
837.029	16615
837.167	16577
837.305	16531
837.443	16428
837.58	16390
837.718	16500
837.856	16424
837.993	16459
838.131	16424
838.269	16310
838.406	16363
838.544	16360
838.681	16188
838.819	16112
838.956	16082
839.094	15953
839.231	15937
839.369	16124
839.506	16398
839.643	16249
839.781	15979
839.918	16040
840.055	16010
840.193	15915
840.33	15964
840.467	15930
840.604	16044
840.742	16261
840.879	15846
841.016	15842
841.153	15907
841.29	16059
841.427	15987
841.564	15884
841.701	15968
841.838	15903
841.975	15888
842.112	15846
842.249	15736
842.385	15766
842.522	15930
842.659	15812
842.796	15736
842.933	15724
843.069	15759
843.206	15793
843.343	15816
843.479	15751
843.616	15728
843.752	15511
843.889	15542
844.025	15679
844.162	15473
844.298	15663
844.435	15462
844.571	15473
844.708	15591
844.844	15732
844.98	15728
845.117	15751
845.253	15416
845.389	15488
845.525	15564
845.661	15473
845.798	15340
845.934	15389
846.07	15405
846.206	15329
846.342	15431
846.478	15325
846.614	15207
846.75	15062
846.886	15119
847.022	15344
847.158	15180
847.294	15119
847.429	15135
847.565	15081
847.701	15317
847.837	14826
847.972	14743
848.108	15047
848.244	14952
848.379	14724
848.515	14708
848.65	14712
848.786	14727
848.921	14792
849.057	14872
849.192	14861
849.328	14727
849.463	14773
849.598	14697
849.734	14640
849.869	14575
850.004	14465
850.14	14446
850.275	14434
850.41	14355
850.545	14358
850.68	14446
850.815	14560
850.95	14434
851.085	14613
851.22	14602
851.355	14476
851.49	14495
851.625	14408
851.76	14457
851.895	14377
852.03	14396
852.165	14461
852.299	14503
852.434	14644
852.569	14533
852.703	14549
852.838	14583
852.973	14716
853.107	14537
853.242	14564
853.376	14351
853.511	14263
853.645	14412
853.78	14438
853.914	14400
854.048	14244
854.183	14275
854.317	14415
854.451	14522
854.585	14393
854.72	14290
854.854	14446
854.988	14377
855.122	14275
855.256	14214
855.39	14313
855.524	14419
855.658	14317
855.792	14385
855.926	14396
856.06	14355
856.194	14434
856.327	14377
856.461	14317
856.595	14317
856.729	14256
856.862	14530
856.996	14400
857.13	14412
857.263	14564
857.397	14488
857.53	14355
857.664	14381
857.797	14427
857.931	14530
858.064	14480
858.197	14469
858.331	14389
858.464	14237
858.597	14202
858.731	14267
858.864	14301
858.997	14320
859.13	14427
859.263	14389
859.396	14476
859.529	14415
859.662	14343
859.795	14309
859.928	14393
860.061	14473
860.194	14568
860.327	14404
860.46	14415
860.592	14454
860.725	14461
860.858	14575
860.99	14362
861.123	14324
861.256	14183
861.388	14339
861.521	15077
861.653	14180
861.786	14191
861.918	14210
862.05	14225
862.183	14290
862.315	14415
862.447	14385
862.58	14313
862.712	14081
862.844	14073
862.976	14172
863.108	14149
863.24	14442
863.372	14065
863.504	14111
863.636	14115
863.768	14126
863.9	14191
864.032	14107
864.164	14096
864.296	14149
864.428	14294
864.559	14240
864.691	14210
864.823	14221
864.954	14191
865.086	14153
865.217	14107
865.349	13978
865.48	14161
865.612	14214
865.743	14225
865.875	14092
866.006	14065
866.137	14130
866.269	14043
866.4	14142
866.531	14054
866.662	14020
866.793	14096
866.924	14024
867.055	14138
867.186	14103
867.317	14065
867.448	14123
867.579	14062
867.71	14012
867.841	14001
867.972	14123
868.103	14157
868.233	14130
868.364	13978
868.495	14263
868.625	14400
868.756	14503
868.886	14305
869.017	14427
869.147	14484
869.278	14541
869.408	14351
869.539	14454
869.669	14339
869.799	14377
869.929	14541
870.06	14602
870.19	14629
870.32	14651
870.45	14674
870.58	14781
870.71	14785
870.84	14826
870.97	14746
871.1	14724
871.23	14933
871.36	14868
871.489	14804
871.619	14960
871.749	14933
871.879	15032
872.008	15154
872.138	14967
872.267	14975
872.397	14944
872.526	14693
872.656	14819
872.785	14804
872.915	14872
873.044	15066
873.173	15032
873.303	15017
873.432	15043
873.561	15100
873.69	14979
873.819	14979
873.948	15043
874.077	14967
874.206	14975
874.335	15104
874.464	15207
874.593	15294
874.722	15184
874.851	15344
874.979	15302
875.108	15332
875.237	15306
875.365	15256
875.494	15214
875.623	15374
875.751	15268
875.88	15401
876.008	15557
876.136	15519
876.265	15762
876.393	15861
876.521	15854
876.65	15751
876.778	15861
876.906	15698
877.034	15656
877.162	15755
877.29	15603
877.418	15705
877.546	15785
877.674	15812
877.802	15705
877.93	15793
878.058	15656
878.185	15686
878.313	15679
878.441	15793
878.568	15595
878.696	15660
878.824	15789
878.951	15812
879.079	15964
879.206	16128
879.333	15972
879.461	15766
879.588	15876
879.715	15899
879.842	16090
879.97	15857
880.097	15534
880.224	15519
880.351	15656
880.478	15682
880.605	15545
880.732	15587
880.859	15869
880.986	15599
881.112	15644
881.239	15500
881.366	15355
881.493	15272
881.619	15279
881.746	15355
881.872	15230
881.999	15085
882.125	15199
882.252	15401
882.378	15260
882.505	15420
882.631	15123
882.757	15146
882.883	15058
883.01	15039
883.136	15017
883.262	14975
883.388	14963
883.514	15032
883.64	15112
883.766	15051
883.892	14899
884.018	14944
884.143	15123
884.269	15184
884.395	14891
884.52	14716
884.646	14849
884.772	14651
884.897	14678
885.023	14777
885.148	14883
885.274	14899
885.399	14895
885.524	14724
885.65	14819
885.775	14712
885.9	14724
886.025	14834
886.15	14857
886.275	14796
886.4	14697
886.525	14720
886.65	14617
886.775	14667
886.9	14830
887.025	14925
887.149	14838
887.274	14598
887.399	14564
887.523	14537
887.648	14571
887.773	14533
887.897	14621
888.021	14716
888.146	14621
888.27	14583
888.395	14610
888.519	14674
888.643	14716
888.767	14735
888.891	14629
889.015	14450
889.139	14473
889.263	14431
889.387	14598
889.511	14659
889.635	14457
889.759	14377
889.883	14446
890.006	14473
890.13	14526
890.254	14377
890.377	14465
890.501	14275
890.624	14332
890.748	14355
890.871	14199
890.995	14046
891.118	13967
891.241	14142
891.364	14176
891.488	14157
891.611	14161
891.734	14065
891.857	14161
891.98	14168
892.103	14157
892.226	14286
892.349	14164
892.471	13993
892.594	14191
892.717	14138
892.839	14294
892.962	14180
893.085	14202
893.207	14145
893.33	14081
893.452	14062
893.575	14267
893.697	14107
893.819	14343
893.941	14396
894.064	14408
894.186	14092
894.308	14062
894.43	14282
894.552	14263
894.674	14362
894.796	14256
894.918	14157
895.04	14123
895.161	14358
895.283	14286
895.405	14214
895.526	14290
895.648	14202
895.769	14206
895.891	14358
896.012	14351
896.134	14347
896.255	14301
896.376	14347
896.498	14271
896.619	14434
896.74	14423
896.861	14419
896.982	14667
897.103	14853
897.224	14560
897.345	14575
897.466	14533
897.587	14571
897.708	14727
897.828	14785
897.949	14602
898.07	14492
898.19	14651
898.311	14705
898.431	14640
898.552	14697
898.672	14659
898.792	14857
898.913	14773
899.033	14564
899.153	14492
899.273	14374
899.393	14503
899.513	14564
899.633	14606
899.753	14583
899.873	14537
899.993	14541
900.113	14492
900.232	14476
900.352	14541
900.472	14450
900.591	14381
900.711	14450
900.83	14301
900.95	14507
901.069	14461
901.189	14309
901.308	14161
901.427	14058
901.546	14100
901.665	14092
901.784	14039
901.904	13818
902.023	13936
902.141	13696
902.26	13738
902.379	13689
902.498	13628
902.617	13605
902.735	13643
902.854	13677
902.973	13518
903.091	13419
903.21	13266
903.328	13350
903.446	13240
903.565	13206
903.683	13324
903.801	13175
903.919	13232
904.038	13152
904.156	13091
904.274	13145
904.392	12973
904.51	13023
904.627	12977
904.745	13137
904.863	13053
904.981	12776
905.098	12757
905.216	12776
905.334	12764
905.451	12684
905.569	12715
905.686	12783
905.803	12711
905.921	12589
906.038	12635
906.155	12544
906.272	12437
906.389	12475
906.506	12330
906.623	12292
906.74	12273
906.857	12251
906.974	12243
907.091	12258
907.208	12452
907.324	12384
907.441	12281
907.557	12068
907.674	12079
907.79	12026
907.907	12152
908.023	12102
908.139	12026
908.256	12019
908.372	12011
908.488	11973
908.604	11832
908.72	11775
908.836	11786
908.952	11832
909.068	11843
909.184	11805
909.3	11771
909.415	11805
909.531	11859
909.647	11589
909.762	11619
909.878	11589
909.993	11611
910.108	11551
910.224	11627
910.339	11577
910.454	11532
910.57	11448
910.685	11364
910.8	11680
910.915	11596
911.03	11429
911.145	11315
911.259	11284
911.374	11326
911.489	11231
911.604	11185
911.718	11048
911.833	10965
911.947	11006
912.062	10801
912.176	11033
912.291	10965
912.405	10987
912.519	11265
912.633	11303
912.748	11025
912.862	10991
912.976	11025
913.09	10809
913.204	10801
913.318	10961
913.431	11090
913.545	10957
913.659	11014
913.772	10949
913.886	10740
914	10805
914.113	10911
914.226	10957
914.34	10869
914.453	10725
914.566	10843
914.68	10694
914.793	10763
914.906	10626
915.019	10478
915.132	10443
915.245	10531
915.358	10542
915.47	10493
915.583	10577
915.696	10523
915.809	10672
915.921	10664
916.034	10504
916.146	10512
916.259	10451
916.371	10626
916.483	10622
916.595	10371
916.708	10497
916.82	10523
916.932	10405
917.044	10603
917.156	10367
917.268	10344
917.38	10367
917.491	10352
917.603	10337
917.715	10409
917.826	10436
917.938	10379
918.049	10219
918.161	10333
918.272	10550
918.384	10447
918.495	10424
918.606	10234
918.717	10192
918.828	10242
918.939	10257
919.05	10128
919.161	10280
919.272	10021
919.383	10158
919.494	10261
919.604	10481
919.715	10341
919.826	10143
919.936	10188
920.047	10287
920.157	10280
920.267	10466
920.378	10291
920.488	10238
920.598	10455
920.708	10588
920.818	10466
920.928	10523
921.038	10637
921.148	10622
921.258	10322
921.368	10188
921.477	10135
921.587	10090
921.697	10025
921.806	10147
921.916	10048
922.025	9835
922.134	9827
922.244	9774
922.353	9816
922.462	9774
922.571	9648
922.68	9553
922.789	9534
922.898	9549
923.007	9443
923.116	9545
923.224	9534
923.333	9511
923.442	9386
923.55	9344
923.659	9378
923.767	9420
923.876	9386
923.984	9458
924.092	9405
924.201	9382
924.309	9348
924.417	9389
924.525	9313
924.633	9389
924.741	10143
924.849	9146
924.956	9344
925.064	9211
925.172	9001
925.279	9161
925.387	9192
925.494	9146
925.602	9306
925.709	9256
925.816	9055
925.924	9173
926.031	9226
926.138	9138
926.245	9195
926.352	9081
926.459	9268
926.566	9294
926.673	9138
926.779	9036
926.886	9074
926.993	8834
927.099	8887
927.206	8823
927.312	8796
927.419	8902
927.525	8910
927.631	8986
927.737	8773
927.843	8670
927.95	8655
928.056	8689
928.162	8826
928.267	8880
928.373	9313
928.479	8914
928.585	8610
928.69	8785
928.796	8830
928.901	8697
929.007	8530
929.112	8720
929.218	8705
929.323	8648
929.428	8598
929.533	8720
929.638	8568
929.743	8583
929.848	8667
929.953	8476
930.058	8499
930.163	8347
930.267	8362
930.372	8431
930.477	8317
930.581	8560
930.685	8461
930.79	8214
930.894	8374
930.998	8347
931.103	8419
931.207	8119
931.311	8012
931.415	8046
931.519	7776
931.623	7799
