Data from test_V78500241_590.txt Node
Date: Fri Mar 25 14:37:49 CST 2022
User: usil
Spectrometer: V785-0024
Trigger mode: 0
Integration Time (sec): 4.000000E-1
Scans to average: 1
Nonlinearity correction enabled: false
Boxcar width: 0
Storing dark spectrum: false
XAxis mode: Wavelengths
Number of Pixels in Spectrum: 1024
>>>>>Begin Spectral Data<<<<<
801.071	28029
801.214	27804
801.356	27424
801.499	27405
801.641	27321
801.783	27275
801.926	27306
802.068	27245
802.211	27009
802.353	26902
802.496	26773
802.638	26765
802.78	26807
802.923	26838
803.065	26777
803.208	26746
803.35	26781
803.492	26857
803.635	27005
803.777	26929
803.919	26876
804.061	27325
804.204	27089
804.346	27028
804.488	26887
804.63	27036
804.773	27051
804.915	27055
805.057	27222
805.199	27074
805.341	27252
805.483	27359
805.626	27332
805.768	27180
805.91	27389
806.052	27431
806.194	27454
806.336	27812
806.478	27770
806.62	27861
806.762	28158
806.904	28394
807.046	28980
807.188	29044
807.33	29136
807.472	29786
807.614	30045
807.756	30665
807.898	31392
808.04	32457
808.182	33629
808.324	35471
808.465	37407
808.607	39561
808.749	41375
808.891	42471
809.033	42380
809.174	41501
809.316	39469
809.458	37126
809.6	35025
809.741	33283
809.883	31963
810.025	31133
810.166	30353
810.308	29916
810.45	29547
810.591	29048
810.733	28782
810.875	28550
811.016	28124
811.158	28029
811.299	28265
811.441	28215
811.582	27964
811.724	27774
811.865	27675
812.007	27705
812.148	27576
812.29	27568
812.431	27591
812.573	27907
812.714	27892
812.855	27823
812.997	27922
813.138	28013
813.279	27934
813.421	27838
813.562	27690
813.703	27382
813.845	27397
813.986	27081
814.127	26815
814.268	26724
814.41	26629
814.551	26727
814.692	26762
814.833	26594
814.974	26522
815.115	26499
815.256	26442
815.397	26396
815.539	26339
815.68	26377
815.821	26199
815.962	26225
816.103	26214
816.244	26145
816.385	26084
816.526	25906
816.666	25909
816.807	25571
816.948	25655
817.089	25635
817.23	25556
817.371	25476
817.512	25548
817.653	25518
817.793	25419
817.934	25487
818.075	25563
818.216	25445
818.356	25464
818.497	25282
818.638	25152
818.778	25198
818.919	25217
819.06	25270
819.2	25430
819.341	25422
819.481	25460
819.622	25483
819.762	25689
819.903	25643
820.043	25502
820.184	25521
820.324	25491
820.465	25529
820.605	25362
820.746	25285
820.886	25289
821.026	25324
821.167	25343
821.307	25407
821.447	25244
821.588	25076
821.728	25004
821.868	24791
822.008	24631
822.149	24574
822.289	24681
822.429	24467
822.569	24319
822.709	24311
822.849	24110
822.99	24159
823.13	24114
823.27	23980
823.41	23912
823.55	23866
823.69	23942
823.83	23935
823.97	23809
824.11	23646
824.25	23608
824.389	23657
824.529	23775
824.669	23566
824.809	23668
824.949	23710
825.089	23691
825.228	23646
825.368	23467
825.508	23512
825.648	23429
825.787	23520
825.927	23455
826.067	23387
826.206	23239
826.346	23459
826.485	23554
826.625	23440
826.765	23493
826.904	23551
827.044	23159
827.183	23174
827.323	23071
827.462	23216
827.601	23121
827.741	23006
827.88	23071
828.02	22919
828.159	22995
828.298	23124
828.437	23041
828.577	22995
828.716	22987
828.855	22942
828.994	22839
829.134	22763
829.273	22892
829.412	22801
829.551	22687
829.69	22641
829.829	22721
829.968	22744
830.107	22805
830.246	22824
830.385	22497
830.524	22615
830.663	22447
830.802	22481
830.941	22390
831.08	22257
831.219	22375
831.357	22402
831.496	22489
831.635	22238
831.774	22246
831.913	22360
832.051	22051
832.19	22181
832.329	22090
832.467	22166
832.606	22074
832.744	22166
832.883	22139
833.022	22223
833.16	22375
833.299	22390
833.437	22356
833.576	22573
833.714	22626
833.852	22546
833.991	22736
834.129	22790
834.267	22957
834.406	22801
834.544	22721
834.682	22679
834.821	22497
834.959	22634
835.097	22459
835.235	22402
835.373	22226
835.511	22158
835.65	22002
835.788	22093
835.926	21827
836.064	21701
836.202	21816
836.34	21895
836.478	21964
836.615	21766
836.753	21922
836.891	21869
837.029	21869
837.167	21778
837.305	21770
837.443	21618
837.58	21488
837.718	21774
837.856	21686
837.993	21545
838.131	21701
838.269	21511
838.406	21424
838.544	21557
838.681	21268
838.819	21119
838.956	21173
839.094	21188
839.231	21013
839.369	21203
839.506	21519
839.643	21310
839.781	21066
839.918	21001
840.055	21104
840.193	20971
840.33	20956
840.467	20906
840.604	21032
840.742	21279
840.879	20902
841.016	20925
841.153	20979
841.29	21112
841.427	21036
841.564	20914
841.701	21001
841.838	20834
841.975	20819
842.112	20929
842.249	20944
842.385	20762
842.522	20941
842.659	20861
842.796	20963
842.933	20785
843.069	20823
843.206	20887
843.343	20872
843.479	20876
843.616	20868
843.752	20887
843.889	20606
844.025	20864
844.162	20788
844.298	21020
844.435	20963
844.571	21077
844.708	21287
844.844	21519
844.98	21888
845.117	22192
845.253	22733
845.389	24079
845.525	26012
845.661	29687
845.798	34230
845.934	37616
846.07	38982
846.206	38206
846.342	35250
846.478	30970
846.614	26937
846.75	24254
846.886	22812
847.022	21991
847.158	21355
847.294	20994
847.429	20758
847.565	20530
847.701	20686
847.837	20081
847.972	19951
848.108	20062
848.244	19982
848.379	19883
848.515	19674
848.65	19609
848.786	19693
848.921	19780
849.057	19772
849.192	19757
849.328	19643
849.463	19514
849.598	19578
849.734	19365
849.869	19582
850.004	19308
850.14	19312
850.275	19194
850.41	19282
850.545	19365
850.68	19343
850.815	19297
850.95	19247
851.085	19396
851.22	19480
851.355	19354
851.49	19225
851.625	19297
851.76	19335
851.895	19225
852.03	19164
852.165	19270
852.299	19362
852.434	19430
852.569	19369
852.703	19445
852.838	19441
852.973	19407
853.107	19544
853.242	19331
853.376	19301
853.511	19365
853.645	19141
853.78	19422
853.914	19495
854.048	19320
854.183	19331
854.317	19346
854.451	19582
854.585	19464
854.72	19331
854.854	19552
854.988	19221
855.122	19251
855.256	19122
855.39	19232
855.524	19343
855.658	19263
855.792	19301
855.926	19156
856.06	19168
856.194	19255
856.327	19122
856.461	19053
856.595	19148
856.729	19137
856.862	19168
856.996	19168
857.13	19244
857.263	19122
857.397	19274
857.53	19061
857.664	19202
857.797	19187
857.931	19187
858.064	19095
858.197	19187
858.331	19031
858.464	18947
858.597	18966
858.731	18962
858.864	18966
858.997	19023
859.13	19148
859.263	19042
859.396	19152
859.529	18890
859.662	18958
859.795	18939
859.928	18947
860.061	19061
860.194	19076
860.327	19038
860.46	19000
860.592	19091
860.725	19137
860.858	19034
860.99	18954
861.123	18939
861.256	18928
861.388	18954
861.521	19605
861.653	18935
861.786	18863
861.918	18867
862.05	18962
862.183	18943
862.315	18973
862.447	19175
862.58	19038
862.712	18707
862.844	18692
862.976	18760
863.108	18734
863.24	19000
863.372	18650
863.504	18696
863.636	18631
863.768	18684
863.9	18681
864.032	18639
864.164	18551
864.296	18585
864.428	18753
864.559	18620
864.691	18692
864.823	18707
864.954	18642
865.086	18551
865.217	18661
865.349	18422
865.48	18597
865.612	18684
865.743	18593
865.875	18544
866.006	18509
866.137	18642
866.269	18551
866.4	18559
866.531	18574
866.662	18570
866.793	18502
866.924	18631
867.055	18578
867.186	18612
867.317	18456
867.448	18433
867.579	18544
867.71	18456
867.841	18407
867.972	18464
868.103	18578
868.233	18498
868.364	18525
868.495	18608
868.625	18749
868.756	18867
868.886	18665
869.017	18776
869.147	18909
869.278	18863
869.408	18897
869.539	18886
869.669	18905
869.799	18867
869.929	18913
870.06	19012
870.19	19198
870.32	19133
870.45	19221
870.58	19175
870.71	19312
870.84	19213
870.97	19278
871.1	19179
871.23	19381
871.36	19495
871.489	19407
871.619	19445
871.749	19384
871.879	19613
872.008	19597
872.138	19476
872.267	19521
872.397	19362
872.526	19343
872.656	19426
872.785	19384
872.915	19639
873.044	19544
873.173	19578
873.303	19487
873.432	19601
873.561	19772
873.69	19670
873.819	19719
873.948	19700
874.077	19708
874.206	19662
874.335	19738
874.464	19864
874.593	19986
874.722	20031
874.851	20107
874.979	20138
875.108	20138
875.237	20073
875.365	20084
875.494	20130
875.623	20267
875.751	20218
875.88	20362
876.008	20499
876.136	20530
876.265	20693
876.393	20826
876.521	20804
876.65	20861
876.778	20910
876.906	20963
877.034	21070
877.162	21036
877.29	20887
877.418	21024
877.546	21024
877.674	21138
877.802	21169
877.93	21351
878.058	21359
878.185	21443
878.313	21679
878.441	21998
878.568	22002
878.696	22561
878.824	23174
878.951	23729
879.079	24924
879.206	26301
879.333	27538
879.461	28706
879.588	29334
879.715	29482
879.842	28984
879.97	27610
880.097	26088
880.224	25053
880.351	24254
880.478	23699
880.605	23322
880.732	23124
880.859	23048
880.986	22812
881.112	22748
881.239	22470
881.366	22474
881.493	22344
881.619	22417
881.746	22257
881.872	22462
881.999	22405
882.125	22390
882.252	22493
882.378	22500
882.505	22573
882.631	22588
882.757	22246
882.883	22459
883.01	22177
883.136	22192
883.262	22181
883.388	22158
883.514	22253
883.64	22223
883.766	22101
883.892	21983
884.018	22090
884.143	22192
884.269	22322
884.395	22116
884.52	21930
884.646	21857
884.772	21911
884.897	21888
885.023	21918
885.148	22006
885.274	21888
885.399	21972
885.524	21762
885.65	21751
885.775	21641
885.9	21576
886.025	21519
886.15	21317
886.275	21123
886.4	21020
886.525	21032
886.65	20872
886.775	20701
886.9	20883
887.025	20998
887.149	20670
887.274	20564
887.399	20358
887.523	20381
887.648	20221
887.773	20191
887.897	20320
888.021	20237
888.146	20073
888.27	20202
888.395	20263
888.519	20005
888.643	19932
888.767	20050
888.891	19860
889.015	19689
889.139	19757
889.263	19575
889.387	19818
889.511	19856
889.635	19742
889.759	19556
889.883	19594
890.006	19643
890.13	19685
890.254	19388
890.377	19285
890.501	19225
890.624	19168
890.748	19320
890.871	19198
890.995	18996
891.118	18848
891.241	18928
891.364	18913
891.488	19053
891.611	18886
891.734	18958
891.857	18924
891.98	18970
892.103	18852
892.226	19038
892.349	18848
892.471	18707
892.594	18684
892.717	18681
892.839	18635
892.962	18768
893.085	18741
893.207	18616
893.33	18574
893.452	18521
893.575	18521
893.697	18483
893.819	18711
893.941	18837
894.064	18681
894.186	18456
894.308	18475
894.43	18589
894.552	18604
894.674	18620
894.796	18448
894.918	18475
895.04	18452
895.161	18536
895.283	18330
895.405	18292
895.526	18429
895.648	18376
895.769	18399
895.891	18376
896.012	18426
896.134	18452
896.255	18426
896.376	18292
896.498	18369
896.619	18388
896.74	18319
896.861	18483
896.982	18722
897.103	18859
897.224	18612
897.345	18498
897.466	18589
897.587	18597
897.708	18623
897.828	18582
897.949	18559
898.07	18403
898.19	18540
898.311	18566
898.431	18551
898.552	18555
898.672	18608
898.792	18692
898.913	18547
899.033	18429
899.153	18338
899.273	18319
899.393	18334
899.513	18391
899.633	18304
899.753	18167
899.873	18292
899.993	18486
900.113	18300
900.232	18311
900.352	18285
900.472	18197
900.591	18155
900.711	18224
900.83	18125
900.95	18224
901.069	18174
901.189	18087
901.308	17798
901.427	17737
901.546	17790
901.665	17813
901.784	17775
901.904	17581
902.023	17539
902.141	17235
902.26	17200
902.379	17284
902.498	17242
902.617	17140
902.735	17216
902.854	17147
902.973	17033
903.091	16869
903.21	16774
903.328	16786
903.446	16702
903.565	16641
903.683	16656
903.801	16527
903.919	16558
904.038	16668
904.156	16455
904.274	16500
904.392	16375
904.51	16356
904.627	16386
904.745	16421
904.863	16360
904.981	16185
905.098	15930
905.216	16051
905.334	16086
905.451	16010
905.569	15998
905.686	16082
905.803	15941
905.921	15850
906.038	15888
906.155	15899
906.272	15701
906.389	15816
906.506	15530
906.623	15545
906.74	15557
906.857	15542
906.974	15450
907.091	15519
907.208	15652
907.324	15584
907.441	15504
907.557	15336
907.674	15294
907.79	15097
907.907	15211
908.023	15241
908.139	15321
908.256	15188
908.372	15070
908.488	15058
908.604	14979
908.72	14948
908.836	14986
908.952	14815
909.068	14982
909.184	14914
909.3	14948
909.415	14944
909.531	14883
909.647	14701
909.762	14655
909.878	14480
909.993	14689
910.108	14556
910.224	14636
910.339	14655
910.454	14583
910.57	14526
910.685	14374
910.8	14716
910.915	14617
911.03	14457
911.145	14317
911.259	14237
911.374	14298
911.489	14134
911.604	14096
911.718	14005
911.833	14069
911.947	13902
912.062	13871
912.176	14020
912.291	14031
912.405	14096
912.519	14191
912.633	14229
912.748	14062
912.862	14050
912.976	13788
913.09	13807
913.204	13868
913.318	13833
913.431	13890
913.545	13959
913.659	13947
913.772	13788
913.886	13700
914	13613
914.113	13776
914.226	13818
914.34	13765
914.453	13628
914.566	13742
914.68	13677
914.793	13639
914.906	13365
915.019	13331
915.132	13301
915.245	13354
915.358	13384
915.47	13388
915.583	13354
915.696	13415
915.809	13438
915.921	13582
916.034	13339
916.146	13308
916.259	13202
916.371	13453
916.483	13377
916.595	13274
916.708	13346
916.82	13213
916.932	13266
917.044	13175
917.156	13225
917.268	13141
917.38	13152
917.491	12970
917.603	13194
917.715	13247
917.826	13236
917.938	13019
918.049	12932
918.161	13118
918.272	13137
918.384	13164
918.495	13031
918.606	12947
918.717	12802
918.828	12905
918.939	12894
919.05	12829
919.161	12814
919.272	12589
919.383	12768
919.494	12867
919.604	13038
919.715	12764
919.826	12734
919.936	12810
920.047	12993
920.157	12787
920.267	12932
920.378	12821
920.488	12753
920.598	12943
920.708	13168
920.818	12947
920.928	12985
921.038	13122
921.148	13099
921.258	12821
921.368	12726
921.477	12642
921.587	12555
921.697	12391
921.806	12570
921.916	12486
922.025	12277
922.134	12224
922.244	12270
922.353	12232
922.462	12194
922.571	12102
922.68	11969
922.789	11961
922.898	11954
923.007	11824
923.116	11882
923.224	11840
923.333	11805
923.442	11771
923.55	11771
923.659	11798
923.767	11847
923.876	11710
923.984	11752
924.092	11646
924.201	11649
924.309	11672
924.417	11710
924.525	11619
924.633	11668
924.741	12418
924.849	11383
924.956	11520
925.064	11501
925.172	11315
925.279	11417
925.387	11410
925.494	11429
925.602	11539
925.709	11455
925.816	11410
925.924	11391
926.031	11520
926.138	11414
926.245	11501
926.352	11273
926.459	11414
926.566	11425
926.673	11417
926.779	11189
926.886	11231
926.993	11113
927.099	11010
927.206	11056
927.312	10949
927.419	11060
927.525	10991
927.631	11128
927.737	10892
927.843	10854
927.95	10900
928.056	10869
928.162	10850
928.267	10938
928.373	11444
928.479	10984
928.585	10694
928.69	10911
928.796	10820
928.901	10698
929.007	10611
929.112	10835
929.218	10740
929.323	10759
929.428	10668
929.533	10786
929.638	10641
929.743	10535
929.848	10615
929.953	10596
930.058	10527
930.163	10413
930.267	10348
930.372	10447
930.477	10318
930.581	10527
930.685	10413
930.79	10272
930.894	10322
930.998	10253
931.103	10363
931.207	9998
931.311	10017
931.415	9846
931.519	9686
931.623	9698
