Data from test_V78500241_1218.txt Node
Date: Fri Mar 25 14:42:11 CST 2022
User: usil
Spectrometer: V785-0024
Trigger mode: 0
Integration Time (sec): 4.000000E-1
Scans to average: 1
Nonlinearity correction enabled: false
Boxcar width: 0
Storing dark spectrum: false
XAxis mode: Wavelengths
Number of Pixels in Spectrum: 1024
>>>>>Begin Spectral Data<<<<<
801.071	22485
801.214	22348
801.356	21892
801.499	21899
801.641	21751
801.783	21675
801.926	21629
802.068	21762
802.211	21606
802.353	21466
802.496	21431
802.638	21226
802.78	21241
802.923	21039
803.065	21108
803.208	20998
803.35	21028
803.492	21184
803.635	21180
803.777	21024
803.919	21180
804.061	21500
804.204	21119
804.346	21089
804.488	20883
804.63	21081
804.773	20834
804.915	20918
805.057	21104
805.199	20914
805.341	21039
805.483	21230
805.626	21104
805.768	20952
805.91	21009
806.052	20990
806.194	20929
806.336	21138
806.478	21077
806.62	20963
806.762	20975
806.904	21218
807.046	21507
807.188	21310
807.33	21294
807.472	21382
807.614	21256
807.756	21462
807.898	21116
808.04	21192
808.182	21192
808.324	21154
808.465	21142
808.607	21306
808.749	21610
808.891	21568
809.033	21606
809.174	21583
809.316	21420
809.458	21530
809.6	21397
809.741	21485
809.883	21485
810.025	21519
810.166	21591
810.308	21629
810.45	21458
810.591	21583
810.733	21294
810.875	21214
811.016	21123
811.158	21180
811.299	21294
811.441	21382
811.582	21336
811.724	21245
811.865	21184
812.007	21237
812.148	21252
812.29	21173
812.431	21443
812.573	21466
812.714	21572
812.855	21622
812.997	21759
813.138	21861
813.279	21846
813.421	21694
813.562	21709
813.703	21348
813.845	21310
813.986	21093
814.127	20891
814.268	20823
814.41	20811
814.551	20765
814.692	20781
814.833	20708
814.974	20689
815.115	20708
815.256	20495
815.397	20541
815.539	20659
815.68	20389
815.821	20488
815.962	20393
816.103	20423
816.244	20389
816.385	20290
816.526	20267
816.666	20058
816.807	20005
816.948	20073
817.089	20115
817.23	19890
817.371	19944
817.512	19753
817.653	19894
817.793	19753
817.934	19932
818.075	19936
818.216	19879
818.356	19830
818.497	19681
818.638	19514
818.778	19594
818.919	19556
819.06	19590
819.2	19753
819.341	19734
819.481	19818
819.622	19833
819.762	20039
819.903	19978
820.043	19955
820.184	19868
820.324	19788
820.465	19993
820.605	19830
820.746	19845
820.886	19791
821.026	19822
821.167	19849
821.307	19906
821.447	19837
821.588	19658
821.728	19491
821.868	19369
822.008	19362
822.149	19297
822.289	19080
822.429	18973
822.569	18981
822.709	18993
822.849	18863
822.99	18787
823.13	18814
823.27	18741
823.41	18692
823.55	18528
823.69	18677
823.83	18642
823.97	18563
824.11	18395
824.25	18388
824.389	18452
824.529	18391
824.669	18357
824.809	18479
824.949	18513
825.089	18585
825.228	18414
825.368	18205
825.508	18243
825.648	18254
825.787	18281
825.927	18224
826.067	18174
826.206	18152
826.346	18300
826.485	18133
826.625	18209
826.765	18285
826.904	18133
827.044	18087
827.183	17840
827.323	17775
827.462	17904
827.601	17798
827.741	17836
827.88	17855
828.02	17718
828.159	17813
828.298	17840
828.437	17912
828.577	17733
828.716	18011
828.855	17779
828.994	17581
829.134	17699
829.273	17619
829.412	17474
829.551	17528
829.69	17638
829.829	17634
829.968	17775
830.107	17718
830.246	17657
830.385	17623
830.524	17528
830.663	17406
830.802	17322
830.941	17189
831.08	17277
831.219	17341
831.357	17273
831.496	17577
831.635	17113
831.774	17105
831.913	17170
832.051	17041
832.19	16999
832.329	17075
832.467	16957
832.606	16889
832.744	16858
832.883	17048
833.022	16911
833.16	16923
833.299	17045
833.437	16911
833.576	16984
833.714	17010
833.852	17014
833.991	16991
834.129	17128
834.267	17014
834.406	17033
834.544	16961
834.682	17056
834.821	17060
834.959	17193
835.097	16927
835.235	17071
835.373	17079
835.511	17010
835.65	16972
835.788	16946
835.926	16752
836.064	16710
836.202	16744
836.34	16938
836.478	17045
836.615	16869
836.753	16919
836.891	16961
837.029	16877
837.167	16965
837.305	16896
837.443	16820
837.58	16805
837.718	16885
837.856	16847
837.993	16721
838.131	16812
838.269	16672
838.406	16733
838.544	16641
838.681	16466
838.819	16504
838.956	16291
839.094	16223
839.231	16375
839.369	16504
839.506	16626
839.643	16603
839.781	16386
839.918	16287
840.055	16257
840.193	16280
840.33	16276
840.467	16295
840.604	16527
840.742	16466
840.879	16204
841.016	16204
841.153	16204
841.29	16356
841.427	16337
841.564	16363
841.701	16421
841.838	16246
841.975	16261
842.112	16169
842.249	16192
842.385	16055
842.522	16318
842.659	16063
842.796	16082
842.933	16135
843.069	16082
843.206	16120
843.343	16185
843.479	16116
843.616	16185
843.752	15915
843.889	15968
844.025	16036
844.162	15857
844.298	15979
844.435	15869
844.571	15899
844.708	15960
844.844	16010
844.98	16013
845.117	15949
845.253	15831
845.389	15732
845.525	15880
845.661	15770
845.798	15671
845.934	15800
846.07	15743
846.206	15854
846.342	15823
846.478	15736
846.614	15553
846.75	15458
846.886	15496
847.022	15561
847.158	15435
847.294	15435
847.429	15515
847.565	15306
847.701	15641
847.837	15256
847.972	15173
848.108	15336
848.244	15291
848.379	15142
848.515	15108
848.65	14982
848.786	15036
848.921	15093
849.057	15116
849.192	15138
849.328	15055
849.463	15039
849.598	15055
849.734	14906
849.869	14872
850.004	14944
850.14	14891
850.275	14746
850.41	14815
850.545	14769
850.68	14815
850.815	14857
850.95	14864
851.085	14960
851.22	14891
851.355	14864
851.49	14769
851.625	14785
851.76	14781
851.895	14762
852.03	14743
852.165	14765
852.299	14807
852.434	14929
852.569	14902
852.703	14762
852.838	14941
852.973	14967
853.107	15009
853.242	14765
853.376	14716
853.511	14613
853.645	14537
853.78	14731
853.914	14746
854.048	14625
854.183	14663
854.317	14689
854.451	14811
854.585	14644
854.72	14617
854.854	14716
854.988	14575
855.122	14727
855.256	14530
855.39	14758
855.524	14705
855.658	14705
855.792	14727
855.926	14655
856.06	14762
856.194	14819
856.327	14682
856.461	14636
856.595	14617
856.729	14674
856.862	14773
856.996	14610
857.13	14773
857.263	14758
857.397	14823
857.53	14724
857.664	14845
857.797	14804
857.931	14883
858.064	14826
858.197	14815
858.331	14667
858.464	14617
858.597	14613
858.731	14629
858.864	14796
858.997	14522
859.13	14644
859.263	14678
859.396	14743
859.529	14670
859.662	14594
859.795	14571
859.928	14724
860.061	14781
860.194	14914
860.327	14785
860.46	14678
860.592	14708
860.725	14811
860.858	14819
860.99	14659
861.123	14625
861.256	14697
861.388	14781
861.521	15412
861.653	14514
861.786	14568
861.918	14598
862.05	14617
862.183	14579
862.315	14659
862.447	14731
862.58	14560
862.712	14412
862.844	14400
862.976	14507
863.108	14480
863.24	14861
863.372	14427
863.504	14419
863.636	14454
863.768	14518
863.9	14454
864.032	14415
864.164	14465
864.296	14438
864.428	14587
864.559	14541
864.691	14560
864.823	14583
864.954	14526
865.086	14461
865.217	14480
865.349	14343
865.48	14507
865.612	14530
865.743	14587
865.875	14518
866.006	14393
866.137	14415
866.269	14484
866.4	14469
866.531	14374
866.662	14404
866.793	14412
866.924	14469
867.055	14415
867.186	14484
867.317	14404
867.448	14457
867.579	14355
867.71	14259
867.841	14324
867.972	14488
868.103	14412
868.233	14434
868.364	14473
868.495	14571
868.625	14621
868.756	14746
868.886	14564
869.017	14720
869.147	14724
869.278	14769
869.408	14648
869.539	14670
869.669	14746
869.799	14724
869.929	14785
870.06	14823
870.19	14960
870.32	14975
870.45	15043
870.58	15055
870.71	15184
870.84	15203
870.97	15116
871.1	15116
871.23	15237
871.36	15199
871.489	15249
871.619	15252
871.749	15275
871.879	15298
872.008	15382
872.138	15173
872.267	15256
872.397	15097
872.526	15138
872.656	15070
872.785	15169
872.915	15283
873.044	15310
873.173	15245
873.303	15310
873.432	15458
873.561	15477
873.69	15359
873.819	15393
873.948	15313
874.077	15370
874.206	15256
874.335	15378
874.464	15568
874.593	15641
874.722	15587
874.851	15648
874.979	15690
875.108	15720
875.237	15675
875.365	15526
875.494	15667
875.623	15633
875.751	15686
875.88	15720
876.008	15720
876.136	15827
876.265	16017
876.393	16177
876.521	16147
876.65	16177
876.778	16040
876.906	16010
877.034	16025
877.162	16006
877.29	15968
877.418	16063
877.546	16040
877.674	16112
877.802	16025
877.93	16063
878.058	15968
878.185	15876
878.313	16040
878.441	16063
878.568	15918
878.696	16086
878.824	16097
878.951	16200
879.079	16348
879.206	16333
879.333	16325
879.461	16226
879.588	16246
879.715	16329
879.842	16325
879.97	16116
880.097	16006
880.224	15895
880.351	15994
880.478	15899
880.605	15922
880.732	15926
880.859	16150
880.986	15937
881.112	15899
881.239	15759
881.366	15694
881.493	15599
881.619	15618
881.746	15648
881.872	15637
881.999	15652
882.125	15488
882.252	15667
882.378	15568
882.505	15717
882.631	15439
882.757	15367
882.883	15500
883.01	15367
883.136	15355
883.262	15237
883.388	15260
883.514	15420
883.64	15538
883.766	15374
883.892	15252
884.018	15275
884.143	15420
884.269	15515
884.395	15222
884.52	15131
884.646	15104
884.772	15062
884.897	15024
885.023	15173
885.148	15214
885.274	15207
885.399	15192
885.524	15165
885.65	15047
885.775	15173
885.9	15146
886.025	15218
886.15	15169
886.275	15001
886.4	15005
886.525	14994
886.65	14975
886.775	14986
886.9	15332
887.025	15378
887.149	15119
887.274	15020
887.399	14933
887.523	14990
887.648	15024
887.773	14834
887.897	14998
888.021	14906
888.146	14891
888.27	15058
888.395	15005
888.519	15020
888.643	14982
888.767	15017
888.891	14777
889.015	14830
889.139	14868
889.263	14796
889.387	15013
889.511	14998
889.635	14933
889.759	14739
889.883	14754
890.006	14868
890.13	14918
890.254	14762
890.377	14724
890.501	14621
890.624	14488
890.748	14716
890.871	14434
890.995	14336
891.118	14366
891.241	14480
891.364	14568
891.488	14613
891.611	14473
891.734	14480
891.857	14560
891.98	14507
892.103	14590
892.226	14556
892.349	14484
892.471	14317
892.594	14473
892.717	14419
892.839	14446
892.962	14587
893.085	14530
893.207	14522
893.33	14415
893.452	14495
893.575	14526
893.697	14533
893.819	14648
893.941	14663
894.064	14640
894.186	14457
894.308	14434
894.43	14526
894.552	14640
894.674	14495
894.796	14461
894.918	14507
895.04	14412
895.161	14594
895.283	14640
895.405	14461
895.526	14530
895.648	14640
895.769	14598
895.891	14537
896.012	14693
896.134	14667
896.255	14594
896.376	14636
896.498	14636
896.619	14640
896.74	14648
896.861	14697
896.982	14906
897.103	14960
897.224	14910
897.345	14941
897.466	14880
897.587	14823
897.708	15036
897.828	14952
897.949	14880
898.07	14788
898.19	14819
898.311	15020
898.431	14895
898.552	14891
898.672	14990
898.792	15108
898.913	14944
899.033	14826
899.153	14861
899.273	14750
899.393	14811
899.513	14868
899.633	14815
899.753	14899
899.873	14788
899.993	14861
900.113	14861
900.232	14918
900.352	14754
900.472	14705
900.591	14659
900.711	14632
900.83	14564
900.95	14769
901.069	14788
901.189	14514
901.308	14419
901.427	14374
901.546	14415
901.665	14465
901.784	14450
901.904	14206
902.023	14134
902.141	13947
902.26	13967
902.379	14096
902.498	13902
902.617	13864
902.735	13982
902.854	13860
902.973	13833
903.091	13582
903.21	13662
903.328	13609
903.446	13597
903.565	13480
903.683	13480
903.801	13411
903.919	13495
904.038	13396
904.156	13324
904.274	13365
904.392	13327
904.51	13263
904.627	13255
904.745	13354
904.863	13445
904.981	13084
905.098	13004
905.216	13019
905.334	12973
905.451	12993
905.569	13061
905.686	12913
905.803	12958
905.921	12806
906.038	12886
906.155	12734
906.272	12707
906.389	12722
906.506	12589
906.623	12585
906.74	12563
906.857	12437
906.974	12559
907.091	12662
907.208	12722
907.324	12589
907.441	12528
907.557	12304
907.674	12323
907.79	12251
907.907	12262
908.023	12350
908.139	12281
908.256	12235
908.372	12243
908.488	12281
908.604	12049
908.72	11984
908.836	12129
908.952	12003
909.068	12098
909.184	12190
909.3	12072
909.415	12133
909.531	12057
909.647	11798
909.762	11847
909.878	11805
909.993	11832
910.108	11843
910.224	11836
910.339	11802
910.454	11794
910.57	11688
910.685	11630
910.8	11889
910.915	11843
911.03	11756
911.145	11490
911.259	11524
911.374	11577
911.489	11452
911.604	11425
911.718	11360
911.833	11299
911.947	11128
912.062	11124
912.176	11280
912.291	11280
912.405	11296
912.519	11436
912.633	11421
912.748	11387
912.862	11368
912.976	11132
913.09	11064
913.204	11102
913.318	11143
913.431	11223
913.545	11273
913.659	11402
913.772	11197
913.886	11022
914	11033
914.113	11174
914.226	11151
914.34	11178
914.453	10949
914.566	11086
914.68	10972
914.793	10991
914.906	10797
915.019	10755
915.132	10771
915.245	10702
915.358	10809
915.47	10809
915.583	10797
915.696	10805
915.809	10885
915.921	10961
916.034	10816
916.146	10672
916.259	10744
916.371	10831
916.483	10835
916.595	10656
916.708	10706
916.82	10736
916.932	10653
917.044	10672
917.156	10607
917.268	10596
917.38	10622
917.491	10535
917.603	10622
917.715	10649
917.826	10660
917.938	10538
918.049	10424
918.161	10584
918.272	10805
918.384	10653
918.495	10565
918.606	10500
918.717	10333
918.828	10527
918.939	10417
919.05	10432
919.161	10443
919.272	10284
919.383	10227
919.494	10584
919.604	10668
919.715	10508
919.826	10360
919.936	10470
920.047	10489
920.157	10462
920.267	10653
920.378	10611
920.488	10474
920.598	10675
920.708	10771
920.818	10668
920.928	10714
921.038	10767
921.148	10767
921.258	10554
921.368	10394
921.477	10268
921.587	10428
921.697	10253
921.806	10333
921.916	10337
922.025	10105
922.134	10017
922.244	10013
922.353	10097
922.462	9876
922.571	9770
922.68	9755
922.789	9618
922.898	9755
923.007	9644
923.116	9732
923.224	9732
923.333	9701
923.442	9690
923.55	9572
923.659	9694
923.767	9656
923.876	9625
923.984	9625
924.092	9515
924.201	9572
924.309	9587
924.417	9584
924.525	9553
924.633	9564
924.741	10242
924.849	9306
924.956	9469
925.064	9351
925.172	9351
925.279	9351
925.387	9389
925.494	9298
925.602	9428
925.709	9492
925.816	9298
925.924	9363
926.031	9485
926.138	9359
926.245	9355
926.352	9188
926.459	9428
926.566	9435
926.673	9287
926.779	9291
926.886	9195
926.993	9070
927.099	9074
927.206	9055
927.312	8990
927.419	9100
927.525	9077
927.631	9135
927.737	9024
927.843	8944
927.95	8815
928.056	8963
928.162	8925
928.267	9036
928.373	9614
928.479	9009
928.585	8864
928.69	8979
928.796	8952
928.901	8830
929.007	8766
929.112	8899
929.218	8834
929.323	8842
929.428	8781
929.533	8902
929.638	8724
929.743	8735
929.848	8739
929.953	8731
930.058	8632
930.163	8552
930.267	8480
930.372	8651
930.477	8507
930.581	8781
930.685	8617
930.79	8469
930.894	8469
930.998	8488
931.103	8655
931.207	8301
931.311	8199
931.415	8176
931.519	7894
931.623	7894
