Data from test_V78500241_2654.txt Node
Date: Fri Mar 25 14:52:11 CST 2022
User: usil
Spectrometer: V785-0024
Trigger mode: 0
Integration Time (sec): 4.000000E-1
Scans to average: 1
Nonlinearity correction enabled: false
Boxcar width: 0
Storing dark spectrum: false
XAxis mode: Wavelengths
Number of Pixels in Spectrum: 1024
>>>>>Begin Spectral Data<<<<<
801.071	22010
801.214	21781
801.356	21713
801.499	21549
801.641	21488
801.783	21351
801.926	21496
802.068	21329
802.211	21275
802.353	21135
802.496	20861
802.638	20944
802.78	20796
802.923	20857
803.065	20686
803.208	20720
803.35	20644
803.492	20826
803.635	20986
803.777	20670
803.919	20781
804.061	21062
804.204	20781
804.346	20571
804.488	20522
804.63	20693
804.773	20469
804.915	20659
805.057	20769
805.199	20625
805.341	20625
805.483	20708
805.626	20640
805.768	20655
805.91	20682
806.052	20609
806.194	20434
806.336	20735
806.478	20625
806.62	20613
806.762	20746
806.904	20773
807.046	21119
807.188	20921
807.33	20838
807.472	20902
807.614	20883
807.756	20853
807.898	20727
808.04	20667
808.182	20613
808.324	20731
808.465	20697
808.607	20830
808.749	21005
808.891	21051
809.033	21192
809.174	21116
809.316	20883
809.458	21009
809.6	20857
809.741	21051
809.883	21085
810.025	21119
810.166	21157
810.308	21184
810.45	21020
810.591	20982
810.733	20986
810.875	20861
811.016	20697
811.158	20602
811.299	20788
811.441	20861
811.582	20864
811.724	20792
811.865	20636
812.007	20735
812.148	20754
812.29	20739
812.431	20845
812.573	21055
812.714	21081
812.855	21131
812.997	21298
813.138	21477
813.279	21249
813.421	21146
813.562	21173
813.703	20864
813.845	20834
813.986	20674
814.127	20450
814.268	20278
814.41	20396
814.551	20415
814.692	20286
814.833	20233
814.974	20267
815.115	20244
815.256	20005
815.397	20172
815.539	20039
815.68	20073
815.821	19947
815.962	20039
816.103	19963
816.244	19833
816.385	19780
816.526	19772
816.666	19457
816.807	19365
816.948	19521
817.089	19426
817.23	19552
817.371	19441
817.512	19422
817.653	19556
817.793	19282
817.934	19464
818.075	19373
818.216	19434
818.356	19396
818.497	19244
818.638	19042
818.778	19107
818.919	19114
819.06	19137
819.2	19145
819.341	19289
819.481	19369
819.622	19403
819.762	19666
819.903	19495
820.043	19495
820.184	19445
820.324	19419
820.465	19540
820.605	19441
820.746	19476
820.886	19194
821.026	19373
821.167	19274
821.307	19453
821.447	19289
821.588	19247
821.728	19133
821.868	19076
822.008	18760
822.149	18802
822.289	18825
822.429	18612
822.569	18521
822.709	18475
822.849	18384
822.99	18346
823.13	18262
823.27	18311
823.41	18129
823.55	18121
823.69	18186
823.83	18117
823.97	18129
824.11	17855
824.25	17843
824.389	17927
824.529	18011
824.669	17882
824.809	18034
824.949	18072
825.089	17973
825.228	17874
825.368	17764
825.508	17783
825.648	17775
825.787	17832
825.927	17775
826.067	17573
826.206	17615
826.346	17748
826.485	17680
826.625	17699
826.765	17760
826.904	17634
827.044	17471
827.183	17433
827.323	17337
827.462	17524
827.601	17448
827.741	17414
827.88	17376
828.02	17284
828.159	17387
828.298	17463
828.437	17448
828.577	17459
828.716	17512
828.855	17269
828.994	17223
829.134	17181
829.273	17204
829.412	17181
829.551	17147
829.69	17124
829.829	17143
829.968	17212
830.107	17212
830.246	17143
830.385	17162
830.524	17090
830.663	16961
830.802	16877
830.941	16790
831.08	16786
831.219	16759
831.357	16896
831.496	16911
831.635	16774
831.774	16713
831.913	16668
832.051	16577
832.19	16607
832.329	16588
832.467	16519
832.606	16485
832.744	16424
832.883	16519
833.022	16527
833.16	16409
833.299	16459
833.437	16504
833.576	16630
833.714	16519
833.852	16546
833.991	16569
834.129	16554
834.267	16622
834.406	16459
834.544	16573
834.682	16596
834.821	16500
834.959	16713
835.097	16538
835.235	16615
835.373	16577
835.511	16504
835.65	16474
835.788	16421
835.926	16436
836.064	16280
836.202	16276
836.34	16546
836.478	16447
836.615	16421
836.753	16481
836.891	16432
837.029	16508
837.167	16341
837.305	16413
837.443	16394
837.58	16329
837.718	16417
837.856	16329
837.993	16158
838.131	16432
838.269	16185
838.406	16196
838.544	16188
838.681	16135
838.819	15937
838.956	15816
839.094	15759
839.231	15915
839.369	16010
839.506	16219
839.643	16078
839.781	15926
839.918	15838
840.055	15934
840.193	15812
840.33	15759
840.467	15861
840.604	16002
840.742	16036
840.879	15812
841.016	15728
841.153	15781
841.29	15945
841.427	16029
841.564	15869
841.701	15968
841.838	15816
841.975	15751
842.112	15766
842.249	15728
842.385	15724
842.522	15869
842.659	15648
842.796	15595
842.933	15717
843.069	15610
843.206	15656
843.343	15762
843.479	15629
843.616	15751
843.752	15477
843.889	15507
844.025	15633
844.162	15428
844.298	15557
844.435	15443
844.571	15382
844.708	15500
844.844	15568
844.98	15603
845.117	15530
845.253	15310
845.389	15230
845.525	15332
845.661	15283
845.798	15283
845.934	15268
846.07	15150
846.206	15340
846.342	15310
846.478	15176
846.614	15097
846.75	14910
846.886	14975
847.022	15100
847.158	15043
847.294	14998
847.429	15047
847.565	14994
847.701	15252
847.837	14838
847.972	14705
848.108	14853
848.244	14838
848.379	14674
848.515	14590
848.65	14655
848.786	14587
848.921	14503
849.057	14678
849.192	14716
849.328	14705
849.463	14678
849.598	14549
849.734	14556
849.869	14457
850.004	14400
850.14	14339
850.275	14294
850.41	14275
850.545	14324
850.68	14393
850.815	14396
850.95	14499
851.085	14541
851.22	14450
851.355	14362
851.49	14328
851.625	14305
851.76	14438
851.895	14290
852.03	14237
852.165	14431
852.299	14461
852.434	14408
852.569	14305
852.703	14358
852.838	14442
852.973	14503
853.107	14469
853.242	14290
853.376	14244
853.511	14157
853.645	14229
853.78	14294
853.914	14259
854.048	14248
854.183	14111
854.317	14218
854.451	14370
854.585	14275
854.72	14237
854.854	14244
854.988	14145
855.122	14199
855.256	14107
855.39	14153
855.524	14317
855.658	14324
855.792	14351
855.926	14317
856.06	14298
856.194	14256
856.327	14263
856.461	14172
856.595	14149
856.729	14130
856.862	14332
856.996	14267
857.13	14336
857.263	14282
857.397	14393
857.53	14271
857.664	14263
857.797	14263
857.931	14332
858.064	14317
858.197	14366
858.331	14214
858.464	14218
858.597	14123
858.731	14187
858.864	14259
858.997	14206
859.13	14343
859.263	14267
859.396	14476
859.529	14267
859.662	14172
859.795	14248
859.928	14237
860.061	14408
860.194	14522
860.327	14313
860.46	14305
860.592	14339
860.725	14355
860.858	14320
860.99	14180
861.123	14237
861.256	14168
861.388	14290
861.521	14853
861.653	14180
861.786	14012
861.918	14130
862.05	14081
862.183	14145
862.315	14244
862.447	14240
862.58	14233
862.712	14039
862.844	13978
862.976	14062
863.108	14073
863.24	14355
863.372	13978
863.504	14058
863.636	13940
863.768	14126
863.9	14092
864.032	13982
864.164	14024
864.296	14012
864.428	14134
864.559	14252
864.691	14145
864.823	14096
864.954	14054
865.086	14050
865.217	13898
865.349	13906
865.48	14012
865.612	13989
865.743	14199
865.875	14054
866.006	13959
866.137	14008
866.269	14020
866.4	13921
866.531	13959
866.662	13856
866.793	13974
866.924	13890
867.055	13997
867.186	14012
867.317	13978
867.448	13951
867.579	13871
867.71	13925
867.841	13887
867.972	13955
868.103	13932
868.233	14065
868.364	14054
868.495	14142
868.625	14294
868.756	14385
868.886	14096
869.017	14172
869.147	14450
869.278	14336
869.408	14233
869.539	14317
869.669	14332
869.799	14370
869.929	14412
870.06	14351
870.19	14598
870.32	14579
870.45	14648
870.58	14533
870.71	14735
870.84	14777
870.97	14518
871.1	14583
871.23	14887
871.36	14857
871.489	14724
871.619	14914
871.749	14834
871.879	14815
872.008	14967
872.138	14880
872.267	14948
872.397	14765
872.526	14712
872.656	14632
872.785	14796
872.915	14883
873.044	15009
873.173	14823
873.303	14921
873.432	14982
873.561	15058
873.69	14937
873.819	14861
873.948	14944
874.077	14887
874.206	14834
874.335	14998
874.464	15077
874.593	15256
874.722	15097
874.851	15188
874.979	15237
875.108	15264
875.237	15127
875.365	15180
875.494	15184
875.623	15260
875.751	15188
875.88	15199
876.008	15355
876.136	15526
876.265	15625
876.393	15911
876.521	15713
876.65	15652
876.778	15690
876.906	15675
877.034	15576
877.162	15667
877.29	15599
877.418	15675
877.546	15679
877.674	15637
877.802	15545
877.93	15622
878.058	15599
878.185	15481
878.313	15534
878.441	15587
878.568	15545
878.696	15515
878.824	15709
878.951	15720
879.079	15907
879.206	15915
879.333	15842
879.461	15694
879.588	15663
879.715	15895
879.842	15880
879.97	15835
880.097	15572
880.224	15408
880.351	15450
880.478	15450
880.605	15488
880.732	15534
880.859	15819
880.986	15587
881.112	15454
881.239	15424
881.366	15252
881.493	15310
881.619	15188
881.746	15142
881.872	15157
881.999	15074
882.125	15119
882.252	15279
882.378	15173
882.505	15249
882.631	15329
882.757	14861
882.883	15032
883.01	14967
883.136	14963
883.262	14880
883.388	14853
883.514	14952
883.64	15009
883.766	14861
883.892	14804
884.018	14815
884.143	14971
884.269	15066
884.395	14731
884.52	14655
884.646	14743
884.772	14590
884.897	14701
885.023	14682
885.148	14762
885.274	14762
885.399	14735
885.524	14659
885.65	14735
885.775	14598
885.9	14625
886.025	14804
886.15	14659
886.275	14750
886.4	14602
886.525	14617
886.65	14651
886.775	14522
886.9	14842
887.025	14895
887.149	14613
887.274	14545
887.399	14488
887.523	14514
887.648	14404
887.773	14347
887.897	14606
888.021	14636
888.146	14522
888.27	14579
888.395	14598
888.519	14465
888.643	14606
888.767	14575
888.891	14476
889.015	14393
889.139	14450
889.263	14385
889.387	14434
889.511	14469
889.635	14461
889.759	14282
889.883	14400
890.006	14366
890.13	14511
890.254	14202
890.377	14267
890.501	14142
890.624	14172
890.748	14336
890.871	14130
890.995	14035
891.118	14092
891.241	14206
891.364	14119
891.488	14221
891.611	13940
891.734	14008
891.857	14161
891.98	14081
892.103	14164
892.226	14229
892.349	14031
892.471	13913
892.594	14012
892.717	14153
892.839	14126
892.962	14111
893.085	14183
893.207	13993
893.33	13963
893.452	14020
893.575	14126
893.697	13963
893.819	14183
893.941	14275
894.064	14218
894.186	13989
894.308	14050
894.43	14172
894.552	14320
894.674	14218
894.796	14088
894.918	14134
895.04	14115
895.161	14294
895.283	14218
895.405	14046
895.526	14115
895.648	14142
895.769	14153
895.891	14202
896.012	14267
896.134	14210
896.255	14138
896.376	14183
896.498	14244
896.619	14233
896.74	14157
896.861	14305
896.982	14511
897.103	14720
897.224	14511
897.345	14480
897.466	14355
897.587	14362
897.708	14537
897.828	14533
897.949	14400
898.07	14385
898.19	14446
898.311	14579
898.431	14484
898.552	14659
898.672	14663
898.792	14716
898.913	14610
899.033	14484
899.153	14389
899.273	14267
899.393	14328
899.513	14434
899.633	14427
899.753	14438
899.873	14389
899.993	14431
900.113	14503
900.232	14442
900.352	14522
900.472	14298
900.591	14240
900.711	14408
900.83	14256
900.95	14434
901.069	14408
901.189	14199
901.308	14005
901.427	14016
901.546	14012
901.665	14012
901.784	14092
901.904	13833
902.023	13791
902.141	13639
902.26	13540
902.379	13677
902.498	13575
902.617	13548
902.735	13582
902.854	13590
902.973	13529
903.091	13324
903.21	13228
903.328	13217
903.446	13198
903.565	13091
903.683	13141
903.801	12973
903.919	13110
904.038	13095
904.156	12882
904.274	13069
904.392	12905
904.51	12913
904.627	12951
904.745	12970
904.863	13057
904.981	12681
905.098	12677
905.216	12646
905.334	12730
905.451	12574
905.569	12623
905.686	12688
905.803	12513
905.921	12384
906.038	12547
906.155	12452
906.272	12357
906.389	12410
906.506	12224
906.623	12216
906.74	12273
906.857	12121
906.974	12152
907.091	12323
907.208	12346
907.324	12285
907.441	12068
907.557	11980
907.674	11889
907.79	11866
907.907	11885
908.023	11916
908.139	11958
908.256	11954
908.372	11824
908.488	11859
908.604	11684
908.72	11665
908.836	11767
908.952	11642
909.068	11767
909.184	11874
909.3	11733
909.415	11805
909.531	11802
909.647	11535
909.762	11372
909.878	11482
909.993	11486
910.108	11482
910.224	11524
910.339	11532
910.454	11406
910.57	11402
910.685	11227
910.8	11543
910.915	11501
911.03	11391
911.145	11250
911.259	11242
911.374	11227
911.489	11128
911.604	11136
911.718	10957
911.833	11029
911.947	10801
912.062	10786
912.176	10923
912.291	11003
912.405	10984
912.519	11064
912.633	11128
912.748	11022
912.862	11018
912.976	10919
913.09	10793
913.204	10714
913.318	10820
913.431	10885
913.545	10938
913.659	10942
913.772	10816
913.886	10816
914	10679
914.113	10873
914.226	10824
914.34	10809
914.453	10691
914.566	10892
914.68	10656
914.793	10744
914.906	10455
915.019	10371
915.132	10455
915.245	10348
915.358	10424
915.47	10413
915.583	10390
915.696	10523
915.809	10523
915.921	10607
916.034	10504
916.146	10409
916.259	10348
916.371	10542
916.483	10485
916.595	10371
916.708	10398
916.82	10436
916.932	10478
917.044	10348
917.156	10280
917.268	10268
917.38	10295
917.491	10249
917.603	10337
917.715	10375
917.826	10386
917.938	10276
918.049	10158
918.161	10299
918.272	10516
918.384	10394
918.495	10253
918.606	10169
918.717	10032
918.828	10135
918.939	10223
919.05	10051
919.161	10219
919.272	9975
919.383	10013
919.494	10215
919.604	10409
919.715	10173
919.826	10071
919.936	10215
920.047	10295
920.157	10234
920.267	10325
920.378	10253
920.488	10116
920.598	10447
920.708	10603
920.818	10432
920.928	10428
921.038	10569
921.148	10394
921.258	10188
921.368	10105
921.477	10097
921.587	9983
921.697	9949
921.806	10021
921.916	9960
922.025	9800
922.134	9709
922.244	9690
922.353	9785
922.462	9656
922.571	9557
922.68	9408
922.789	9435
922.898	9412
923.007	9382
923.116	9428
923.224	9435
923.333	9408
923.442	9351
923.55	9325
923.659	9382
923.767	9450
923.876	9325
923.984	9424
924.092	9268
924.201	9256
924.309	9306
924.417	9367
924.525	9260
924.633	9287
924.741	9975
924.849	9100
924.956	9184
925.064	9066
925.172	9077
925.279	9020
925.387	9173
925.494	9154
925.602	9249
925.709	9226
925.816	9032
925.924	9055
926.031	9135
926.138	9192
926.245	9176
926.352	8990
926.459	9119
926.566	9207
926.673	9001
926.779	8933
926.886	8864
926.993	8834
927.099	8792
927.206	8819
927.312	8674
927.419	8834
927.525	8849
927.631	8853
927.737	8739
927.843	8746
927.95	8663
928.056	8674
928.162	8750
928.267	8731
928.373	9325
928.479	8792
928.585	8598
928.69	8743
928.796	8724
928.901	8621
929.007	8492
929.112	8648
929.218	8587
929.323	8530
929.428	8579
929.533	8667
929.638	8503
929.743	8514
929.848	8579
929.953	8499
930.058	8427
930.163	8237
930.267	8313
930.372	8400
930.477	8317
930.581	8552
930.685	8377
930.79	8271
930.894	8183
930.998	8259
931.103	8332
931.207	8084
931.311	7982
931.415	8012
931.519	7746
931.623	7746
