Data from test_V78500241_2165.txt Node
Date: Fri Mar 25 14:48:47 CST 2022
User: usil
Spectrometer: V785-0024
Trigger mode: 0
Integration Time (sec): 4.000000E-1
Scans to average: 1
Nonlinearity correction enabled: false
Boxcar width: 0
Storing dark spectrum: false
XAxis mode: Wavelengths
Number of Pixels in Spectrum: 1024
>>>>>Begin Spectral Data<<<<<
801.071	22135
801.214	22226
801.356	21808
801.499	21747
801.641	21542
801.783	21545
801.926	21595
802.068	21614
802.211	21416
802.353	21382
802.496	21096
802.638	21070
802.78	20963
802.923	20994
803.065	20925
803.208	20785
803.35	20998
803.492	20952
803.635	21001
803.777	20971
803.919	21043
804.061	21180
804.204	20872
804.346	20853
804.488	20796
804.63	20872
804.773	20689
804.915	20899
805.057	20921
805.199	20712
805.341	20876
805.483	20998
805.626	20921
805.768	20750
805.91	20838
806.052	20910
806.194	20720
806.336	20998
806.478	20773
806.62	20773
806.762	20804
806.904	20994
807.046	21283
807.188	21157
807.33	21131
807.472	21264
807.614	20986
807.756	20929
807.898	20864
808.04	20876
808.182	20876
808.324	20895
808.465	20979
808.607	21081
808.749	21230
808.891	21351
809.033	21268
809.174	21359
809.316	21154
809.458	21298
809.6	21188
809.741	21188
809.883	21348
810.025	21393
810.166	21462
810.308	21325
810.45	21222
810.591	21287
810.733	21104
810.875	20979
811.016	20910
811.158	20883
811.299	21020
811.441	21001
811.582	21085
811.724	20807
811.865	20830
812.007	20998
812.148	21074
812.29	20944
812.431	21028
812.573	21237
812.714	21504
812.855	21515
812.997	21447
813.138	21549
813.279	21606
813.421	21553
813.562	21306
813.703	21218
813.845	21062
813.986	20891
814.127	20796
814.268	20602
814.41	20609
814.551	20393
814.692	20632
814.833	20351
814.974	20457
815.115	20609
815.256	20431
815.397	20301
815.539	20450
815.68	20187
815.821	20233
815.962	20252
816.103	20176
816.244	20088
816.385	20081
816.526	19913
816.666	19818
816.807	19696
816.948	19765
817.089	19788
817.23	19715
817.371	19666
817.512	19776
817.653	19715
817.793	19651
817.934	19632
818.075	19658
818.216	19628
818.356	19601
818.497	19441
818.638	19373
818.778	19221
818.919	19384
819.06	19392
819.2	19495
819.341	19510
819.481	19601
819.622	19605
819.762	19875
819.903	19776
820.043	19757
820.184	19639
820.324	19563
820.465	19784
820.605	19712
820.746	19670
820.886	19518
821.026	19616
821.167	19609
821.307	19719
821.447	19571
821.588	19365
821.728	19369
821.868	19152
822.008	19053
822.149	19148
822.289	18928
822.429	18787
822.569	18753
822.709	18863
822.849	18589
822.99	18544
823.13	18585
823.27	18513
823.41	18414
823.55	18407
823.69	18475
823.83	18483
823.97	18308
824.11	18182
824.25	18167
824.389	18076
824.529	18190
824.669	18121
824.809	18201
824.949	18197
825.089	18197
825.228	18117
825.368	17908
825.508	17912
825.648	17942
825.787	17980
825.927	17969
826.067	17828
826.206	17904
826.346	17942
826.485	17847
826.625	17840
826.765	17969
826.904	17999
827.044	17646
827.183	17699
827.323	17600
827.462	17589
827.601	17642
827.741	17646
827.88	17695
828.02	17501
828.159	17589
828.298	17554
828.437	17748
828.577	17558
828.716	17592
828.855	17486
828.994	17330
829.134	17322
829.273	17467
829.412	17242
829.551	17337
829.69	17303
829.829	17322
829.968	17493
830.107	17433
830.246	17440
830.385	17353
830.524	17216
830.663	17109
830.802	17124
830.941	17014
831.08	16923
831.219	17098
831.357	17010
831.496	17151
831.635	16938
831.774	16885
831.913	16824
832.051	16790
832.19	16797
832.329	16843
832.467	16675
832.606	16702
832.744	16577
832.883	16603
833.022	16611
833.16	16630
833.299	16710
833.437	16706
833.576	16736
833.714	16736
833.852	16729
833.991	16694
834.129	16721
834.267	16767
834.406	16755
834.544	16763
834.682	16637
834.821	16733
834.959	16828
835.097	16733
835.235	16839
835.373	16649
835.511	16752
835.65	16698
835.788	16500
835.926	16424
836.064	16322
836.202	16485
836.34	16558
836.478	16675
836.615	16687
836.753	16664
836.891	16755
837.029	16656
837.167	16577
837.305	16596
837.443	16455
837.58	16432
837.718	16588
837.856	16443
837.993	16402
838.131	16531
838.269	16363
838.406	16390
838.544	16352
838.681	16105
838.819	16143
838.956	16036
839.094	15960
839.231	16029
839.369	16086
839.506	16299
839.643	16215
839.781	16040
839.918	15964
840.055	16040
840.193	16006
840.33	15930
840.467	15960
840.604	15930
840.742	16242
840.879	15953
841.016	15816
841.153	15930
841.29	16128
841.427	16017
841.564	16048
841.701	15994
841.838	15903
841.975	15918
842.112	15975
842.249	15857
842.385	15838
842.522	15915
842.659	15785
842.796	15770
842.933	15861
843.069	15865
843.206	15690
843.343	15983
843.479	15755
843.616	15819
843.752	15568
843.889	15511
844.025	15686
844.162	15603
844.298	15739
844.435	15663
844.571	15500
844.708	15610
844.844	15686
844.98	15701
845.117	15751
845.253	15576
845.389	15275
845.525	15564
845.661	15389
845.798	15386
845.934	15359
846.07	15279
846.206	15428
846.342	15549
846.478	15355
846.614	15055
846.75	15150
846.886	15066
847.022	15199
847.158	15173
847.294	15070
847.429	15161
847.565	15123
847.701	15462
847.837	14941
847.972	14929
848.108	14845
848.244	14944
848.379	14727
848.515	14727
848.65	14651
848.786	14765
848.921	14769
849.057	14788
849.192	14937
849.328	14724
849.463	14796
849.598	14720
849.734	14667
849.869	14511
850.004	14522
850.14	14632
850.275	14492
850.41	14454
850.545	14503
850.68	14415
850.815	14442
850.95	14518
851.085	14636
851.22	14564
851.355	14583
851.49	14377
851.625	14389
851.76	14351
851.895	14309
852.03	14385
852.165	14492
852.299	14438
852.434	14564
852.569	14568
852.703	14549
852.838	14629
852.973	14644
853.107	14708
853.242	14492
853.376	14332
853.511	14351
853.645	14366
853.78	14400
853.914	14408
854.048	14294
854.183	14309
854.317	14374
854.451	14488
854.585	14355
854.72	14328
854.854	14396
854.988	14343
855.122	14339
855.256	14256
855.39	14290
855.524	14400
855.658	14408
855.792	14355
855.926	14427
856.06	14454
856.194	14454
856.327	14282
856.461	14271
856.595	14294
856.729	14275
856.862	14343
856.996	14415
857.13	14400
857.263	14480
857.397	14442
857.53	14328
857.664	14431
857.797	14427
857.931	14492
858.064	14332
858.197	14465
858.331	14400
858.464	14271
858.597	14206
858.731	14381
858.864	14351
858.997	14343
859.13	14419
859.263	14393
859.396	14469
859.529	14294
859.662	14355
859.795	14351
859.928	14461
860.061	14469
860.194	14587
860.327	14427
860.46	14377
860.592	14404
860.725	14492
860.858	14571
860.99	14347
861.123	14275
861.256	14225
861.388	14336
861.521	14986
861.653	14271
861.786	14157
861.918	14180
862.05	14271
862.183	14366
862.315	14278
862.447	14404
862.58	14244
862.712	14111
862.844	14084
862.976	14183
863.108	14199
863.24	14415
863.372	14062
863.504	14092
863.636	14054
863.768	14221
863.9	14103
864.032	14069
864.164	14149
864.296	14225
864.428	14278
864.559	14237
864.691	14275
864.823	14153
864.954	14111
865.086	14157
865.217	14134
865.349	14081
865.48	14008
865.612	14145
865.743	14267
865.875	14115
866.006	14039
866.137	14107
866.269	14115
866.4	14153
866.531	14111
866.662	14062
866.793	14107
866.924	14149
867.055	14161
867.186	14084
867.317	14069
867.448	14058
867.579	14111
867.71	13947
867.841	14084
867.972	14134
868.103	14119
868.233	14054
868.364	14210
868.495	14191
868.625	14332
868.756	14381
868.886	14298
869.017	14320
869.147	14564
869.278	14492
869.408	14415
869.539	14385
869.669	14488
869.799	14450
869.929	14564
870.06	14480
870.19	14746
870.32	14743
870.45	14731
870.58	14758
870.71	14769
870.84	14861
870.97	14785
871.1	14750
871.23	14952
871.36	15005
871.489	14845
871.619	14853
871.749	14937
871.879	15024
872.008	15077
872.138	14963
872.267	15024
872.397	14849
872.526	14815
872.656	14845
872.785	14838
872.915	14971
873.044	14998
873.173	14998
873.303	15020
873.432	15089
873.561	15112
873.69	15024
873.819	14979
873.948	14998
874.077	15077
874.206	14944
874.335	14986
874.464	15150
874.593	15317
874.722	15272
874.851	15374
874.979	15291
875.108	15401
875.237	15291
875.365	15066
875.494	15298
875.623	15408
875.751	15310
875.88	15332
876.008	15557
876.136	15584
876.265	15663
876.393	15827
876.521	15831
876.65	15846
876.778	15762
876.906	15641
877.034	15625
877.162	15694
877.29	15637
877.418	15846
877.546	15641
877.674	15743
877.802	15663
877.93	15762
878.058	15656
878.185	15679
878.313	15694
878.441	15736
878.568	15599
878.696	15671
878.824	15739
878.951	15800
879.079	15854
879.206	16090
879.333	15975
879.461	15774
879.588	15873
879.715	15972
879.842	15994
879.97	15831
880.097	15648
880.224	15572
880.351	15606
880.478	15648
880.605	15481
880.732	15576
880.859	15819
880.986	15675
881.112	15606
881.239	15507
881.366	15408
881.493	15294
881.619	15211
881.746	15321
881.872	15245
881.999	15146
882.125	15173
882.252	15382
882.378	15275
882.505	15348
882.631	15157
882.757	15017
882.883	15199
883.01	15089
883.136	14990
883.262	14918
883.388	14921
883.514	15203
883.64	15146
883.766	15017
883.892	14967
884.018	14921
884.143	15036
884.269	15165
884.395	14899
884.52	14765
884.646	14849
884.772	14648
884.897	14651
885.023	14781
885.148	14891
885.274	14921
885.399	14819
885.524	14830
885.65	14838
885.775	14781
885.9	14667
886.025	14800
886.15	14815
886.275	14716
886.4	14571
886.525	14731
886.65	14765
886.775	14644
886.9	14979
887.025	14971
887.149	14765
887.274	14606
887.399	14518
887.523	14522
887.648	14461
887.773	14518
887.897	14663
888.021	14648
888.146	14552
888.27	14644
888.395	14712
888.519	14689
888.643	14644
888.767	14648
888.891	14606
889.015	14393
889.139	14503
889.263	14427
889.387	14610
889.511	14644
889.635	14583
889.759	14518
889.883	14457
890.006	14484
890.13	14530
890.254	14381
890.377	14457
890.501	14317
890.624	14191
890.748	14305
890.871	14183
890.995	14077
891.118	14081
891.241	14130
891.364	14092
891.488	14237
891.611	14187
891.734	14202
891.857	14187
891.98	14195
892.103	14088
892.226	14187
892.349	14027
892.471	13989
892.594	14073
892.717	14077
892.839	14062
892.962	14096
893.085	14233
893.207	14142
893.33	14058
893.452	14100
893.575	14218
893.697	14126
893.819	14355
893.941	14324
894.064	14259
894.186	14115
894.308	14123
894.43	14290
894.552	14400
894.674	14332
894.796	14054
894.918	14237
895.04	14153
895.161	14161
895.283	14286
895.405	14107
895.526	14161
895.648	14324
895.769	14278
895.891	14168
896.012	14377
896.134	14480
896.255	14339
896.376	14267
896.498	14271
896.619	14336
896.74	14339
896.861	14480
896.982	14663
897.103	14823
897.224	14552
897.345	14648
897.466	14587
897.587	14590
897.708	14712
897.828	14533
897.949	14530
898.07	14476
898.19	14541
898.311	14636
898.431	14621
898.552	14583
898.672	14590
898.792	14815
898.913	14705
899.033	14560
899.153	14484
899.273	14400
899.393	14514
899.513	14511
899.633	14598
899.753	14552
899.873	14522
899.993	14636
900.113	14492
900.232	14473
900.352	14442
900.472	14484
900.591	14374
900.711	14503
900.83	14396
900.95	14480
901.069	14480
901.189	14298
901.308	14096
901.427	14107
901.546	14039
901.665	14084
901.784	14088
901.904	13947
902.023	13837
902.141	13700
902.26	13655
902.379	13776
902.498	13605
902.617	13597
902.735	13712
902.854	13651
902.973	13628
903.091	13434
903.21	13392
903.328	13247
903.446	13308
903.565	13259
903.683	13103
903.801	13129
903.919	13240
904.038	13187
904.156	13050
904.274	13027
904.392	13031
904.51	13027
904.627	13046
904.745	13057
904.863	13023
904.981	12848
905.098	12673
905.216	12837
905.334	12719
905.451	12692
905.569	12764
905.686	12696
905.803	12711
905.921	12585
906.038	12681
906.155	12540
906.272	12426
906.389	12437
906.506	12266
906.623	12285
906.74	12270
906.857	12178
906.974	12144
907.091	12319
907.208	12422
907.324	12308
907.441	12251
907.557	12049
907.674	12011
907.79	11893
907.907	11977
908.023	12057
908.139	12091
908.256	11984
908.372	11977
908.488	11920
908.604	11863
908.72	11840
908.836	11802
908.952	11764
909.068	11809
909.184	11863
909.3	11805
909.415	11843
909.531	11748
909.647	11619
909.762	11554
909.878	11551
909.993	11558
910.108	11562
910.224	11436
910.339	11535
910.454	11547
910.57	11455
910.685	11406
910.8	11589
910.915	11661
911.03	11459
911.145	11239
911.259	11254
911.374	11261
911.489	11124
911.604	11250
911.718	10972
911.833	11109
911.947	10991
912.062	10889
912.176	11025
912.291	11041
912.405	11033
912.519	11140
912.633	11269
912.748	11105
912.862	11056
912.976	10923
913.09	10828
913.204	10908
913.318	10965
913.431	11064
913.545	10919
913.659	10987
913.772	10896
913.886	10763
914	10748
914.113	10866
914.226	10847
914.34	10900
914.453	10702
914.566	10915
914.68	10706
914.793	10740
914.906	10649
915.019	10535
915.132	10344
915.245	10622
915.358	10558
915.47	10558
915.583	10535
915.696	10565
915.809	10565
915.921	10588
916.034	10577
916.146	10398
916.259	10417
916.371	10508
916.483	10592
916.595	10478
916.708	10478
916.82	10459
916.932	10462
917.044	10443
917.156	10455
917.268	10280
917.38	10375
917.491	10257
917.603	10440
917.715	10443
917.826	10512
917.938	10322
918.049	10284
918.161	10356
918.272	10405
918.384	10478
918.495	10314
918.606	10215
918.717	10196
918.828	10200
918.939	10219
919.05	10166
919.161	10242
919.272	9998
919.383	10059
919.494	10398
919.604	10428
919.715	10325
919.826	10162
919.936	10261
920.047	10272
920.157	10204
920.267	10413
920.378	10265
920.488	10238
920.598	10451
920.708	10573
920.818	10466
920.928	10390
921.038	10512
921.148	10577
921.258	10299
921.368	10093
921.477	10154
921.587	10055
921.697	10025
921.806	10097
921.916	10006
922.025	9816
922.134	9804
922.244	9819
922.353	9819
922.462	9694
922.571	9709
922.68	9496
922.789	9485
922.898	9515
923.007	9431
923.116	9477
923.224	9492
923.333	9469
923.442	9393
923.55	9336
923.659	9344
923.767	9424
923.876	9405
923.984	9443
924.092	9317
924.201	9424
924.309	9386
924.417	9359
924.525	9348
924.633	9313
924.741	10143
924.849	9157
924.956	9363
925.064	9157
925.172	9093
925.279	9066
925.387	9226
925.494	9150
925.602	9397
925.709	9329
925.816	9070
925.924	9131
926.031	9176
926.138	9135
926.245	9104
926.352	9081
926.459	9218
926.566	9249
926.673	9097
926.779	9020
926.886	8986
926.993	8864
927.099	8792
927.206	8857
927.312	8811
927.419	8918
927.525	8834
927.631	8895
927.737	8781
927.843	8762
927.95	8583
928.056	8720
928.162	8807
928.267	8766
928.373	9355
928.479	8861
928.585	8674
928.69	8697
928.796	8811
928.901	8670
929.007	8492
929.112	8625
929.218	8667
929.323	8629
929.428	8587
929.533	8731
929.638	8488
929.743	8575
929.848	8636
929.953	8575
930.058	8537
930.163	8381
930.267	8362
930.372	8499
930.477	8389
930.581	8507
930.685	8400
930.79	8210
930.894	8286
930.998	8286
931.103	8431
931.207	8088
931.311	8043
931.415	8008
931.519	7742
931.623	7868
