Data from test_V78500241_2396.txt Node
Date: Fri Mar 25 14:50:23 CST 2022
User: usil
Spectrometer: V785-0024
Trigger mode: 0
Integration Time (sec): 4.000000E-1
Scans to average: 1
Nonlinearity correction enabled: false
Boxcar width: 0
Storing dark spectrum: false
XAxis mode: Wavelengths
Number of Pixels in Spectrum: 1024
>>>>>Begin Spectral Data<<<<<
801.071	22238
801.214	22059
801.356	21903
801.499	21797
801.641	21473
801.783	21557
801.926	21561
802.068	21466
802.211	21443
802.353	21325
802.496	21062
802.638	21051
802.78	20902
802.923	20952
803.065	20834
803.208	20948
803.35	20872
803.492	20918
803.635	20899
803.777	20746
803.919	20921
804.061	21142
804.204	20921
804.346	20857
804.488	20819
804.63	20815
804.773	20655
804.915	20720
805.057	20853
805.199	20743
805.341	20891
805.483	20910
805.626	20868
805.768	20754
805.91	20743
806.052	20883
806.194	20621
806.336	20834
806.478	20750
806.62	20693
806.762	20826
806.904	20918
807.046	21294
807.188	21081
807.33	21070
807.472	21047
807.614	21028
807.756	21028
807.898	20960
808.04	20708
808.182	20750
808.324	20868
808.465	20979
808.607	21028
808.749	21058
808.891	21169
809.033	21252
809.174	21275
809.316	21211
809.458	21195
809.6	21093
809.741	21237
809.883	21180
810.025	21302
810.166	21359
810.308	21302
810.45	21348
810.591	21214
810.733	21112
810.875	20899
811.016	20807
811.158	20857
811.299	20971
811.441	21043
811.582	21028
811.724	20842
811.865	20952
812.007	20891
812.148	20963
812.29	20834
812.431	21150
812.573	21237
812.714	21226
812.855	21370
812.997	21545
813.138	21606
813.279	21466
813.421	21435
813.562	21332
813.703	21150
813.845	21074
813.986	20792
814.127	20663
814.268	20602
814.41	20488
814.551	20518
814.692	20495
814.833	20381
814.974	20438
815.115	20313
815.256	20298
815.397	20313
815.539	20320
815.68	20199
815.821	20024
815.962	20240
816.103	20145
816.244	20035
816.385	20058
816.526	19928
816.666	19780
816.807	19559
816.948	19620
817.089	19643
817.23	19628
817.371	19620
817.512	19643
817.653	19628
817.793	19483
817.934	19548
818.075	19544
818.216	19563
818.356	19445
818.497	19362
818.638	19259
818.778	19209
818.919	19362
819.06	19209
819.2	19324
819.341	19468
819.481	19521
819.622	19708
819.762	19894
819.903	19712
820.043	19556
820.184	19632
820.324	19407
820.465	19632
820.605	19582
820.746	19582
820.886	19430
821.026	19563
821.167	19567
821.307	19544
821.447	19445
821.588	19373
821.728	19244
821.868	19110
822.008	19008
822.149	19084
822.289	18913
822.429	18715
822.569	18650
822.709	18642
822.849	18426
822.99	18437
823.13	18414
823.27	18388
823.41	18304
823.55	18182
823.69	18228
823.83	18144
823.97	18270
824.11	18117
824.25	18030
824.389	18057
824.529	18041
824.669	18041
824.809	18224
824.949	18167
825.089	18076
825.228	18045
825.368	17798
825.508	17813
825.648	17779
825.787	17843
825.927	17889
826.067	17775
826.206	17775
826.346	17760
826.485	17843
826.625	17779
826.765	17897
826.904	17901
827.044	17649
827.183	17615
827.323	17478
827.462	17615
827.601	17547
827.741	17436
827.88	17554
828.02	17334
828.159	17455
828.298	17558
828.437	17592
828.577	17501
828.716	17619
828.855	17444
828.994	17303
829.134	17406
829.273	17330
829.412	17227
829.551	17151
829.69	17265
829.829	17181
829.968	17296
830.107	17368
830.246	17242
830.385	17193
830.524	17143
830.663	17185
830.802	16877
830.941	16930
831.08	16812
831.219	16881
831.357	16953
831.496	17056
831.635	16923
831.774	16782
831.913	16607
832.051	16618
832.19	16740
832.329	16850
832.467	16584
832.606	16542
832.744	16497
832.883	16535
833.022	16451
833.16	16546
833.299	16428
833.437	16596
833.576	16538
833.714	16664
833.852	16558
833.991	16630
834.129	16713
834.267	16672
834.406	16531
834.544	16641
834.682	16573
834.821	16603
834.959	16733
835.097	16615
835.235	16637
835.373	16618
835.511	16607
835.65	16538
835.788	16508
835.926	16310
836.064	16375
836.202	16306
836.34	16493
836.478	16615
836.615	16462
836.753	16531
836.891	16504
837.029	16538
837.167	16405
837.305	16360
837.443	16333
837.58	16379
837.718	16451
837.856	16329
837.993	16211
838.131	16440
838.269	16344
838.406	16325
838.544	16181
838.681	16150
838.819	16051
838.956	15945
839.094	15869
839.231	15915
839.369	16078
839.506	16356
839.643	16173
839.781	15922
839.918	15934
840.055	15880
840.193	15915
840.33	15892
840.467	15960
840.604	15937
840.742	16112
840.879	15804
841.016	15823
841.153	15724
841.29	15994
841.427	15960
841.564	15930
841.701	16017
841.838	15857
841.975	15876
842.112	15873
842.249	15663
842.385	15679
842.522	15869
842.659	15793
842.796	15663
842.933	15652
843.069	15610
843.206	15610
843.343	15766
843.479	15667
843.616	15705
843.752	15553
843.889	15523
844.025	15641
844.162	15416
844.298	15652
844.435	15500
844.571	15435
844.708	15504
844.844	15614
844.98	15580
845.117	15610
845.253	15443
845.389	15367
845.525	15435
845.661	15363
845.798	15306
845.934	15279
846.07	15233
846.206	15325
846.342	15405
846.478	15252
846.614	15119
846.75	14986
846.886	14986
847.022	15173
847.158	15112
847.294	14941
847.429	15074
847.565	15055
847.701	15374
847.837	14777
847.972	14724
848.108	14861
848.244	14804
848.379	14750
848.515	14579
848.65	14644
848.786	14636
848.921	14556
849.057	14739
849.192	14621
849.328	14674
849.463	14682
849.598	14530
849.734	14598
849.869	14473
850.004	14499
850.14	14408
850.275	14457
850.41	14252
850.545	14438
850.68	14385
850.815	14393
850.95	14442
851.085	14545
851.22	14503
851.355	14408
851.49	14180
851.625	14328
851.76	14408
851.895	14240
852.03	14256
852.165	14427
852.299	14396
852.434	14454
852.569	14374
852.703	14438
852.838	14507
852.973	14568
853.107	14587
853.242	14393
853.376	14362
853.511	14149
853.645	14263
853.78	14412
853.914	14244
854.048	14286
854.183	14263
854.317	14358
854.451	14465
854.585	14309
854.72	14195
854.854	14248
854.988	14096
855.122	14275
855.256	14115
855.39	14263
855.524	14309
855.658	14301
855.792	14309
855.926	14240
856.06	14461
856.194	14461
856.327	14252
856.461	14115
856.595	14221
856.729	14210
856.862	14355
856.996	14278
857.13	14263
857.263	14415
857.397	14442
857.53	14301
857.664	14358
857.797	14358
857.931	14427
858.064	14301
858.197	14393
858.331	14282
858.464	14218
858.597	14195
858.731	14206
858.864	14278
858.997	14229
859.13	14358
859.263	14358
859.396	14362
859.529	14225
859.662	14240
859.795	14218
859.928	14259
860.061	14404
860.194	14450
860.327	14347
860.46	14221
860.592	14400
860.725	14495
860.858	14488
860.99	14385
861.123	14202
861.256	14244
861.388	14256
861.521	14773
861.653	14149
861.786	14149
861.918	14115
862.05	14100
862.183	14123
862.315	14221
862.447	14282
862.58	14225
862.712	14016
862.844	13978
862.976	14214
863.108	14050
863.24	14396
863.372	13932
863.504	14126
863.636	14092
863.768	14100
863.9	14115
864.032	13997
864.164	13909
864.296	14088
864.428	14180
864.559	14176
864.691	14172
864.823	14123
864.954	14126
865.086	14100
865.217	13974
865.349	13993
865.48	14115
865.612	14062
865.743	14157
865.875	14020
866.006	14058
866.137	14092
866.269	14046
866.4	13982
866.531	14001
866.662	13951
866.793	13970
866.924	13986
867.055	14065
867.186	13963
867.317	13913
867.448	13986
867.579	13974
867.71	13967
867.841	13932
867.972	14100
868.103	14027
868.233	13978
868.364	14092
868.495	14145
868.625	14256
868.756	14412
868.886	14134
869.017	14225
869.147	14423
869.278	14324
869.408	14199
869.539	14237
869.669	14351
869.799	14370
869.929	14370
870.06	14404
870.19	14492
870.32	14484
870.45	14644
870.58	14667
870.71	14849
870.84	14735
870.97	14800
871.1	14621
871.23	14853
871.36	14857
871.489	14777
871.619	14868
871.749	14857
871.879	14796
872.008	14986
872.138	14895
872.267	14918
872.397	14754
872.526	14663
872.656	14655
872.785	14712
872.915	14899
873.044	14960
873.173	14982
873.303	14971
873.432	14876
873.561	15131
873.69	14952
873.819	14880
873.948	15039
874.077	14986
874.206	14887
874.335	14982
874.464	15005
874.593	15287
874.722	15097
874.851	15298
874.979	15241
875.108	15279
875.237	15264
875.365	15138
875.494	15214
875.623	15386
875.751	15252
875.88	15249
876.008	15469
876.136	15469
876.265	15637
876.393	15709
876.521	15682
876.65	15797
876.778	15648
876.906	15675
877.034	15572
877.162	15660
877.29	15549
877.418	15614
877.546	15648
877.674	15713
877.802	15603
877.93	15534
878.058	15713
878.185	15549
878.313	15610
878.441	15622
878.568	15458
878.696	15458
878.824	15599
878.951	15682
879.079	15861
879.206	15983
879.333	15812
879.461	15713
879.588	15762
879.715	15816
879.842	15949
879.97	15720
880.097	15428
880.224	15492
880.351	15542
880.478	15549
880.605	15473
880.732	15492
880.859	15694
880.986	15561
881.112	15534
881.239	15416
881.366	15252
881.493	15260
881.619	15150
881.746	15237
881.872	15108
881.999	15165
882.125	15176
882.252	15245
882.378	15237
882.505	15424
882.631	15066
882.757	14952
882.883	15074
883.01	14982
883.136	14887
883.262	14826
883.388	14796
883.514	15024
883.64	14967
883.766	14842
883.892	14727
884.018	14811
884.143	14826
884.269	15077
884.395	14758
884.52	14651
884.646	14735
884.772	14590
884.897	14617
885.023	14670
885.148	14796
885.274	14849
885.399	14697
885.524	14708
885.65	14682
885.775	14765
885.9	14651
886.025	14830
886.15	14743
886.275	14716
886.4	14488
886.525	14651
886.65	14644
886.775	14693
886.9	14735
887.025	14906
887.149	14636
887.274	14434
887.399	14545
887.523	14507
887.648	14511
887.773	14438
887.897	14568
888.021	14560
888.146	14431
888.27	14610
888.395	14712
888.519	14530
888.643	14518
888.767	14575
888.891	14415
889.015	14404
889.139	14355
889.263	14286
889.387	14495
889.511	14465
889.635	14552
889.759	14446
889.883	14355
890.006	14343
890.13	14488
890.254	14339
890.377	14248
890.501	14161
890.624	14142
890.748	14191
890.871	14107
890.995	14100
891.118	14043
891.241	14096
891.364	14096
891.488	14248
891.611	14050
891.734	14039
891.857	14092
891.98	14081
892.103	14164
892.226	14039
892.349	14065
892.471	13940
892.594	14058
892.717	14092
892.839	14031
892.962	14119
893.085	14119
893.207	14001
893.33	13982
893.452	13921
893.575	14138
893.697	14058
893.819	14298
893.941	14290
894.064	14199
894.186	14062
894.308	14031
894.43	14111
894.552	14389
894.674	14191
894.796	14054
894.918	14103
895.04	14149
895.161	14206
895.283	14252
895.405	14058
895.526	14214
895.648	14050
895.769	14206
895.891	14271
896.012	14320
896.134	14263
896.255	14195
896.376	14286
896.498	14305
896.619	14393
896.74	14206
896.861	14256
896.982	14537
897.103	14773
897.224	14568
897.345	14419
897.466	14518
897.587	14541
897.708	14644
897.828	14564
897.949	14495
898.07	14309
898.19	14560
898.311	14579
898.431	14579
898.552	14579
898.672	14667
898.792	14693
898.913	14648
899.033	14518
899.153	14457
899.273	14278
899.393	14488
899.513	14541
899.633	14450
899.753	14492
899.873	14480
899.993	14473
900.113	14431
900.232	14488
900.352	14427
900.472	14343
900.591	14233
900.711	14358
900.83	14336
900.95	14450
901.069	14324
901.189	14286
901.308	14058
901.427	14031
901.546	13959
901.665	13944
901.784	14020
901.904	13883
902.023	13822
902.141	13647
902.26	13670
902.379	13537
902.498	13548
902.617	13540
902.735	13567
902.854	13609
902.973	13601
903.091	13324
903.21	13407
903.328	13343
903.446	13194
903.565	13080
903.683	13168
903.801	13027
903.919	13122
904.038	13053
904.156	13027
904.274	13057
904.392	12890
904.51	12913
904.627	12951
904.745	12958
904.863	13023
904.981	12776
905.098	12684
905.216	12623
905.334	12669
905.451	12608
905.569	12585
905.686	12738
905.803	12566
905.921	12391
906.038	12601
906.155	12464
906.272	12399
906.389	12353
906.506	12194
906.623	12323
906.74	12220
906.857	12079
906.974	12133
907.091	12342
907.208	12323
907.324	12243
907.441	12178
907.557	11908
907.674	11988
907.79	11939
907.907	11958
908.023	12007
908.139	11912
908.256	12015
908.372	11889
908.488	11916
908.604	11760
908.72	11699
908.836	11794
908.952	11805
909.068	11756
909.184	11893
909.3	11729
909.415	11737
909.531	11824
909.647	11459
909.762	11539
909.878	11433
909.993	11509
910.108	11463
910.224	11452
910.339	11516
910.454	11383
910.57	11395
910.685	11376
910.8	11505
910.915	11551
911.03	11337
911.145	11322
911.259	11223
911.374	11280
911.489	11075
911.604	11166
911.718	10938
911.833	10965
911.947	10881
912.062	10854
912.176	10961
912.291	10965
912.405	10961
912.519	11151
912.633	11155
912.748	11029
912.862	10919
912.976	10843
913.09	10725
913.204	10733
913.318	10866
913.431	10949
913.545	10957
913.659	10953
913.772	10820
913.886	10675
914	10656
914.113	10828
914.226	10831
914.34	10854
914.453	10634
914.566	10763
914.68	10679
914.793	10584
914.906	10474
915.019	10470
915.132	10352
915.245	10447
915.358	10538
915.47	10443
915.583	10535
915.696	10470
915.809	10577
915.921	10630
916.034	10443
916.146	10447
916.259	10386
916.371	10519
916.483	10402
916.595	10489
916.708	10436
916.82	10405
916.932	10409
917.044	10367
917.156	10329
917.268	10272
917.38	10379
917.491	10303
917.603	10333
917.715	10398
917.826	10432
917.938	10299
918.049	10192
918.161	10314
918.272	10489
918.384	10462
918.495	10348
918.606	10147
918.717	10071
918.828	10234
918.939	10238
919.05	10109
919.161	10090
919.272	9968
919.383	10051
919.494	10253
919.604	10360
919.715	10261
919.826	10097
919.936	10181
920.047	10322
920.157	10230
920.267	10428
920.378	10257
920.488	10147
920.598	10493
920.708	10615
920.818	10398
920.928	10375
921.038	10554
921.148	10485
921.258	10268
921.368	10109
921.477	10078
921.587	10074
921.697	9934
921.806	10192
921.916	9964
922.025	9800
922.134	9732
922.244	9663
922.353	9778
922.462	9686
922.571	9526
922.68	9473
922.789	9443
922.898	9580
923.007	9408
923.116	9408
923.224	9389
923.333	9458
923.442	9348
923.55	9348
923.659	9313
923.767	9477
923.876	9279
923.984	9367
924.092	9253
924.201	9359
924.309	9279
924.417	9332
924.525	9298
924.633	9382
924.741	9998
924.849	9119
924.956	9211
925.064	9104
925.172	9005
925.279	9051
925.387	9074
925.494	9104
925.602	9283
925.709	9207
925.816	9161
925.924	9169
926.031	9214
926.138	9104
926.245	9146
926.352	9039
926.459	9188
926.566	9237
926.673	9089
926.779	9020
926.886	8971
926.993	8910
927.099	8857
927.206	8724
927.312	8804
927.419	8906
927.525	8796
927.631	8960
927.737	8796
927.843	8667
927.95	8640
928.056	8632
928.162	8746
928.267	8724
928.373	9351
928.479	8762
928.585	8552
928.69	8724
928.796	8735
928.901	8705
929.007	8454
929.112	8697
929.218	8598
929.323	8617
929.428	8526
929.533	8705
929.638	8423
929.743	8537
929.848	8606
929.953	8473
930.058	8408
930.163	8377
930.267	8324
930.372	8431
930.477	8317
930.581	8571
930.685	8355
930.79	8282
930.894	8332
930.998	8214
931.103	8370
931.207	8065
931.311	8024
931.415	7928
931.519	7811
931.623	7788
