Data from test_V78500241_2197.txt Node
Date: Fri Mar 25 14:49:00 CST 2022
User: usil
Spectrometer: V785-0024
Trigger mode: 0
Integration Time (sec): 4.000000E-1
Scans to average: 1
Nonlinearity correction enabled: false
Boxcar width: 0
Storing dark spectrum: false
XAxis mode: Wavelengths
Number of Pixels in Spectrum: 1024
>>>>>Begin Spectral Data<<<<<
801.071	22063
801.214	21987
801.356	21850
801.499	21747
801.641	21496
801.783	21534
801.926	21667
802.068	21450
802.211	21389
802.353	21355
802.496	21112
802.638	20960
802.78	21047
802.923	21062
803.065	20925
803.208	20872
803.35	20914
803.492	20948
803.635	21039
803.777	20918
803.919	20952
804.061	21279
804.204	20887
804.346	20815
804.488	20925
804.63	20750
804.773	20735
804.915	20990
805.057	20853
805.199	20720
805.341	20864
805.483	20918
805.626	20929
805.768	20842
805.91	20796
806.052	20811
806.194	20712
806.336	20982
806.478	20743
806.62	20804
806.762	20804
806.904	20845
807.046	21195
807.188	21154
807.33	21135
807.472	21112
807.614	21013
807.756	21039
807.898	20868
808.04	20777
808.182	20883
808.324	20823
808.465	20948
808.607	21039
808.749	21154
808.891	21340
809.033	21367
809.174	21256
809.316	21142
809.458	21096
809.6	21077
809.741	21184
809.883	21302
810.025	21310
810.166	21310
810.308	21447
810.45	21222
810.591	21287
810.733	21131
810.875	21077
811.016	20872
811.158	20830
811.299	21043
811.441	20998
811.582	21047
811.724	21047
811.865	20956
812.007	20982
812.148	20804
812.29	20990
812.431	21077
812.573	21222
812.714	21424
812.855	21351
812.997	21519
813.138	21682
813.279	21542
813.421	21526
813.562	21332
813.703	21264
813.845	21001
813.986	20823
814.127	20625
814.268	20587
814.41	20518
814.551	20571
814.692	20549
814.833	20313
814.974	20347
815.115	20552
815.256	20362
815.397	20301
815.539	20332
815.68	20252
815.821	20161
815.962	20286
816.103	20115
816.244	20077
816.385	20046
816.526	19887
816.666	19704
816.807	19750
816.948	19658
817.089	19776
817.23	19734
817.371	19582
817.512	19601
817.653	19559
817.793	19586
817.934	19681
818.075	19632
818.216	19605
818.356	19628
818.497	19407
818.638	19297
818.778	19244
818.919	19407
819.06	19400
819.2	19324
819.341	19506
819.481	19510
819.622	19674
819.762	19700
819.903	19700
820.043	19662
820.184	19647
820.324	19674
820.465	19734
820.605	19556
820.746	19613
820.886	19586
821.026	19635
821.167	19556
821.307	19616
821.447	19514
821.588	19407
821.728	19297
821.868	19175
822.008	19126
822.149	19065
822.289	19034
822.429	18753
822.569	18779
822.709	18806
822.849	18544
822.99	18547
823.13	18448
823.27	18475
823.41	18308
823.55	18213
823.69	18323
823.83	18330
823.97	18194
824.11	18167
824.25	18053
824.389	18110
824.529	18258
824.669	18098
824.809	18186
824.949	18121
825.089	18228
825.228	18068
825.368	17965
825.508	17912
825.648	17843
825.787	18049
825.927	17859
826.067	17878
826.206	17855
826.346	17809
826.485	17893
826.625	17836
826.765	18011
826.904	17897
827.044	17710
827.183	17528
827.323	17581
827.462	17729
827.601	17535
827.741	17634
827.88	17665
828.02	17482
828.159	17657
828.298	17482
828.437	17638
828.577	17611
828.716	17676
828.855	17547
828.994	17364
829.134	17440
829.273	17410
829.412	17235
829.551	17242
829.69	17261
829.829	17383
829.968	17478
830.107	17402
830.246	17334
830.385	17292
830.524	17288
830.663	17193
830.802	17083
830.941	16949
831.08	16881
831.219	16999
831.357	16889
831.496	17181
831.635	16885
831.774	16942
831.913	16828
832.051	16755
832.19	16698
832.329	16683
832.467	16584
832.606	16649
832.744	16622
832.883	16599
833.022	16611
833.16	16603
833.299	16748
833.437	16656
833.576	16668
833.714	16729
833.852	16672
833.991	16774
834.129	16790
834.267	16679
834.406	16603
834.544	16710
834.682	16729
834.821	16645
834.959	16839
835.097	16668
835.235	16763
835.373	16683
835.511	16653
835.65	16634
835.788	16611
835.926	16462
836.064	16413
836.202	16421
836.34	16538
836.478	16603
836.615	16527
836.753	16603
836.891	16561
837.029	16615
837.167	16527
837.305	16500
837.443	16535
837.58	16398
837.718	16569
837.856	16394
837.993	16405
838.131	16428
838.269	16382
838.406	16402
838.544	16322
838.681	16173
838.819	16036
838.956	16021
839.094	16017
839.231	16013
839.369	16234
839.506	16390
839.643	16242
839.781	16025
839.918	15956
840.055	16002
840.193	15987
840.33	15895
840.467	15964
840.604	15941
840.742	16204
840.879	15816
841.016	15842
841.153	15789
841.29	16116
841.427	15956
841.564	16025
841.701	15975
841.838	15857
841.975	15895
842.112	15915
842.249	15755
842.385	15603
842.522	16017
842.659	15679
842.796	15625
842.933	15762
843.069	15667
843.206	15793
843.343	15793
843.479	15701
843.616	15774
843.752	15515
843.889	15507
844.025	15679
844.162	15572
844.298	15610
844.435	15496
844.571	15492
844.708	15580
844.844	15690
844.98	15641
845.117	15736
845.253	15485
845.389	15428
845.525	15523
845.661	15428
845.798	15374
845.934	15500
846.07	15310
846.206	15374
846.342	15488
846.478	15359
846.614	15218
846.75	15070
846.886	15043
847.022	15214
847.158	15127
847.294	15176
847.429	15055
847.565	15119
847.701	15317
847.837	14883
847.972	14746
848.108	15005
848.244	14982
848.379	14773
848.515	14678
848.65	14746
848.786	14632
848.921	14686
849.057	14807
849.192	14765
849.328	14670
849.463	14754
849.598	14724
849.734	14663
849.869	14575
850.004	14507
850.14	14564
850.275	14465
850.41	14347
850.545	14381
850.68	14484
850.815	14454
850.95	14457
851.085	14613
851.22	14640
851.355	14541
851.49	14366
851.625	14400
851.76	14427
851.895	14419
852.03	14286
852.165	14438
852.299	14484
852.434	14530
852.569	14442
852.703	14533
852.838	14514
852.973	14587
853.107	14602
853.242	14495
853.376	14328
853.511	14278
853.645	14332
853.78	14385
853.914	14324
854.048	14301
854.183	14294
854.317	14377
854.451	14476
854.585	14328
854.72	14214
854.854	14301
854.988	14324
855.122	14290
855.256	14199
855.39	14320
855.524	14374
855.658	14457
855.792	14408
855.926	14355
856.06	14431
856.194	14438
856.327	14370
856.461	14278
856.595	14301
856.729	14347
856.862	14434
856.996	14423
857.13	14522
857.263	14446
857.397	14465
857.53	14336
857.664	14343
857.797	14450
857.931	14427
858.064	14282
858.197	14404
858.331	14332
858.464	14317
858.597	14267
858.731	14240
858.864	14339
858.997	14328
859.13	14332
859.263	14385
859.396	14332
859.529	14317
859.662	14263
859.795	14309
859.928	14480
860.061	14442
860.194	14465
860.327	14389
860.46	14385
860.592	14507
860.725	14484
860.858	14526
860.99	14362
861.123	14248
861.256	14225
861.388	14343
861.521	14868
861.653	14240
861.786	14134
861.918	14221
862.05	14259
862.183	14343
862.315	14286
862.447	14396
862.58	14275
862.712	14115
862.844	14111
862.976	14123
863.108	14126
863.24	14530
863.372	14065
863.504	14084
863.636	14050
863.768	14240
863.9	14138
864.032	14001
864.164	14069
864.296	14240
864.428	14259
864.559	14221
864.691	14259
864.823	14134
864.954	14145
865.086	14134
865.217	14005
865.349	14088
865.48	14145
865.612	14103
865.743	14191
865.875	14039
866.006	14012
866.137	14115
866.269	14134
866.4	14092
866.531	14054
866.662	14084
866.793	14050
866.924	13955
867.055	14233
867.186	14039
867.317	14081
867.448	14016
867.579	14050
867.71	14050
867.841	13989
867.972	14081
868.103	14077
868.233	14054
868.364	14058
868.495	14134
868.625	14298
868.756	14419
868.886	14275
869.017	14282
869.147	14381
869.278	14518
869.408	14351
869.539	14343
869.669	14454
869.799	14362
869.929	14518
870.06	14579
870.19	14720
870.32	14590
870.45	14758
870.58	14712
870.71	14819
870.84	14857
870.97	14602
871.1	14689
871.23	14925
871.36	14918
871.489	14811
871.619	14861
871.749	14994
871.879	14891
872.008	15013
872.138	14956
872.267	14937
872.397	14788
872.526	14750
872.656	14796
872.785	14781
872.915	14979
873.044	15024
873.173	14925
873.303	15005
873.432	15074
873.561	14990
873.69	14967
873.819	15047
873.948	15100
874.077	15043
874.206	15005
874.335	14986
874.464	15093
874.593	15313
874.722	15180
874.851	15291
874.979	15203
875.108	15355
875.237	15233
875.365	15222
875.494	15287
875.623	15386
875.751	15272
875.88	15268
876.008	15401
876.136	15564
876.265	15686
876.393	15873
876.521	15747
876.65	15793
876.778	15759
876.906	15713
877.034	15603
877.162	15717
877.29	15720
877.418	15762
877.546	15614
877.674	15690
877.802	15713
877.93	15667
878.058	15682
878.185	15648
878.313	15720
878.441	15759
878.568	15557
878.696	15705
878.824	15599
878.951	15770
879.079	15842
879.206	16013
879.333	15903
879.461	15865
879.588	15857
879.715	15911
879.842	15850
879.97	15838
880.097	15549
880.224	15386
880.351	15606
880.478	15557
880.605	15466
880.732	15603
880.859	15812
880.986	15633
881.112	15599
881.239	15496
881.366	15408
881.493	15222
881.619	15268
881.746	15214
881.872	15245
881.999	15154
882.125	15157
882.252	15321
882.378	15268
882.505	15294
882.631	15180
882.757	15005
882.883	15055
883.01	15077
883.136	14941
883.262	14902
883.388	14849
883.514	15112
883.64	15199
883.766	14956
883.892	14834
884.018	14899
884.143	14948
884.269	15062
884.395	14746
884.52	14731
884.646	14777
884.772	14682
884.897	14705
885.023	14689
885.148	14792
885.274	14887
885.399	14826
885.524	14697
885.65	14834
885.775	14777
885.9	14724
886.025	14929
886.15	14811
886.275	14777
886.4	14670
886.525	14697
886.65	14674
886.775	14697
886.9	14785
887.025	14925
887.149	14823
887.274	14469
887.399	14541
887.523	14564
887.648	14476
887.773	14423
887.897	14651
888.021	14621
888.146	14503
888.27	14602
888.395	14533
888.519	14663
888.643	14632
888.767	14689
888.891	14537
889.015	14438
889.139	14339
889.263	14336
889.387	14495
889.511	14613
889.635	14552
889.759	14381
889.883	14404
890.006	14427
890.13	14469
890.254	14396
890.377	14355
890.501	14229
890.624	14301
890.748	14336
890.871	14187
890.995	14065
891.118	13989
891.241	14187
891.364	14081
891.488	14298
891.611	14130
891.734	14161
891.857	14172
891.98	14157
892.103	14210
892.226	14138
892.349	14100
892.471	13982
892.594	14142
892.717	14092
892.839	14062
892.962	14142
893.085	14168
893.207	14180
893.33	14008
893.452	14130
893.575	14237
893.697	14115
893.819	14305
893.941	14362
894.064	14240
894.186	14027
894.308	14088
894.43	14191
894.552	14328
894.674	14263
894.796	14199
894.918	14081
895.04	14164
895.161	14275
895.283	14313
895.405	14084
895.526	14317
895.648	14271
895.769	14275
895.891	14336
896.012	14385
896.134	14286
896.255	14278
896.376	14187
896.498	14339
896.619	14355
896.74	14317
896.861	14415
896.982	14655
897.103	14792
897.224	14545
897.345	14541
897.466	14427
897.587	14518
897.708	14769
897.828	14590
897.949	14575
898.07	14476
898.19	14507
898.311	14712
898.431	14552
898.552	14682
898.672	14746
898.792	14754
898.913	14678
899.033	14625
899.153	14503
899.273	14389
899.393	14400
899.513	14511
899.633	14579
899.753	14450
899.873	14355
899.993	14530
900.113	14495
900.232	14499
900.352	14457
900.472	14389
900.591	14358
900.711	14385
900.83	14263
900.95	14454
901.069	14594
901.189	14290
901.308	14115
901.427	13986
901.546	14054
901.665	13989
901.784	14088
901.904	13906
902.023	13780
902.141	13704
902.26	13552
902.379	13723
902.498	13594
902.617	13571
902.735	13559
902.854	13639
902.973	13601
903.091	13373
903.21	13285
903.328	13373
903.446	13304
903.565	13209
903.683	13304
903.801	13027
903.919	13122
904.038	13247
904.156	12996
904.274	13053
904.392	13012
904.51	12939
904.627	12981
904.745	13057
904.863	13000
904.981	12825
905.098	12593
905.216	12688
905.334	12722
905.451	12741
905.569	12684
905.686	12730
905.803	12631
905.921	12460
906.038	12578
906.155	12483
906.272	12292
906.389	12441
906.506	12281
906.623	12258
906.74	12235
906.857	12186
906.974	12186
907.091	12395
907.208	12452
907.324	12277
907.441	12171
907.557	12026
907.674	12049
907.79	11950
907.907	11931
908.023	11999
908.139	12057
908.256	12007
908.372	11893
908.488	11897
908.604	11760
908.72	11733
908.836	11737
908.952	11813
909.068	11764
909.184	11950
909.3	11733
909.415	11908
909.531	11718
909.647	11592
909.762	11642
909.878	11493
909.993	11551
910.108	11512
910.224	11482
910.339	11535
910.454	11334
910.57	11364
910.685	11318
910.8	11619
910.915	11611
911.03	11410
911.145	11299
911.259	11178
911.374	11265
911.489	11208
911.604	11189
911.718	11037
911.833	11067
911.947	10877
912.062	10900
912.176	10984
912.291	11048
912.405	10934
912.519	11220
912.633	11231
912.748	11048
912.862	11018
912.976	10946
913.09	10755
913.204	10854
913.318	10900
913.431	10953
913.545	10965
913.659	10915
913.772	10801
913.886	10778
914	10763
914.113	10763
914.226	10896
914.34	10771
914.453	10672
914.566	10934
914.68	10755
914.793	10645
914.906	10489
915.019	10546
915.132	10386
915.245	10485
915.358	10596
915.47	10519
915.583	10565
915.696	10535
915.809	10668
915.921	10599
916.034	10440
916.146	10451
916.259	10394
916.371	10565
916.483	10512
916.595	10352
916.708	10470
916.82	10455
916.932	10402
917.044	10546
917.156	10402
917.268	10215
917.38	10318
917.491	10352
917.603	10322
917.715	10489
917.826	10363
917.938	10318
918.049	10242
918.161	10363
918.272	10447
918.384	10508
918.495	10398
918.606	10192
918.717	10109
918.828	10337
918.939	10227
919.05	10177
919.161	10204
919.272	10021
919.383	10059
919.494	10287
919.604	10440
919.715	10261
919.826	10162
919.936	10162
920.047	10360
920.157	10265
920.267	10447
920.378	10303
920.488	10314
920.598	10489
920.708	10615
920.818	10470
920.928	10405
921.038	10622
921.148	10637
921.258	10211
921.368	10185
921.477	10166
921.587	10082
921.697	10006
921.806	10139
921.916	10006
922.025	9857
922.134	9781
922.244	9759
922.353	9785
922.462	9629
922.571	9644
922.68	9469
922.789	9500
922.898	9477
923.007	9443
923.116	9545
923.224	9485
923.333	9420
923.442	9363
923.55	9321
923.659	9340
923.767	9416
923.876	9424
923.984	9382
924.092	9279
924.201	9386
924.309	9374
924.417	9393
924.525	9382
924.633	9291
924.741	10276
924.849	9146
924.956	9237
925.064	9146
925.172	9020
925.279	9104
925.387	9173
925.494	9127
925.602	9291
925.709	9214
925.816	9039
925.924	9188
926.031	9291
926.138	9207
926.245	9146
926.352	9062
926.459	9180
926.566	9298
926.673	9062
926.779	9055
926.886	8967
926.993	8952
927.099	8838
927.206	8830
927.312	8800
927.419	8883
927.525	8868
927.631	8868
927.737	8758
927.843	8701
927.95	8689
928.056	8762
928.162	8750
928.267	8819
928.373	9435
928.479	8826
928.585	8613
928.69	8716
928.796	8743
928.901	8693
929.007	8571
929.112	8670
929.218	8655
929.323	8560
929.428	8568
929.533	8651
929.638	8575
929.743	8560
929.848	8610
929.953	8549
930.058	8514
930.163	8347
930.267	8263
930.372	8507
930.477	8355
930.581	8587
930.685	8400
930.79	8294
930.894	8305
930.998	8221
931.103	8419
931.207	8149
931.311	8020
931.415	7982
931.519	7761
931.623	7784
