Data from test_V78500241_3132.txt Node
Date: Fri Mar 25 14:55:31 CST 2022
User: usil
Spectrometer: V785-0024
Trigger mode: 0
Integration Time (sec): 4.000000E-1
Scans to average: 1
Nonlinearity correction enabled: false
Boxcar width: 0
Storing dark spectrum: false
XAxis mode: Wavelengths
Number of Pixels in Spectrum: 1024
>>>>>Begin Spectral Data<<<<<
801.071	22006
801.214	21911
801.356	21736
801.499	21568
801.641	21462
801.783	21348
801.926	21462
802.068	21408
802.211	21260
802.353	21119
802.496	20948
802.638	20929
802.78	20788
802.923	20800
803.065	20701
803.208	20910
803.35	20708
803.492	20811
803.635	20891
803.777	20750
803.919	20762
804.061	21028
804.204	20788
804.346	20571
804.488	20545
804.63	20655
804.773	20552
804.915	20682
805.057	20792
805.199	20644
805.341	20545
805.483	20800
805.626	20781
805.768	20575
805.91	20769
806.052	20750
806.194	20461
806.336	20750
806.478	20579
806.62	20533
806.762	20826
806.904	20891
807.046	21074
807.188	21032
807.33	21123
807.472	21085
807.614	20876
807.756	20864
807.898	20697
808.04	20712
808.182	20731
808.324	20640
808.465	20731
808.607	20960
808.749	21131
808.891	21211
809.033	21157
809.174	21135
809.316	20925
809.458	21070
809.6	20883
809.741	21013
809.883	21062
810.025	21150
810.166	21241
810.308	21119
810.45	21142
810.591	21024
810.733	20963
810.875	20895
811.016	20750
811.158	20750
811.299	20868
811.441	20944
811.582	20823
811.724	20705
811.865	20830
812.007	20712
812.148	20731
812.29	20735
812.431	20914
812.573	21108
812.714	21161
812.855	21348
812.997	21428
813.138	21462
813.279	21416
813.421	21237
813.562	21252
813.703	21001
813.845	20944
813.986	20701
814.127	20473
814.268	20465
814.41	20442
814.551	20313
814.692	20419
814.833	20282
814.974	20229
815.115	20351
815.256	20180
815.397	20202
815.539	20225
815.68	20206
815.821	19978
815.962	20050
816.103	19913
816.244	19868
816.385	19860
816.526	19719
816.666	19643
816.807	19529
816.948	19575
817.089	19548
817.23	19483
817.371	19529
817.512	19396
817.653	19521
817.793	19426
817.934	19590
818.075	19441
818.216	19499
818.356	19419
818.497	19251
818.638	19107
818.778	19107
818.919	19152
819.06	19179
819.2	19312
819.341	19354
819.481	19373
819.622	19472
819.762	19795
819.903	19666
820.043	19491
820.184	19476
820.324	19506
820.465	19525
820.605	19499
820.746	19434
820.886	19232
821.026	19396
821.167	19346
821.307	19495
821.447	19407
821.588	19270
821.728	19168
821.868	18894
822.008	18863
822.149	18795
822.289	18897
822.429	18585
822.569	18544
822.709	18521
822.849	18273
822.99	18410
823.13	18235
823.27	18247
823.41	18205
823.55	18197
823.69	18136
823.83	18102
823.97	18026
824.11	17885
824.25	17927
824.389	17866
824.529	17904
824.669	17965
824.809	18045
824.949	17958
825.089	17923
825.228	17912
825.368	17718
825.508	17703
825.648	17714
825.787	17707
825.927	17790
826.067	17676
826.206	17630
826.346	17710
826.485	17676
826.625	17589
826.765	17813
826.904	17687
827.044	17551
827.183	17467
827.323	17406
827.462	17406
827.601	17368
827.741	17395
827.88	17299
828.02	17220
828.159	17383
828.298	17395
828.437	17360
828.577	17360
828.716	17455
828.855	17261
828.994	17197
829.134	17124
829.273	17204
829.412	16984
829.551	17071
829.69	17147
829.829	17105
829.968	17220
830.107	17200
830.246	17170
830.385	17037
830.524	17113
830.663	16908
830.802	16877
830.941	16733
831.08	16801
831.219	16820
831.357	16892
831.496	16885
831.635	16782
831.774	16630
831.913	16645
832.051	16565
832.19	16561
832.329	16500
832.467	16398
832.606	16280
832.744	16344
832.883	16409
833.022	16306
833.16	16405
833.299	16417
833.437	16462
833.576	16508
833.714	16462
833.852	16516
833.991	16466
834.129	16561
834.267	16588
834.406	16508
834.544	16508
834.682	16512
834.821	16432
834.959	16558
835.097	16451
835.235	16558
835.373	16565
835.511	16519
835.65	16436
835.788	16348
835.926	16173
836.064	16299
836.202	16215
836.34	16394
836.478	16447
836.615	16379
836.753	16360
836.891	16409
837.029	16493
837.167	16272
837.305	16348
837.443	16310
837.58	16162
837.718	16276
837.856	16310
837.993	16158
838.131	16257
838.269	16169
838.406	16284
838.544	15960
838.681	15953
838.819	15991
838.956	15888
839.094	15789
839.231	15747
839.369	16010
839.506	16230
839.643	16040
839.781	15762
839.918	15743
840.055	15857
840.193	15838
840.33	15838
840.467	15739
840.604	15759
840.742	16044
840.879	15542
841.016	15667
841.153	15724
841.29	15827
841.427	15785
841.564	15785
841.701	15717
841.838	15808
841.975	15648
842.112	15751
842.249	15629
842.385	15584
842.522	15747
842.659	15564
842.796	15500
842.933	15564
843.069	15629
843.206	15469
843.343	15644
843.479	15576
843.616	15629
843.752	15431
843.889	15344
844.025	15454
844.162	15291
844.298	15378
844.435	15260
844.571	15291
844.708	15412
844.844	15580
844.98	15519
845.117	15428
845.253	15325
845.389	15237
845.525	15291
845.661	15287
845.798	15184
845.934	15203
846.07	15165
846.206	15169
846.342	15287
846.478	15154
846.614	14952
846.75	14933
846.886	14872
847.022	15039
847.158	14990
847.294	14872
847.429	14967
847.565	14853
847.701	15123
847.837	14705
847.972	14598
848.108	14773
848.244	14758
848.379	14678
848.515	14541
848.65	14469
848.786	14495
848.921	14526
849.057	14606
849.192	14594
849.328	14617
849.463	14526
849.598	14575
849.734	14393
849.869	14347
850.004	14248
850.14	14248
850.275	14278
850.41	14142
850.545	14214
850.68	14237
850.815	14336
850.95	14298
851.085	14469
851.22	14374
851.355	14237
851.49	14324
851.625	14218
851.76	14145
851.895	14210
852.03	14180
852.165	14259
852.299	14347
852.434	14355
852.569	14366
852.703	14370
852.838	14385
852.973	14450
853.107	14442
853.242	14244
853.376	14172
853.511	14062
853.645	14138
853.78	14282
853.914	14191
854.048	14202
854.183	14221
854.317	14176
854.451	14328
854.585	14145
854.72	14130
854.854	14286
854.988	14149
855.122	14218
855.256	13959
855.39	14077
855.524	14229
855.658	14142
855.792	14218
855.926	14115
856.06	14275
856.194	14324
856.327	14161
856.461	14092
856.595	14092
856.729	14088
856.862	14244
856.996	14077
857.13	14172
857.263	14252
857.397	14309
857.53	14187
857.664	14218
857.797	14214
857.931	14332
858.064	14183
858.197	14339
858.331	14119
858.464	14065
858.597	14005
858.731	14256
858.864	14202
858.997	14191
859.13	14233
859.263	14123
859.396	14252
859.529	14153
859.662	14164
859.795	14134
859.928	14119
860.061	14381
860.194	14385
860.327	14263
860.46	14164
860.592	14328
860.725	14271
860.858	14233
860.99	14210
861.123	14077
861.256	14138
861.388	14145
861.521	14872
861.653	14058
861.786	14016
861.918	14069
862.05	14035
862.183	14088
862.315	14107
862.447	14317
862.58	14096
862.712	13959
862.844	13898
862.976	14031
863.108	13944
863.24	14267
863.372	13909
863.504	14077
863.636	13909
863.768	13947
863.9	13967
864.032	13928
864.164	13852
864.296	13909
864.428	14069
864.559	14031
864.691	14027
864.823	14031
864.954	14065
865.086	14020
865.217	13864
865.349	13963
865.48	13902
865.612	13898
865.743	14050
865.875	13803
866.006	13936
866.137	14077
866.269	13902
866.4	13898
866.531	13925
866.662	13894
866.793	13822
866.924	13944
867.055	13906
867.186	13936
867.317	13894
867.448	13791
867.579	13864
867.71	13845
867.841	13871
867.972	13879
868.103	13936
868.233	13993
868.364	13932
868.495	14050
868.625	14161
868.756	14252
868.886	14119
869.017	14199
869.147	14271
869.278	14263
869.408	14278
869.539	14210
869.669	14248
869.799	14180
869.929	14366
870.06	14229
870.19	14461
870.32	14507
870.45	14571
870.58	14648
870.71	14712
870.84	14636
870.97	14533
871.1	14552
871.23	14651
871.36	14746
871.489	14610
871.619	14720
871.749	14777
871.879	14758
872.008	14944
872.138	14838
872.267	14754
872.397	14686
872.526	14640
872.656	14575
872.785	14659
872.915	14842
873.044	14842
873.173	14826
873.303	14868
873.432	14788
873.561	14899
873.69	14876
873.819	14838
873.948	15032
874.077	14941
874.206	14861
874.335	14883
874.464	15036
874.593	15169
874.722	15119
874.851	15157
874.979	15138
875.108	15142
875.237	15150
875.365	15020
875.494	15112
875.623	15169
875.751	15154
875.88	15180
876.008	15313
876.136	15378
876.265	15542
876.393	15568
876.521	15671
876.65	15629
876.778	15545
876.906	15614
877.034	15572
877.162	15584
877.29	15549
877.418	15595
877.546	15564
877.674	15519
877.802	15523
877.93	15553
878.058	15561
878.185	15466
878.313	15439
878.441	15496
878.568	15454
878.696	15443
878.824	15549
878.951	15679
879.079	15743
879.206	15953
879.333	15671
879.461	15648
879.588	15667
879.715	15854
879.842	15797
879.97	15644
880.097	15408
880.224	15443
880.351	15450
880.478	15469
880.605	15401
880.732	15405
880.859	15614
880.986	15351
881.112	15526
881.239	15268
881.366	15161
881.493	15055
881.619	15135
881.746	15108
881.872	15119
881.999	15024
882.125	14944
882.252	15154
882.378	14994
882.505	15226
882.631	14952
882.757	14933
882.883	14857
883.01	14956
883.136	14838
883.262	14785
883.388	14765
883.514	14929
883.64	14891
883.766	14845
883.892	14712
884.018	14705
884.143	14792
884.269	14986
884.395	14697
884.52	14541
884.646	14556
884.772	14560
884.897	14484
885.023	14697
885.148	14663
885.274	14727
885.399	14716
885.524	14613
885.65	14667
885.775	14648
885.9	14632
886.025	14629
886.15	14727
886.275	14560
886.4	14503
886.525	14575
886.65	14518
886.775	14457
886.9	14674
887.025	14845
887.149	14575
887.274	14503
887.399	14377
887.523	14431
887.648	14332
887.773	14347
887.897	14457
888.021	14503
888.146	14294
888.27	14613
888.395	14564
888.519	14381
888.643	14488
888.767	14492
888.891	14366
889.015	14267
889.139	14324
889.263	14263
889.387	14324
889.511	14621
889.635	14355
889.759	14286
889.883	14218
890.006	14248
890.13	14336
890.254	14221
890.377	14221
890.501	14142
890.624	14077
890.748	14164
890.871	14043
890.995	13974
891.118	13989
891.241	13970
891.364	14012
891.488	14187
891.611	13898
891.734	13913
891.857	14024
891.98	14024
892.103	14073
892.226	14050
892.349	13925
892.471	13772
892.594	14111
892.717	14008
892.839	13951
892.962	13925
893.085	14069
893.207	14092
893.33	13830
893.452	13955
893.575	14077
893.697	13970
893.819	14134
893.941	14145
894.064	14126
894.186	14012
894.308	13921
894.43	14168
894.552	14149
894.674	14149
894.796	13951
894.918	14031
895.04	13986
895.161	14134
895.283	14157
895.405	14035
895.526	14130
895.648	14084
895.769	14103
895.891	14252
896.012	14240
896.134	14218
896.255	14267
896.376	14065
896.498	14218
896.619	14210
896.74	14111
896.861	14290
896.982	14507
897.103	14667
897.224	14415
897.345	14332
897.466	14374
897.587	14431
897.708	14507
897.828	14461
897.949	14339
898.07	14381
898.19	14404
898.311	14621
898.431	14503
898.552	14568
898.672	14625
898.792	14541
898.913	14594
899.033	14366
899.153	14298
899.273	14332
899.393	14366
899.513	14347
899.633	14415
899.753	14415
899.873	14317
899.993	14400
900.113	14377
900.232	14503
900.352	14290
900.472	14244
900.591	14199
900.711	14199
900.83	14172
900.95	14347
901.069	14461
901.189	14244
901.308	13932
901.427	13883
901.546	14005
901.665	13974
901.784	13917
901.904	13799
902.023	13757
902.141	13605
902.26	13460
902.379	13613
902.498	13502
902.617	13449
902.735	13518
902.854	13502
902.973	13369
903.091	13266
903.21	13232
903.328	13263
903.446	13046
903.565	13095
903.683	13019
903.801	12977
903.919	13156
904.038	13004
904.156	12947
904.274	12943
904.392	12894
904.51	12958
904.627	12867
904.745	12932
904.863	12943
904.981	12612
905.098	12566
905.216	12563
905.334	12639
905.451	12623
905.569	12536
905.686	12646
905.803	12604
905.921	12422
906.038	12422
906.155	12456
906.272	12194
906.389	12342
906.506	12247
906.623	12209
906.74	12133
906.857	12045
906.974	12038
907.091	12205
907.208	12311
907.324	12163
907.441	12083
907.557	11927
907.674	11908
907.79	11870
907.907	11980
908.023	11927
908.139	11897
908.256	11889
908.372	11786
908.488	11737
908.604	11775
908.72	11688
908.836	11653
908.952	11573
909.068	11699
909.184	11802
909.3	11710
909.415	11726
909.531	11699
909.647	11463
909.762	11444
909.878	11516
909.993	11482
910.108	11376
910.224	11429
910.339	11497
910.454	11353
910.57	11391
910.685	11261
910.8	11535
910.915	11512
911.03	11197
911.145	11220
911.259	11143
911.374	11143
911.489	10942
911.604	11083
911.718	10934
911.833	10839
911.947	10805
912.062	10679
912.176	10877
912.291	10919
912.405	10923
912.519	11067
912.633	11128
912.748	10965
912.862	10812
912.976	10790
913.09	10675
913.204	10790
913.318	10774
913.431	10881
913.545	10820
913.659	10972
913.772	10824
913.886	10717
914	10615
914.113	10767
914.226	10782
914.34	10812
914.453	10558
914.566	10801
914.68	10588
914.793	10565
914.906	10451
915.019	10436
915.132	10322
915.245	10428
915.358	10500
915.47	10436
915.583	10459
915.696	10485
915.809	10569
915.921	10523
916.034	10363
916.146	10405
916.259	10367
916.371	10455
916.483	10451
916.595	10341
916.708	10329
916.82	10382
916.932	10333
917.044	10360
917.156	10306
917.268	10196
917.38	10253
917.491	10287
917.603	10348
917.715	10318
917.826	10318
917.938	10268
918.049	10082
918.161	10253
918.272	10443
918.384	10394
918.495	10280
918.606	10128
918.717	10010
918.828	10227
918.939	10200
919.05	10063
919.161	10090
919.272	9903
919.383	10006
919.494	10219
919.604	10333
919.715	10204
919.826	10032
919.936	10128
920.047	10211
920.157	10124
920.267	10325
920.378	10196
920.488	10135
920.598	10329
920.708	10500
920.818	10405
920.928	10348
921.038	10428
921.148	10516
921.258	10169
921.368	10055
921.477	10006
921.587	9983
921.697	9895
921.806	10010
921.916	9953
922.025	9759
922.134	9705
922.244	9717
922.353	9740
922.462	9625
922.571	9564
922.68	9370
922.789	9428
922.898	9466
923.007	9382
923.116	9408
923.224	9443
923.333	9340
923.442	9306
923.55	9237
923.659	9298
923.767	9321
923.876	9222
923.984	9389
924.092	9226
924.201	9298
924.309	9230
924.417	9226
924.525	9154
924.633	9214
924.741	10109
924.849	9093
924.956	9207
925.064	8979
925.172	8986
925.279	9036
925.387	9119
925.494	9116
925.602	9180
925.709	9135
925.816	8963
925.924	9009
926.031	9157
926.138	9085
926.245	9085
926.352	8952
926.459	9108
926.566	9131
926.673	9062
926.779	8830
926.886	8902
926.993	8758
927.099	8739
927.206	8724
927.312	8777
927.419	8842
927.525	8754
927.631	8819
927.737	8720
927.843	8667
927.95	8549
928.056	8670
928.162	8674
928.267	8766
928.373	9245
928.479	8811
928.585	8568
928.69	8686
928.796	8686
928.901	8579
929.007	8400
929.112	8518
929.218	8579
929.323	8545
929.428	8457
929.533	8659
929.638	8404
929.743	8446
929.848	8541
929.953	8476
930.058	8438
930.163	8263
930.267	8263
930.372	8347
930.477	8263
930.581	8476
930.685	8343
930.79	8172
930.894	8252
930.998	8183
931.103	8393
931.207	8027
931.311	7898
931.415	7890
931.519	7757
931.623	7719
