Data from test_V78500241_2988.txt Node
Date: Fri Mar 25 14:54:31 CST 2022
User: usil
Spectrometer: V785-0024
Trigger mode: 0
Integration Time (sec): 4.000000E-1
Scans to average: 1
Nonlinearity correction enabled: false
Boxcar width: 0
Storing dark spectrum: false
XAxis mode: Wavelengths
Number of Pixels in Spectrum: 1024
>>>>>Begin Spectral Data<<<<<
801.071	22063
801.214	22010
801.356	21827
801.499	21603
801.641	21641
801.783	21488
801.926	21443
802.068	21416
802.211	21325
802.353	21230
802.496	21081
802.638	20838
802.78	20891
802.923	20804
803.065	20678
803.208	20773
803.35	20674
803.492	20739
803.635	20948
803.777	20883
803.919	20830
804.061	21127
804.204	20902
804.346	20830
804.488	20716
804.63	20796
804.773	20705
804.915	20693
805.057	20743
805.199	20598
805.341	20762
805.483	20735
805.626	20811
805.768	20613
805.91	20651
806.052	20750
806.194	20568
806.336	20982
806.478	20648
806.62	20602
806.762	20705
806.904	20883
807.046	20990
807.188	20956
807.33	21005
807.472	21001
807.614	20963
807.756	20944
807.898	20819
808.04	20743
808.182	20826
808.324	20811
808.465	20785
808.607	20971
808.749	21123
808.891	21150
809.033	21340
809.174	21226
809.316	21055
809.458	21074
809.6	20998
809.741	21165
809.883	21157
810.025	21306
810.166	21222
810.308	21344
810.45	21135
810.591	21017
810.733	20944
810.875	20914
811.016	20765
811.158	20811
811.299	20887
811.441	21055
811.582	20929
811.724	20872
811.865	20864
812.007	20849
812.148	20853
812.29	20861
812.431	20986
812.573	21112
812.714	21207
812.855	21443
812.997	21363
813.138	21473
813.279	21450
813.421	21344
813.562	21211
813.703	21093
813.845	21058
813.986	20724
814.127	20503
814.268	20423
814.41	20465
814.551	20336
814.692	20438
814.833	20328
814.974	20301
815.115	20454
815.256	20286
815.397	20252
815.539	20111
815.68	20069
815.821	20130
815.962	20092
816.103	20073
816.244	19906
816.385	19776
816.526	19845
816.666	19700
816.807	19502
816.948	19651
817.089	19670
817.23	19575
817.371	19605
817.512	19609
817.653	19438
817.793	19525
817.934	19499
818.075	19533
818.216	19601
818.356	19441
818.497	19400
818.638	19266
818.778	19251
818.919	19221
819.06	19225
819.2	19301
819.341	19419
819.481	19354
819.622	19510
819.762	19727
819.903	19510
820.043	19434
820.184	19495
820.324	19540
820.465	19582
820.605	19460
820.746	19499
820.886	19126
821.026	19480
821.167	19476
821.307	19365
821.447	19407
821.588	19282
821.728	19251
821.868	19114
822.008	18844
822.149	18890
822.289	18848
822.429	18642
822.569	18563
822.709	18536
822.849	18239
822.99	18410
823.13	18300
823.27	18285
823.41	18117
823.55	18178
823.69	18235
823.83	18292
823.97	18152
824.11	17969
824.25	17980
824.389	18030
824.529	17920
824.669	17889
824.809	17935
824.949	18053
825.089	18053
825.228	17961
825.368	17760
825.508	17764
825.648	17828
825.787	17779
825.927	17798
826.067	17821
826.206	17707
826.346	17707
826.485	17771
826.625	17623
826.765	17760
826.904	17699
827.044	17570
827.183	17516
827.323	17417
827.462	17425
827.601	17459
827.741	17387
827.88	17452
828.02	17273
828.159	17387
828.298	17353
828.437	17535
828.577	17322
828.716	17501
828.855	17356
828.994	17216
829.134	17197
829.273	17185
829.412	17064
829.551	17109
829.69	17181
829.829	17246
829.968	17231
830.107	17227
830.246	17208
830.385	17216
830.524	17010
830.663	16972
830.802	16923
830.941	16710
831.08	16763
831.219	16736
831.357	16774
831.496	17006
831.635	16805
831.774	16797
831.913	16660
832.051	16565
832.19	16607
832.329	16497
832.467	16413
832.606	16432
832.744	16440
832.883	16352
833.022	16447
833.16	16424
833.299	16554
833.437	16390
833.576	16569
833.714	16451
833.852	16500
833.991	16481
834.129	16519
834.267	16561
834.406	16527
834.544	16421
834.682	16554
834.821	16481
834.959	16733
835.097	16478
835.235	16497
835.373	16405
835.511	16519
835.65	16424
835.788	16394
835.926	16318
836.064	16185
836.202	16318
836.34	16527
836.478	16447
836.615	16348
836.753	16394
836.891	16497
837.029	16344
837.167	16379
837.305	16291
837.443	16253
837.58	16306
837.718	16356
837.856	16230
837.993	16181
838.131	16325
838.269	16238
838.406	16253
838.544	16181
838.681	16017
838.819	15865
838.956	15785
839.094	15732
839.231	15930
839.369	15987
839.506	16097
839.643	15987
839.781	15888
839.918	15728
840.055	15732
840.193	15827
840.33	15781
840.467	15759
840.604	15812
840.742	16055
840.879	15747
841.016	15778
841.153	15690
841.29	15960
841.427	15827
841.564	15892
841.701	15766
841.838	15846
841.975	15675
842.112	15743
842.249	15618
842.385	15542
842.522	15812
842.659	15553
842.796	15584
842.933	15625
843.069	15473
843.206	15587
843.343	15561
843.479	15580
843.616	15663
843.752	15416
843.889	15462
844.025	15580
844.162	15317
844.298	15519
844.435	15393
844.571	15283
844.708	15420
844.844	15488
844.98	15584
845.117	15405
845.253	15317
845.389	15359
845.525	15256
845.661	15298
845.798	15218
845.934	15154
846.07	15104
846.206	15275
846.342	15336
846.478	15173
846.614	14937
846.75	14887
846.886	14895
847.022	15001
847.158	14941
847.294	14902
847.429	14956
847.565	14944
847.701	15180
847.837	14701
847.972	14682
848.108	14838
848.244	14861
848.379	14625
848.515	14526
848.65	14495
848.786	14552
848.921	14579
849.057	14644
849.192	14667
849.328	14480
849.463	14541
849.598	14476
849.734	14415
849.869	14495
850.004	14298
850.14	14355
850.275	14286
850.41	14267
850.545	14286
850.68	14374
850.815	14370
850.95	14358
851.085	14454
851.22	14408
851.355	14263
851.49	14347
851.625	14267
851.76	14248
851.895	14221
852.03	14134
852.165	14271
852.299	14309
852.434	14419
852.569	14298
852.703	14332
852.838	14358
852.973	14488
853.107	14450
853.242	14252
853.376	14195
853.511	14096
853.645	14084
853.78	14404
853.914	14164
854.048	14134
854.183	14119
854.317	14134
854.451	14347
854.585	14199
854.72	14134
854.854	14168
854.988	14138
855.122	14161
855.256	14020
855.39	14161
855.524	14286
855.658	14229
855.792	14214
855.926	14221
856.06	14259
856.194	14286
856.327	14111
856.461	14142
856.595	14119
856.729	14168
856.862	14259
856.996	14229
857.13	14221
857.263	14412
857.397	14290
857.53	14107
857.664	14187
857.797	14210
857.931	14313
858.064	14248
858.197	14191
858.331	14195
858.464	14138
858.597	14107
858.731	14172
858.864	14225
858.997	14164
859.13	14233
859.263	14187
859.396	14195
859.529	14149
859.662	14149
859.795	14092
859.928	14176
860.061	14374
860.194	14313
860.327	14218
860.46	14164
860.592	14328
860.725	14294
860.858	14275
860.99	14172
861.123	14081
861.256	14107
861.388	14263
861.521	14845
861.653	14107
861.786	14020
861.918	14016
862.05	14119
862.183	14123
862.315	14206
862.447	14096
862.58	14107
862.712	13978
862.844	13879
862.976	14005
863.108	14020
863.24	14484
863.372	13871
863.504	13951
863.636	14039
863.768	14073
863.9	13944
864.032	13986
864.164	13909
864.296	14020
864.428	14031
864.559	13982
864.691	13944
864.823	14046
864.954	13993
865.086	14008
865.217	13902
865.349	13909
865.48	13845
865.612	13974
865.743	14062
865.875	13982
866.006	13947
866.137	14039
866.269	13906
866.4	13947
866.531	13887
866.662	13830
866.793	13883
866.924	13811
867.055	14031
867.186	13890
867.317	13982
867.448	13879
867.579	13875
867.71	13833
867.841	13852
867.972	13986
868.103	13940
868.233	13917
868.364	13887
868.495	13963
868.625	14221
868.756	14187
868.886	14043
869.017	14111
869.147	14229
869.278	14362
869.408	14183
869.539	14164
869.669	14210
869.799	14298
869.929	14290
870.06	14259
870.19	14518
870.32	14530
870.45	14518
870.58	14488
870.71	14705
870.84	14693
870.97	14545
871.1	14579
871.23	14800
871.36	14807
871.489	14648
871.619	14765
871.749	14750
871.879	14823
872.008	14861
872.138	14872
872.267	14739
872.397	14629
872.526	14648
872.656	14610
872.785	14602
872.915	14853
873.044	14979
873.173	14842
873.303	14906
873.432	14937
873.561	14921
873.69	14910
873.819	14826
873.948	14952
874.077	14868
874.206	14826
874.335	14948
874.464	14925
874.593	15241
874.722	15043
874.851	15222
874.979	15104
875.108	15173
875.237	15085
875.365	15066
875.494	15161
875.623	15252
875.751	15112
875.88	15180
876.008	15374
876.136	15344
876.265	15591
876.393	15755
876.521	15667
876.65	15701
876.778	15553
876.906	15576
877.034	15515
877.162	15587
877.29	15473
877.418	15534
877.546	15599
877.674	15545
877.802	15603
877.93	15610
878.058	15610
878.185	15420
878.313	15492
878.441	15534
878.568	15431
878.696	15580
878.824	15656
878.951	15549
879.079	15720
879.206	15854
879.333	15720
879.461	15576
879.588	15644
879.715	15682
879.842	15903
879.97	15622
880.097	15405
880.224	15389
880.351	15405
880.478	15428
880.605	15386
880.732	15420
880.859	15652
880.986	15466
881.112	15500
881.239	15329
881.366	15112
881.493	15108
881.619	15100
881.746	15077
881.872	15093
881.999	15089
882.125	15013
882.252	15184
882.378	15188
882.505	15180
882.631	15020
882.757	14845
882.883	14967
883.01	14941
883.136	14823
883.262	14769
883.388	14708
883.514	14925
883.64	14861
883.766	14785
883.892	14712
884.018	14682
884.143	14906
884.269	14982
884.395	14648
884.52	14568
884.646	14651
884.772	14507
884.897	14492
885.023	14571
885.148	14636
885.274	14781
885.399	14655
885.524	14613
885.65	14613
885.775	14629
885.9	14571
886.025	14716
886.15	14705
886.275	14632
886.4	14545
886.525	14621
886.65	14499
886.775	14556
886.9	14788
887.025	14800
887.149	14594
887.274	14454
887.399	14400
887.523	14408
887.648	14381
887.773	14374
887.897	14488
888.021	14541
888.146	14431
888.27	14526
888.395	14499
888.519	14571
888.643	14461
888.767	14549
888.891	14332
889.015	14305
889.139	14339
889.263	14240
889.387	14404
889.511	14556
889.635	14408
889.759	14294
889.883	14278
890.006	14294
890.13	14389
890.254	14145
890.377	14142
890.501	14164
890.624	14157
890.748	14180
890.871	14081
890.995	13856
891.118	13887
891.241	14031
891.364	14020
891.488	14199
891.611	14005
891.734	14024
891.857	14161
891.98	14001
892.103	14046
892.226	14012
892.349	14027
892.471	13894
892.594	14069
892.717	13959
892.839	13928
892.962	14081
893.085	14039
893.207	13947
893.33	13925
893.452	13890
893.575	14081
893.697	13947
893.819	14119
893.941	14210
894.064	14161
894.186	13982
894.308	14043
894.43	14142
894.552	14210
894.674	14092
894.796	13932
894.918	14001
895.04	13947
895.161	14103
895.283	14161
895.405	14100
895.526	14206
895.648	14043
895.769	14077
895.891	14195
896.012	14202
896.134	14183
896.255	14157
896.376	14119
896.498	14225
896.619	14225
896.74	14096
896.861	14221
896.982	14571
897.103	14701
897.224	14549
897.345	14389
897.466	14366
897.587	14484
897.708	14571
897.828	14492
897.949	14503
898.07	14358
898.19	14366
898.311	14632
898.431	14404
898.552	14507
898.672	14651
898.792	14594
898.913	14556
899.033	14427
899.153	14355
899.273	14355
899.393	14396
899.513	14393
899.633	14446
899.753	14438
899.873	14298
899.993	14408
900.113	14442
900.232	14400
900.352	14355
900.472	14233
900.591	14229
900.711	14256
900.83	14248
900.95	14374
901.069	14320
901.189	14233
901.308	14062
901.427	13921
901.546	13978
901.665	14054
901.784	14020
901.904	13799
902.023	13841
902.141	13552
902.26	13502
902.379	13537
902.498	13514
902.617	13529
902.735	13601
902.854	13487
902.973	13369
903.091	13263
903.21	13187
903.328	13194
903.446	13266
903.565	13053
903.683	13095
903.801	12924
903.919	13137
904.038	13065
904.156	12947
904.274	13008
904.392	12897
904.51	12958
904.627	12814
904.745	12939
904.863	12943
904.981	12700
905.098	12585
905.216	12631
905.334	12601
905.451	12483
905.569	12528
905.686	12604
905.803	12616
905.921	12330
906.038	12532
906.155	12399
906.272	12273
906.389	12300
906.506	12079
906.623	12186
906.74	12270
906.857	12030
906.974	12140
907.091	12296
907.208	12369
907.324	12190
907.441	12072
907.557	11912
907.674	11988
907.79	11920
907.907	11824
908.023	11893
908.139	11859
908.256	11832
908.372	11802
908.488	11805
908.604	11703
908.72	11619
908.836	11653
908.952	11707
909.068	11638
909.184	11748
909.3	11707
909.415	11745
909.531	11634
909.647	11520
909.762	11501
909.878	11429
909.993	11505
910.108	11474
910.224	11482
910.339	11429
910.454	11303
910.57	11311
910.685	11250
910.8	11539
910.915	11326
911.03	11353
911.145	11166
911.259	11143
911.374	11117
911.489	11037
911.604	11045
911.718	10908
911.833	10946
911.947	10881
912.062	10767
912.176	10965
912.291	10858
912.405	10869
912.519	11105
912.633	11109
912.748	10946
912.862	10930
912.976	10786
913.09	10755
913.204	10725
913.318	10828
913.431	10900
913.545	10839
913.659	10980
913.772	10767
913.886	10611
914	10694
914.113	10733
914.226	10854
914.34	10801
914.453	10717
914.566	10835
914.68	10637
914.793	10637
914.906	10386
915.019	10386
915.132	10295
915.245	10390
915.358	10402
915.47	10508
915.583	10455
915.696	10462
915.809	10584
915.921	10584
916.034	10402
916.146	10405
916.259	10329
916.371	10409
916.483	10405
916.595	10348
916.708	10451
916.82	10424
916.932	10322
917.044	10348
917.156	10295
917.268	10299
917.38	10249
917.491	10230
917.603	10219
917.715	10375
917.826	10337
917.938	10227
918.049	10211
918.161	10295
918.272	10390
918.384	10367
918.495	10261
918.606	10101
918.717	10112
918.828	10124
918.939	10211
919.05	10067
919.161	10090
919.272	9956
919.383	10025
919.494	10219
919.604	10409
919.715	10139
919.826	10048
919.936	10116
920.047	10253
920.157	10090
920.267	10318
920.378	10246
920.488	10139
920.598	10280
920.708	10440
920.818	10386
920.928	10310
921.038	10565
921.148	10455
921.258	10150
921.368	10166
921.477	10048
921.587	9960
921.697	9880
921.806	10040
921.916	9873
922.025	9835
922.134	9755
922.244	9717
922.353	9732
922.462	9545
922.571	9580
922.68	9447
922.789	9389
922.898	9367
923.007	9382
923.116	9389
923.224	9416
923.333	9420
923.442	9332
923.55	9279
923.659	9287
923.767	9367
923.876	9325
923.984	9321
924.092	9302
924.201	9329
924.309	9321
924.417	9294
924.525	9241
924.633	9207
924.741	10215
924.849	8986
924.956	9241
925.064	9024
925.172	8952
925.279	9047
925.387	9058
925.494	9131
925.602	9161
925.709	9176
925.816	9081
925.924	9085
926.031	9157
926.138	9119
926.245	9203
926.352	9013
926.459	9161
926.566	9154
926.673	9036
926.779	8914
926.886	8887
926.993	8838
927.099	8811
927.206	8670
927.312	8766
927.419	8769
927.525	8727
927.631	8838
927.737	8769
927.843	8667
927.95	8636
928.056	8720
928.162	8682
928.267	8693
928.373	9279
928.479	8743
928.585	8522
928.69	8621
928.796	8648
928.901	8621
929.007	8545
929.112	8560
929.218	8663
929.323	8545
929.428	8492
929.533	8568
929.638	8431
929.743	8514
929.848	8560
929.953	8442
930.058	8408
930.163	8252
930.267	8336
930.372	8415
930.477	8275
930.581	8564
930.685	8396
930.79	8221
930.894	8263
930.998	8199
931.103	8358
931.207	8062
931.311	7989
931.415	7879
931.519	7734
931.623	7704
