Data from test_V78500241_2041.txt Node
Date: Fri Mar 25 14:47:55 CST 2022
User: usil
Spectrometer: V785-0024
Trigger mode: 0
Integration Time (sec): 4.000000E-1
Scans to average: 1
Nonlinearity correction enabled: false
Boxcar width: 0
Storing dark spectrum: false
XAxis mode: Wavelengths
Number of Pixels in Spectrum: 1024
>>>>>Begin Spectral Data<<<<<
801.071	22044
801.214	21968
801.356	21671
801.499	21671
801.641	21477
801.783	21473
801.926	21644
802.068	21424
802.211	21245
802.353	21150
802.496	21131
802.638	21028
802.78	20952
802.923	20746
803.065	20804
803.208	20800
803.35	20861
803.492	20895
803.635	20963
803.777	20857
803.919	20902
804.061	21123
804.204	20861
804.346	20689
804.488	20765
804.63	20743
804.773	20575
804.915	20716
805.057	20842
805.199	20602
805.341	20708
805.483	20887
805.626	20720
805.768	20716
805.91	20708
806.052	20769
806.194	20655
806.336	20941
806.478	20693
806.62	20697
806.762	20857
806.904	21001
807.046	21127
807.188	21036
807.33	21108
807.472	21051
807.614	21013
807.756	21066
807.898	20819
808.04	20762
808.182	20796
808.324	20891
808.465	20921
808.607	20998
808.749	20979
808.891	21302
809.033	21264
809.174	21150
809.316	21104
809.458	21161
809.6	21119
809.741	21157
809.883	21268
810.025	21165
810.166	21294
810.308	21226
810.45	21306
810.591	21093
810.733	20990
810.875	20937
811.016	20883
811.158	20758
811.299	20853
811.441	21077
811.582	20975
811.724	20876
811.865	20758
812.007	20941
812.148	20906
812.29	21009
812.431	21123
812.573	21161
812.714	21230
812.855	21374
812.997	21515
813.138	21591
813.279	21523
813.421	21408
813.562	21386
813.703	21104
813.845	20963
813.986	20705
814.127	20583
814.268	20545
814.41	20476
814.551	20415
814.692	20552
814.833	20313
814.974	20377
815.115	20427
815.256	20286
815.397	20320
815.539	20199
815.68	20107
815.821	20024
815.962	20096
816.103	20058
816.244	19940
816.385	19818
816.526	19837
816.666	19757
816.807	19529
816.948	19605
817.089	19784
817.23	19620
817.371	19514
817.512	19601
817.653	19506
817.793	19605
817.934	19544
818.075	19635
818.216	19605
818.356	19571
818.497	19320
818.638	19225
818.778	19266
818.919	19225
819.06	19221
819.2	19335
819.341	19483
819.481	19480
819.622	19453
819.762	19750
819.903	19651
820.043	19548
820.184	19472
820.324	19491
820.465	19548
820.605	19590
820.746	19540
820.886	19392
821.026	19506
821.167	19525
821.307	19586
821.447	19476
821.588	19331
821.728	19270
821.868	19103
822.008	19053
822.149	18977
822.289	18897
822.429	18681
822.569	18635
822.709	18635
822.849	18483
822.99	18391
823.13	18346
823.27	18323
823.41	18201
823.55	18121
823.69	18239
823.83	18281
823.97	18171
824.11	18079
824.25	17912
824.389	18041
824.529	18114
824.669	17977
824.809	18095
824.949	18015
825.089	18011
825.228	17999
825.368	17935
825.508	17729
825.648	17836
825.787	17821
825.927	17870
826.067	17695
826.206	17783
826.346	17802
826.485	17687
826.625	17863
826.765	17870
826.904	17923
827.044	17547
827.183	17528
827.323	17383
827.462	17535
827.601	17376
827.741	17490
827.88	17482
828.02	17318
828.159	17497
828.298	17520
828.437	17474
828.577	17383
828.716	17691
828.855	17444
828.994	17288
829.134	17200
829.273	17216
829.412	17197
829.551	17094
829.69	17189
829.829	17273
829.968	17292
830.107	17265
830.246	17254
830.385	17318
830.524	17246
830.663	17204
830.802	17029
830.941	16782
831.08	16805
831.219	16987
831.357	16866
831.496	17041
831.635	16919
831.774	16660
831.913	16736
832.051	16656
832.19	16683
832.329	16664
832.467	16592
832.606	16596
832.744	16580
832.883	16573
833.022	16554
833.16	16550
833.299	16637
833.437	16565
833.576	16622
833.714	16550
833.852	16603
833.991	16679
834.129	16729
834.267	16687
834.406	16725
834.544	16698
834.682	16596
834.821	16584
834.959	16752
835.097	16550
835.235	16683
835.373	16565
835.511	16584
835.65	16504
835.788	16542
835.926	16398
836.064	16280
836.202	16402
836.34	16478
836.478	16577
836.615	16466
836.753	16432
836.891	16637
837.029	16546
837.167	16443
837.305	16436
837.443	16459
837.58	16363
837.718	16417
837.856	16424
837.993	16257
838.131	16447
838.269	16386
838.406	16272
838.544	16257
838.681	16071
838.819	16135
838.956	15892
839.094	15907
839.231	15968
839.369	16158
839.506	16367
839.643	16185
839.781	15888
839.918	15823
840.055	15903
840.193	15956
840.33	15907
840.467	15934
840.604	15911
840.742	16169
840.879	15823
841.016	15930
841.153	15835
841.29	15975
841.427	15949
841.564	16002
841.701	15994
841.838	15956
841.975	15865
842.112	15846
842.249	15705
842.385	15576
842.522	15892
842.659	15823
842.796	15778
842.933	15850
843.069	15785
843.206	15690
843.343	15835
843.479	15743
843.616	15816
843.752	15576
843.889	15542
844.025	15633
844.162	15466
844.298	15622
844.435	15488
844.571	15545
844.708	15606
844.844	15652
844.98	15713
845.117	15663
845.253	15530
845.389	15386
845.525	15420
845.661	15389
845.798	15336
845.934	15325
846.07	15237
846.206	15332
846.342	15549
846.478	15275
846.614	15108
846.75	15074
846.886	15047
847.022	15173
847.158	15100
847.294	15024
847.429	15123
847.565	15070
847.701	15363
847.837	14868
847.972	14819
848.108	14918
848.244	14788
848.379	14724
848.515	14629
848.65	14610
848.786	14758
848.921	14693
849.057	14678
849.192	14720
849.328	14686
849.463	14739
849.598	14613
849.734	14613
849.869	14552
850.004	14423
850.14	14438
850.275	14473
850.41	14385
850.545	14366
850.68	14495
850.815	14495
850.95	14381
851.085	14667
851.22	14545
851.355	14488
851.49	14374
851.625	14446
851.76	14476
851.895	14294
852.03	14301
852.165	14454
852.299	14427
852.434	14587
852.569	14484
852.703	14480
852.838	14564
852.973	14743
853.107	14617
853.242	14461
853.376	14374
853.511	14263
853.645	14259
853.78	14389
853.914	14210
854.048	14347
854.183	14347
854.317	14385
854.451	14431
854.585	14317
854.72	14248
854.854	14374
854.988	14267
855.122	14252
855.256	14157
855.39	14358
855.524	14377
855.658	14408
855.792	14351
855.926	14381
856.06	14374
856.194	14427
856.327	14351
856.461	14301
856.595	14210
856.729	14355
856.862	14442
856.996	14343
857.13	14381
857.263	14404
857.397	14412
857.53	14374
857.664	14434
857.797	14374
857.931	14454
858.064	14339
858.197	14423
858.331	14305
858.464	14259
858.597	14271
858.731	14320
858.864	14328
858.997	14374
859.13	14320
859.263	14381
859.396	14396
859.529	14298
859.662	14259
859.795	14229
859.928	14358
860.061	14431
860.194	14499
860.327	14317
860.46	14282
860.592	14473
860.725	14454
860.858	14488
860.99	14282
861.123	14149
861.256	14240
861.388	14290
861.521	15070
861.653	14221
861.786	14092
861.918	14119
862.05	14248
862.183	14298
862.315	14298
862.447	14339
862.58	14256
862.712	14172
862.844	13997
862.976	14138
863.108	14142
863.24	14461
863.372	14031
863.504	14058
863.636	14096
863.768	14176
863.9	14054
864.032	14024
864.164	14031
864.296	14115
864.428	14229
864.559	14324
864.691	14221
864.823	14149
864.954	14115
865.086	14126
865.217	14138
865.349	13978
865.48	14138
865.612	14115
865.743	14237
865.875	14088
866.006	14008
866.137	14031
866.269	14145
866.4	14130
866.531	14035
866.662	14031
866.793	14081
866.924	14065
867.055	14123
867.186	14130
867.317	13970
867.448	14001
867.579	13955
867.71	14016
867.841	14043
867.972	14062
868.103	14001
868.233	14073
868.364	14031
868.495	14138
868.625	14336
868.756	14412
868.886	14248
869.017	14385
869.147	14396
869.278	14419
869.408	14282
869.539	14263
869.669	14431
869.799	14278
869.929	14465
870.06	14400
870.19	14636
870.32	14606
870.45	14724
870.58	14697
870.71	14883
870.84	14834
870.97	14769
871.1	14663
871.23	14826
871.36	14944
871.489	14861
871.619	14887
871.749	14952
871.879	14967
872.008	15097
872.138	14910
872.267	14914
872.397	14887
872.526	14807
872.656	14743
872.785	14800
872.915	14998
873.044	14967
873.173	15009
873.303	15024
873.432	15077
873.561	15081
873.69	14982
873.819	15001
873.948	15043
874.077	14952
874.206	14956
874.335	14979
874.464	15146
874.593	15226
874.722	15150
874.851	15283
874.979	15348
875.108	15317
875.237	15207
875.365	15138
875.494	15374
875.623	15291
875.751	15230
875.88	15355
876.008	15428
876.136	15420
876.265	15762
876.393	15899
876.521	15751
876.65	15812
876.778	15694
876.906	15747
877.034	15648
877.162	15743
877.29	15591
877.418	15671
877.546	15580
877.674	15675
877.802	15698
877.93	15728
878.058	15622
878.185	15580
878.313	15622
878.441	15789
878.568	15553
878.696	15572
878.824	15774
878.951	15690
879.079	15903
879.206	15903
879.333	15812
879.461	15701
879.588	15854
879.715	15918
879.842	15987
879.97	15838
880.097	15580
880.224	15572
880.351	15515
880.478	15549
880.605	15447
880.732	15500
880.859	15831
880.986	15599
881.112	15629
881.239	15443
881.366	15260
881.493	15207
881.619	15173
881.746	15260
881.872	15230
881.999	15123
882.125	15142
882.252	15245
882.378	15298
882.505	15348
882.631	15161
882.757	15043
882.883	15028
883.01	15085
883.136	15001
883.262	14933
883.388	14975
883.514	15039
883.64	15100
883.766	15043
883.892	14910
884.018	14921
884.143	15062
884.269	15146
884.395	14861
884.52	14625
884.646	14739
884.772	14655
884.897	14549
885.023	14678
885.148	14746
885.274	14914
885.399	14800
885.524	14667
885.65	14746
885.775	14815
885.9	14682
886.025	14720
886.15	14746
886.275	14686
886.4	14686
886.525	14632
886.65	14655
886.775	14739
886.9	14826
887.025	14921
887.149	14762
887.274	14606
887.399	14465
887.523	14564
887.648	14492
887.773	14530
887.897	14484
888.021	14727
888.146	14446
888.27	14701
888.395	14678
888.519	14613
888.643	14629
888.767	14552
888.891	14503
889.015	14412
889.139	14400
889.263	14374
889.387	14613
889.511	14670
889.635	14545
889.759	14446
889.883	14412
890.006	14469
890.13	14556
890.254	14423
890.377	14362
890.501	14149
890.624	14221
890.748	14343
890.871	14161
890.995	14092
891.118	14027
891.241	14073
891.364	14157
891.488	14237
891.611	14115
891.734	14130
891.857	14214
891.98	14164
892.103	14248
892.226	14100
892.349	14077
892.471	13997
892.594	14096
892.717	14119
892.839	14187
892.962	14119
893.085	14161
893.207	14096
893.33	13993
893.452	14035
893.575	14210
893.697	14069
893.819	14248
893.941	14244
894.064	14252
894.186	14081
894.308	14142
894.43	14240
894.552	14366
894.674	14183
894.796	14077
894.918	14172
895.04	14161
895.161	14252
895.283	14233
895.405	14092
895.526	14225
895.648	14206
895.769	14271
895.891	14298
896.012	14366
896.134	14332
896.255	14286
896.376	14347
896.498	14206
896.619	14248
896.74	14320
896.861	14355
896.982	14610
897.103	14845
897.224	14552
897.345	14454
897.466	14465
897.587	14560
897.708	14716
897.828	14606
897.949	14606
898.07	14461
898.19	14507
898.311	14610
898.431	14613
898.552	14590
898.672	14720
898.792	14762
898.913	14659
899.033	14617
899.153	14438
899.273	14431
899.393	14488
899.513	14583
899.633	14533
899.753	14511
899.873	14446
899.993	14568
900.113	14473
900.232	14537
900.352	14473
900.472	14309
900.591	14381
900.711	14393
900.83	14298
900.95	14396
901.069	14552
901.189	14309
901.308	14027
901.427	13974
901.546	13997
901.665	14008
901.784	14111
901.904	13993
902.023	13852
902.141	13685
902.26	13514
902.379	13647
902.498	13582
902.617	13533
902.735	13651
902.854	13586
902.973	13556
903.091	13266
903.21	13346
903.328	13304
903.446	13274
903.565	13194
903.683	13179
903.801	13057
903.919	13164
904.038	13156
904.156	12928
904.274	12996
904.392	12951
904.51	12958
904.627	12939
904.745	13012
904.863	13038
904.981	12779
905.098	12715
905.216	12620
905.334	12681
905.451	12688
905.569	12673
905.686	12673
905.803	12745
905.921	12559
906.038	12646
906.155	12574
906.272	12467
906.389	12452
906.506	12186
906.623	12296
906.74	12251
906.857	12095
906.974	12178
907.091	12300
907.208	12380
907.324	12342
907.441	12228
907.557	12087
907.674	11999
907.79	11954
907.907	12041
908.023	12003
908.139	12015
908.256	11996
908.372	11920
908.488	11977
908.604	11809
908.72	11783
908.836	11775
908.952	11714
909.068	11843
909.184	11802
909.3	11745
909.415	11821
909.531	11771
909.647	11532
909.762	11585
909.878	11570
909.993	11482
910.108	11535
910.224	11486
910.339	11604
910.454	11471
910.57	11398
910.685	11273
910.8	11608
910.915	11512
911.03	11482
911.145	11265
911.259	11235
911.374	11292
911.489	11166
911.604	11098
911.718	11048
911.833	11006
911.947	10828
912.062	10869
912.176	10995
912.291	11029
912.405	10957
912.519	11216
912.633	11277
912.748	11041
912.862	11079
912.976	10862
913.09	10694
913.204	10831
913.318	10942
913.431	11033
913.545	10995
913.659	11045
913.772	10869
913.886	10778
914	10744
914.113	10900
914.226	10904
914.34	10782
914.453	10668
914.566	10873
914.68	10725
914.793	10759
914.906	10481
915.019	10538
915.132	10436
915.245	10440
915.358	10531
915.47	10527
915.583	10550
915.696	10542
915.809	10664
915.921	10710
916.034	10535
916.146	10432
916.259	10470
916.371	10508
916.483	10577
916.595	10451
916.708	10436
916.82	10409
916.932	10405
917.044	10424
917.156	10428
917.268	10310
917.38	10253
917.491	10371
917.603	10341
917.715	10390
917.826	10428
917.938	10322
918.049	10147
918.161	10299
918.272	10489
918.384	10493
918.495	10318
918.606	10257
918.717	10128
918.828	10257
918.939	10181
919.05	10116
919.161	10257
919.272	9983
919.383	10086
919.494	10227
919.604	10535
919.715	10227
919.826	10093
919.936	10192
920.047	10344
920.157	10234
920.267	10428
920.378	10169
920.488	10234
920.598	10474
920.708	10580
920.818	10485
920.928	10322
921.038	10607
921.148	10580
921.258	10291
921.368	10177
921.477	10120
921.587	9991
921.697	10002
921.806	10078
921.916	9991
922.025	9800
922.134	9808
922.244	9747
922.353	9797
922.462	9724
922.571	9622
922.68	9477
922.789	9469
922.898	9515
923.007	9348
923.116	9515
923.224	9473
923.333	9553
923.442	9462
923.55	9310
923.659	9348
923.767	9553
923.876	9332
923.984	9386
924.092	9321
924.201	9325
924.309	9378
924.417	9340
924.525	9310
924.633	9329
924.741	10204
924.849	9070
924.956	9321
925.064	9161
925.172	9043
925.279	9077
925.387	9241
925.494	9184
925.602	9256
925.709	9294
925.816	9058
925.924	9138
926.031	9176
926.138	9123
926.245	9226
926.352	9039
926.459	9226
926.566	9291
926.673	9138
926.779	9024
926.886	8986
926.993	8925
927.099	8868
927.206	8773
927.312	8826
927.419	8880
927.525	8781
927.631	8925
927.737	8830
927.843	8739
927.95	8602
928.056	8724
928.162	8792
928.267	8804
928.373	9329
928.479	8845
928.585	8617
928.69	8758
928.796	8731
928.901	8720
929.007	8545
929.112	8682
929.218	8598
929.323	8621
929.428	8552
929.533	8674
929.638	8507
929.743	8568
929.848	8556
929.953	8541
930.058	8465
930.163	8358
930.267	8385
930.372	8495
930.477	8339
930.581	8560
930.685	8442
930.79	8275
930.894	8366
930.998	8252
931.103	8377
931.207	8062
931.311	8069
931.415	7944
931.519	7769
931.623	7742
