Data from test_V78500241_553.txt Node
Date: Fri Mar 25 14:37:34 CST 2022
User: usil
Spectrometer: V785-0024
Trigger mode: 0
Integration Time (sec): 4.000000E-1
Scans to average: 1
Nonlinearity correction enabled: false
Boxcar width: 0
Storing dark spectrum: false
XAxis mode: Wavelengths
Number of Pixels in Spectrum: 1024
>>>>>Begin Spectral Data<<<<<
801.071	27682
801.214	27500
801.356	27294
801.499	27249
801.641	27070
801.783	26994
801.926	27055
802.068	27058
802.211	26762
802.353	26773
802.496	26507
802.638	26465
802.78	26579
802.923	26488
803.065	26423
803.208	26438
803.35	26514
803.492	26560
803.635	26667
803.777	26480
803.919	26636
804.061	26880
804.204	26678
804.346	26587
804.488	26473
804.63	26499
804.773	26434
804.915	26564
805.057	26651
805.199	26609
805.341	26914
805.483	26880
805.626	26765
805.768	26678
805.91	26887
806.052	26838
806.194	26887
806.336	27180
806.478	27195
806.62	27119
806.762	27507
806.904	27762
807.046	27941
807.188	28242
807.33	28333
807.472	28519
807.614	28786
807.756	29185
807.898	29570
808.04	30437
808.182	31213
808.324	32499
808.465	33892
808.607	35455
808.749	36806
808.891	37544
809.033	37620
809.174	36719
809.316	35246
809.458	33770
809.6	32385
809.741	31114
809.883	30201
810.025	29714
810.166	29140
810.308	28782
810.45	28508
810.591	28162
810.733	27934
810.875	27701
811.016	27583
811.158	27412
811.299	27473
811.441	27648
811.582	27306
811.724	27268
811.865	27180
812.007	27207
812.148	27222
812.29	27272
812.431	27081
812.573	27233
812.714	27408
812.855	27507
812.997	27545
813.138	27610
813.279	27488
813.421	27458
813.562	27325
813.703	27123
813.845	27032
813.986	26746
814.127	26613
814.268	26317
814.41	26366
814.551	26214
814.692	26347
814.833	26290
814.974	26214
815.115	26358
815.256	26081
815.397	26039
815.539	26126
815.68	26077
815.821	25830
815.962	25902
816.103	25928
816.244	25753
816.385	25712
816.526	25575
816.666	25514
816.807	25266
816.948	25438
817.089	25438
817.23	25407
817.371	25164
817.512	25145
817.653	25274
817.793	25187
817.934	25164
818.075	25289
818.216	25312
818.356	25164
818.497	25099
818.638	25023
818.778	25042
818.919	24962
819.06	24977
819.2	25061
819.341	25160
819.481	25152
819.622	25331
819.762	25312
819.903	25472
820.043	25324
820.184	25168
820.324	25221
820.465	25335
820.605	25179
820.746	25255
820.886	25015
821.026	25198
821.167	25110
821.307	25194
821.447	24954
821.588	25000
821.728	24757
821.868	24528
822.008	24426
822.149	24433
822.289	24277
822.429	24190
822.569	24064
822.709	24171
822.849	23931
822.99	23851
823.13	23935
823.27	23843
823.41	23802
823.55	23649
823.69	23596
823.83	23604
823.97	23528
824.11	23516
824.25	23520
824.389	23471
824.529	23562
824.669	23330
824.809	23543
824.949	23395
825.089	23562
825.228	23436
825.368	23315
825.508	23170
825.648	23151
825.787	23296
825.927	23345
826.067	23132
826.206	23258
826.346	23269
826.485	23277
826.625	23269
826.765	23383
826.904	23277
827.044	23003
827.183	22889
827.323	22949
827.462	22877
827.601	22809
827.741	22911
827.88	22896
828.02	22771
828.159	22812
828.298	22896
828.437	22934
828.577	22786
828.716	22942
828.855	22691
828.994	22641
829.134	22508
829.273	22641
829.412	22607
829.551	22523
829.69	22538
829.829	22611
829.968	22653
830.107	22569
830.246	22611
830.385	22554
830.524	22573
830.663	22405
830.802	22318
830.941	22211
831.08	22078
831.219	22192
831.357	22329
831.496	22394
831.635	22192
831.774	22105
831.913	22025
832.051	21888
832.19	21975
832.329	21960
832.467	21979
832.606	21880
832.744	21819
832.883	21972
833.022	21979
833.16	22025
833.299	22097
833.437	22162
833.576	22219
833.714	22223
833.852	22348
833.991	22287
834.129	22367
834.267	22478
834.406	22398
834.544	22265
834.682	22333
834.821	22265
834.959	22325
835.097	22040
835.235	22139
835.373	22063
835.511	22109
835.65	21804
835.788	21892
835.926	21622
836.064	21500
836.202	21644
836.34	21686
836.478	21705
836.615	21766
836.753	21709
836.891	21720
837.029	21591
837.167	21549
837.305	21576
837.443	21587
837.58	21488
837.718	21481
837.856	21595
837.993	21355
838.131	21420
838.269	21454
838.406	21378
838.544	21310
838.681	21173
838.819	21214
838.956	21074
839.094	21081
839.231	21127
839.369	21116
839.506	21298
839.643	21154
839.781	20883
839.918	20887
840.055	20971
840.193	20990
840.33	20849
840.467	21009
840.604	20781
840.742	21100
840.879	20625
841.016	20804
841.153	20804
841.29	20918
841.427	20921
841.564	20899
841.701	20895
841.838	20727
841.975	20667
842.112	20693
842.249	20651
842.385	20575
842.522	20807
842.659	20617
842.796	20716
842.933	20682
843.069	20499
843.206	20602
843.343	20655
843.479	20651
843.616	20632
843.752	20404
843.889	20564
844.025	20499
844.162	20545
844.298	20545
844.435	20655
844.571	20609
844.708	20887
844.844	21093
844.98	21329
845.117	21473
845.253	21736
845.389	22565
845.525	24110
845.661	26522
845.798	29524
845.934	31993
846.07	32979
846.206	32461
846.342	30669
846.478	27606
846.614	24620
846.75	22805
846.886	21880
847.022	21222
847.158	20842
847.294	20419
847.429	20404
847.565	20096
847.701	20301
847.837	19868
847.972	19830
848.108	19795
848.244	19734
848.379	19540
848.515	19430
848.65	19518
848.786	19529
848.921	19358
849.057	19537
849.192	19495
849.328	19453
849.463	19506
849.598	19392
849.734	19304
849.869	19373
850.004	19164
850.14	19164
850.275	19187
850.41	19129
850.545	19053
850.68	19031
850.815	19156
850.95	19232
851.085	19445
851.22	19209
851.355	19156
851.49	19175
851.625	18996
851.76	19110
851.895	19012
852.03	18973
852.165	19061
852.299	19141
852.434	19232
852.569	19095
852.703	19008
852.838	19164
852.973	19350
853.107	19259
853.242	19168
853.376	19046
853.511	19019
853.645	18996
853.78	19118
853.914	19145
854.048	19152
854.183	19129
854.317	19225
854.451	19289
854.585	19114
854.72	19038
854.854	19293
854.988	19046
855.122	18993
855.256	18882
855.39	18947
855.524	19038
855.658	19072
855.792	19088
855.926	19012
856.06	18954
856.194	19000
856.327	19004
856.461	18844
856.595	18837
856.729	18871
856.862	19065
856.996	18958
857.13	19080
857.263	18981
857.397	19027
857.53	18939
857.664	18958
857.797	18981
857.931	19023
858.064	18935
858.197	18981
858.331	18852
858.464	18894
858.597	18764
858.731	18863
858.864	18772
858.997	18814
859.13	18817
859.263	18909
859.396	18939
859.529	18840
859.662	18821
859.795	18783
859.928	18844
860.061	18863
860.194	19103
860.327	18779
860.46	18825
860.592	18920
860.725	18954
860.858	18882
860.99	18817
861.123	18753
861.256	18764
861.388	18871
861.521	19358
861.653	18741
861.786	18544
861.918	18673
862.05	18616
862.183	18757
862.315	18844
862.447	18844
862.58	18741
862.712	18570
862.844	18616
862.976	18540
863.108	18547
863.24	18882
863.372	18513
863.504	18502
863.636	18551
863.768	18589
863.9	18498
864.032	18445
864.164	18445
864.296	18547
864.428	18665
864.559	18646
864.691	18422
864.823	18604
864.954	18475
865.086	18441
865.217	18452
865.349	18311
865.48	18464
865.612	18407
865.743	18559
865.875	18422
866.006	18445
866.137	18410
866.269	18452
866.4	18475
866.531	18445
866.662	18304
866.793	18384
866.924	18315
867.055	18384
867.186	18437
867.317	18346
867.448	18376
867.579	18357
867.71	18289
867.841	18311
867.972	18429
868.103	18490
868.233	18292
868.364	18319
868.495	18517
868.625	18589
868.756	18684
868.886	18509
869.017	18658
869.147	18661
869.278	18631
869.408	18688
869.539	18601
869.669	18741
869.799	18654
869.929	18829
870.06	18711
870.19	18916
870.32	18913
870.45	19107
870.58	19012
870.71	19107
870.84	19065
870.97	19004
871.1	18985
871.23	19145
871.36	19198
871.489	19122
871.619	19304
871.749	19339
871.879	19206
872.008	19392
872.138	19244
872.267	19289
872.397	19209
872.526	19141
872.656	19076
872.785	19217
872.915	19263
873.044	19426
873.173	19411
873.303	19392
873.432	19403
873.561	19578
873.69	19369
873.819	19419
873.948	19594
874.077	19453
874.206	19377
874.335	19403
874.464	19533
874.593	19765
874.722	19719
874.851	19769
874.979	19765
875.108	19890
875.237	19753
875.365	19803
875.494	19868
875.623	19963
875.751	19784
875.88	19955
876.008	20073
876.136	20187
876.265	20507
876.393	20583
876.521	20530
876.65	20556
876.778	20473
876.906	20438
877.034	20469
877.162	20484
877.29	20461
877.418	20693
877.546	20606
877.674	20651
877.802	20834
877.93	20682
878.058	20845
878.185	20853
878.313	21089
878.441	21332
878.568	21260
878.696	21625
878.824	22002
878.951	22436
879.079	23170
879.206	24323
879.333	25110
879.461	25879
879.588	26427
879.715	26594
879.842	26107
879.97	25046
880.097	24068
880.224	23166
880.351	22839
880.478	22421
880.605	22055
880.732	21895
880.859	21998
880.986	21751
881.112	21789
881.239	21583
881.366	21473
881.493	21424
881.619	21264
881.746	21279
881.872	21325
881.999	21401
882.125	21260
882.252	21424
882.378	21374
882.505	21412
882.631	21412
882.757	21268
882.883	21195
883.01	21188
883.136	21024
883.262	21081
883.388	21043
883.514	21188
883.64	21146
883.766	21062
883.892	20880
884.018	20956
884.143	21157
884.269	21116
884.395	20918
884.52	20845
884.646	20857
884.772	20823
884.897	20712
885.023	20929
885.148	20849
885.274	21043
885.399	20807
885.524	20750
885.65	20705
885.775	20613
885.9	20480
886.025	20678
886.15	20533
886.275	20351
886.4	20221
886.525	20233
886.65	20172
886.775	20134
886.9	20149
887.025	20317
887.149	19959
887.274	19830
887.399	19738
887.523	19655
887.648	19537
887.773	19533
887.897	19548
888.021	19540
888.146	19483
888.27	19548
888.395	19616
888.519	19506
888.643	19449
888.767	19400
888.891	19350
889.015	19236
889.139	19099
889.263	19156
889.387	19301
889.511	19327
889.635	19259
889.759	19088
889.883	19046
890.006	19042
890.13	19103
890.254	18890
890.377	18935
890.501	18730
890.624	18798
890.748	18867
890.871	18597
890.995	18528
891.118	18445
891.241	18517
891.364	18601
891.488	18700
891.611	18616
891.734	18494
891.857	18646
891.98	18445
892.103	18692
892.226	18578
892.349	18407
892.471	18152
892.594	18376
892.717	18380
892.839	18224
892.962	18407
893.085	18483
893.207	18376
893.33	18213
893.452	18270
893.575	18323
893.697	18251
893.819	18410
893.941	18445
894.064	18464
894.186	18133
894.308	18174
894.43	18353
894.552	18209
894.674	18251
894.796	18098
894.918	18174
895.04	18087
895.161	18361
895.283	18304
895.405	18125
895.526	18174
895.648	17973
895.769	18174
895.891	18220
896.012	18277
896.134	18315
896.255	18125
896.376	18220
896.498	18144
896.619	18197
896.74	18163
896.861	18155
896.982	18509
897.103	18665
897.224	18509
897.345	18361
897.466	18292
897.587	18357
897.708	18490
897.828	18395
897.949	18224
898.07	18292
898.19	18319
898.311	18448
898.431	18319
898.552	18330
898.672	18464
898.792	18338
898.913	18426
899.033	18190
899.153	18292
899.273	18155
899.393	18270
899.513	18201
899.633	18194
899.753	18209
899.873	18186
899.993	18228
900.113	18041
900.232	18178
900.352	18011
900.472	18106
900.591	17920
900.711	17992
900.83	17878
900.95	17988
901.069	18019
901.189	17863
901.308	17657
901.427	17532
901.546	17486
901.665	17516
901.784	17562
901.904	17353
902.023	17330
902.141	17231
902.26	17060
902.379	17140
902.498	17117
902.617	17041
902.735	17041
902.854	17018
902.973	16949
903.091	16698
903.21	16725
903.328	16683
903.446	16668
903.565	16538
903.683	16485
903.801	16428
903.919	16516
904.038	16481
904.156	16375
904.274	16421
904.392	16382
904.51	16211
904.627	16219
904.745	16325
904.863	16333
904.981	16021
905.098	15937
905.216	15880
905.334	15972
905.451	15888
905.569	15823
905.686	15975
905.803	15869
905.921	15720
906.038	15747
906.155	15739
906.272	15610
906.389	15557
906.506	15454
906.623	15405
906.74	15408
906.857	15260
906.974	15340
907.091	15428
907.208	15416
907.324	15477
907.441	15348
907.557	15119
907.674	15135
907.79	15108
907.907	15005
908.023	15104
908.139	15123
908.256	15077
908.372	15028
908.488	14891
908.604	14834
908.72	14792
908.836	14807
908.952	14765
909.068	14834
909.184	14906
909.3	14743
909.415	14724
909.531	14815
909.647	14632
909.762	14537
909.878	14476
909.993	14503
910.108	14476
910.224	14587
910.339	14419
910.454	14434
910.57	14355
910.685	14332
910.8	14598
910.915	14374
911.03	14290
911.145	14214
911.259	14134
911.374	14145
911.489	14103
911.604	14005
911.718	13890
911.833	13913
911.947	13852
912.062	13803
912.176	13788
912.291	13917
912.405	13852
912.519	14035
912.633	14069
912.748	13887
912.862	13837
912.976	13788
913.09	13685
913.204	13715
913.318	13731
913.431	13841
913.545	13811
913.659	13917
913.772	13575
913.886	13594
914	13506
914.113	13662
914.226	13647
914.34	13616
914.453	13525
914.566	13639
914.68	13487
914.793	13400
914.906	13304
915.019	13198
915.132	13133
915.245	13194
915.358	13247
915.47	13240
915.583	13335
915.696	13240
915.809	13335
915.921	13422
916.034	13164
916.146	13190
916.259	13171
916.371	13266
916.483	13304
916.595	13175
916.708	13129
916.82	13110
916.932	13168
917.044	13107
917.156	13133
917.268	12996
917.38	13076
917.491	13019
917.603	13004
917.715	13004
917.826	13019
917.938	12825
918.049	12882
918.161	12909
918.272	13008
918.384	13031
918.495	13038
918.606	12764
918.717	12703
918.828	12787
918.939	12829
919.05	12700
919.161	12738
919.272	12509
919.383	12513
919.494	12768
919.604	12875
919.715	12753
919.826	12665
919.936	12631
920.047	12764
920.157	12715
920.267	12882
920.378	12722
920.488	12627
920.598	12916
920.708	12901
920.818	12848
920.928	12829
921.038	12947
921.148	12951
921.258	12631
921.368	12578
921.477	12532
921.587	12471
921.697	12327
921.806	12471
921.916	12384
922.025	12254
922.134	12148
922.244	12045
922.353	12155
922.462	12022
922.571	11855
922.68	11832
922.789	11790
922.898	11764
923.007	11707
923.116	11832
923.224	11840
923.333	11741
923.442	11710
923.55	11589
923.659	11619
923.767	11714
923.876	11600
923.984	11649
924.092	11493
924.201	11573
924.309	11570
924.417	11676
924.525	11482
924.633	11592
924.741	12296
924.849	11364
924.956	11448
925.064	11337
925.172	11242
925.279	11307
925.387	11315
925.494	11318
925.602	11478
925.709	11376
925.816	11201
925.924	11269
926.031	11364
926.138	11277
926.245	11406
926.352	11231
926.459	11341
926.566	11391
926.673	11201
926.779	11140
926.886	11067
926.993	10972
927.099	10892
927.206	10942
927.312	10889
927.419	10946
927.525	10866
927.631	10930
927.737	10869
927.843	10744
927.95	10740
928.056	10774
928.162	10812
928.267	10801
928.373	11368
928.479	10824
928.585	10626
928.69	10782
928.796	10786
928.901	10687
929.007	10550
929.112	10603
929.218	10664
929.323	10542
929.428	10577
929.533	10596
929.638	10550
929.743	10523
929.848	10577
929.953	10497
930.058	10375
930.163	10249
930.267	10299
930.372	10440
930.477	10204
930.581	10432
930.685	10352
930.79	10093
930.894	10196
930.998	10154
931.103	10227
931.207	9911
931.311	9895
931.415	9842
931.519	9682
931.623	9641
