Data from test_V78500241_1142.txt Node
Date: Fri Mar 25 14:41:40 CST 2022
User: usil
Spectrometer: V785-0024
Trigger mode: 0
Integration Time (sec): 4.000000E-1
Scans to average: 1
Nonlinearity correction enabled: false
Boxcar width: 0
Storing dark spectrum: false
XAxis mode: Wavelengths
Number of Pixels in Spectrum: 1024
>>>>>Begin Spectral Data<<<<<
801.071	22542
801.214	22599
801.356	22295
801.499	22101
801.641	21983
801.783	21956
801.926	22010
802.068	21899
802.211	21709
802.353	21724
802.496	21481
802.638	21447
802.78	21420
802.923	21344
803.065	21249
803.208	21252
803.35	21283
803.492	21310
803.635	21408
803.777	21184
803.919	21332
804.061	21682
804.204	21329
804.346	21298
804.488	21237
804.63	21226
804.773	21112
804.915	21214
805.057	21260
805.199	21173
805.341	21405
805.483	21351
805.626	21306
805.768	21169
805.91	21245
806.052	21157
806.194	21039
806.336	21382
806.478	21188
806.62	21104
806.762	21272
806.904	21336
807.046	21637
807.188	21587
807.33	21561
807.472	21637
807.614	21545
807.756	21614
807.898	21443
808.04	21351
808.182	21435
808.324	21488
808.465	21504
808.607	21633
808.749	21949
808.891	22010
809.033	22017
809.174	21781
809.316	21751
809.458	21846
809.6	21717
809.741	21766
809.883	21812
810.025	21972
810.166	21884
810.308	21785
810.45	21766
810.591	21732
810.733	21542
810.875	21469
811.016	21355
811.158	21374
811.299	21496
811.441	21549
811.582	21542
811.724	21424
811.865	21344
812.007	21382
812.148	21401
812.29	21458
812.431	21652
812.573	21751
812.714	21846
812.855	21903
812.997	21949
813.138	22158
813.279	22051
813.421	21827
813.562	21793
813.703	21538
813.845	21610
813.986	21359
814.127	21161
814.268	21176
814.41	21085
814.551	20960
814.692	21009
814.833	20895
814.974	20902
815.115	20910
815.256	20720
815.397	20735
815.539	20895
815.68	20712
815.821	20640
815.962	20720
816.103	20724
816.244	20648
816.385	20533
816.526	20454
816.666	20259
816.807	20096
816.948	20176
817.089	20180
817.23	20218
817.371	20043
817.512	20039
817.653	20130
817.793	20024
817.934	20100
818.075	20081
818.216	20073
818.356	19978
818.497	19890
818.638	19811
818.778	19868
818.919	19826
819.06	19849
819.2	19951
819.341	19936
819.481	20039
819.622	20206
819.762	20404
819.903	20248
820.043	20195
820.184	20058
820.324	19989
820.465	20134
820.605	20134
820.746	20172
820.886	20035
821.026	19928
821.167	20092
821.307	20054
821.447	19993
821.588	19875
821.728	19772
821.868	19628
822.008	19480
822.149	19518
822.289	19453
822.429	19202
822.569	19179
822.709	19301
822.849	19023
822.99	18951
823.13	19008
823.27	18947
823.41	18783
823.55	18783
823.69	18825
823.83	18829
823.97	18734
824.11	18517
824.25	18544
824.389	18506
824.529	18661
824.669	18513
824.809	18688
824.949	18707
825.089	18669
825.228	18525
825.368	18494
825.508	18429
825.648	18388
825.787	18471
825.927	18361
826.067	18251
826.206	18251
826.346	18410
826.485	18437
826.625	18266
826.765	18528
826.904	18277
827.044	18117
827.183	18045
827.323	18057
827.462	18117
827.601	18015
827.741	18114
827.88	18068
828.02	17939
828.159	18003
828.298	18053
828.437	18030
828.577	18034
828.716	18171
828.855	18030
828.994	17764
829.134	17737
829.273	17885
829.412	17775
829.551	17821
829.69	17813
829.829	17748
829.968	18015
830.107	17824
830.246	17851
830.385	17737
830.524	17665
830.663	17638
830.802	17410
830.941	17356
831.08	17436
831.219	17459
831.357	17421
831.496	17684
831.635	17414
831.774	17360
831.913	17269
832.051	17242
832.19	17277
832.329	17296
832.467	17227
832.606	17109
832.744	17086
832.883	17052
833.022	17006
833.16	17128
833.299	17136
833.437	17094
833.576	17197
833.714	17227
833.852	17223
833.991	17216
834.129	17254
834.267	17242
834.406	17181
834.544	17216
834.682	17212
834.821	17117
834.959	17261
835.097	17193
835.235	17353
835.373	17117
835.511	17212
835.65	17041
835.788	17147
835.926	16908
836.064	16923
836.202	16835
836.34	17105
836.478	17045
836.615	16957
836.753	17052
836.891	17159
837.029	17109
837.167	17029
837.305	16904
837.443	16942
837.58	16892
837.718	17003
837.856	16949
837.993	16896
838.131	17045
838.269	16911
838.406	16858
838.544	16828
838.681	16641
838.819	16504
838.956	16489
839.094	16447
839.231	16516
839.369	16645
839.506	16904
839.643	16744
839.781	16470
839.918	16455
840.055	16531
840.193	16474
840.33	16462
840.467	16428
840.604	16474
840.742	16691
840.879	16333
841.016	16352
841.153	16291
841.29	16584
841.427	16558
841.564	16402
841.701	16432
841.838	16443
841.975	16405
842.112	16424
842.249	16314
842.385	16284
842.522	16390
842.659	16306
842.796	16234
842.933	16265
843.069	16234
843.206	16150
843.343	16322
843.479	16196
843.616	16177
843.752	16147
843.889	16082
844.025	16169
844.162	15960
844.298	16143
844.435	16093
844.571	15972
844.708	16112
844.844	16272
844.98	16238
845.117	16196
845.253	15968
845.389	15964
845.525	16013
845.661	16036
845.798	15972
845.934	16124
846.07	16200
846.206	16226
846.342	16204
846.478	16044
846.614	15793
846.75	15618
846.886	15637
847.022	15698
847.158	15660
847.294	15625
847.429	15561
847.565	15584
847.701	15816
847.837	15291
847.972	15256
848.108	15382
848.244	15420
848.379	15287
848.515	15165
848.65	15104
848.786	15173
848.921	15207
849.057	15313
849.192	15332
849.328	15306
849.463	15184
849.598	15100
849.734	15093
849.869	15055
850.004	14941
850.14	14944
850.275	14998
850.41	14921
850.545	14868
850.68	14891
850.815	15051
850.95	14883
851.085	15180
851.22	15062
851.355	14918
851.49	14906
851.625	14914
851.76	14891
851.895	14819
852.03	14883
852.165	14921
852.299	14914
852.434	15085
852.569	14937
852.703	14921
852.838	15097
852.973	15184
853.107	15028
853.242	14918
853.376	14876
853.511	14720
853.645	14693
853.78	14960
853.914	14785
854.048	14773
854.183	14743
854.317	14826
854.451	14948
854.585	14834
854.72	14788
854.854	14830
854.988	14823
855.122	14819
855.256	14765
855.39	14762
855.524	14864
855.658	14902
855.792	14746
855.926	14773
856.06	14883
856.194	14895
856.327	14792
856.461	14773
856.595	14796
856.729	14838
856.862	14891
856.996	14868
857.13	14902
857.263	14967
857.397	14944
857.53	14849
857.664	14929
857.797	14792
857.931	14906
858.064	14800
858.197	14918
858.331	14823
858.464	14785
858.597	14712
858.731	14735
858.864	14834
858.997	14758
859.13	14845
859.263	14804
859.396	14842
859.529	14815
859.662	14804
859.795	14800
859.928	14834
860.061	15047
860.194	14952
860.327	14834
860.46	14880
860.592	14956
860.725	14982
860.858	14921
860.99	14883
861.123	14826
861.256	14758
861.388	14815
861.521	15606
861.653	14727
861.786	14670
861.918	14697
862.05	14727
862.183	14743
862.315	14781
862.447	14830
862.58	14823
862.712	14579
862.844	14530
862.976	14724
863.108	14606
863.24	15043
863.372	14625
863.504	14617
863.636	14571
863.768	14575
863.9	14613
864.032	14461
864.164	14556
864.296	14610
864.428	14644
864.559	14670
864.691	14602
864.823	14640
864.954	14678
865.086	14659
865.217	14632
865.349	14522
865.48	14651
865.612	14606
865.743	14712
865.875	14613
866.006	14499
866.137	14537
866.269	14613
866.4	14575
866.531	14495
866.662	14431
866.793	14480
866.924	14579
867.055	14598
867.186	14518
867.317	14511
867.448	14530
867.579	14511
867.71	14488
867.841	14522
867.972	14469
868.103	14545
868.233	14587
868.364	14613
868.495	14594
868.625	14823
868.756	14899
868.886	14663
869.017	14765
869.147	14861
869.278	14857
869.408	14880
869.539	14716
869.669	14819
869.799	14910
869.929	14956
870.06	14887
870.19	15077
870.32	15119
870.45	15146
870.58	15264
870.71	15302
870.84	15306
870.97	15237
871.1	15157
871.23	15454
871.36	15272
871.489	15260
871.619	15397
871.749	15386
871.879	15420
872.008	15469
872.138	15355
872.267	15443
872.397	15382
872.526	15233
872.656	15245
872.785	15226
872.915	15500
873.044	15519
873.173	15401
873.303	15412
873.432	15534
873.561	15580
873.69	15435
873.819	15416
873.948	15545
874.077	15454
874.206	15496
874.335	15538
874.464	15530
874.593	15732
874.722	15778
874.851	15793
874.979	15778
875.108	15751
875.237	15755
875.365	15743
875.494	15686
875.623	15781
875.751	15778
875.88	15755
876.008	15926
876.136	15960
876.265	16120
876.393	16261
876.521	16238
876.65	16242
876.778	16249
876.906	16230
877.034	16177
877.162	16181
877.29	16025
877.418	16207
877.546	16074
877.674	16169
877.802	16162
877.93	16173
878.058	16147
878.185	16105
878.313	16185
878.441	16207
878.568	15987
878.696	16166
878.824	16169
878.951	16268
879.079	16417
879.206	16550
879.333	16352
879.461	16363
879.588	16405
879.715	16417
879.842	16607
879.97	16295
880.097	16120
880.224	16154
880.351	15994
880.478	16128
880.605	15994
880.732	16048
880.859	16299
880.986	15975
881.112	16158
881.239	15915
881.366	15797
881.493	15808
881.619	15717
881.746	15679
881.872	15770
881.999	15587
882.125	15698
882.252	15778
882.378	15789
882.505	15888
882.631	15667
882.757	15473
882.883	15538
883.01	15530
883.136	15473
883.262	15397
883.388	15355
883.514	15618
883.64	15473
883.766	15538
883.892	15393
884.018	15317
884.143	15519
884.269	15648
884.395	15321
884.52	15184
884.646	15302
884.772	15161
884.897	15192
885.023	15245
885.148	15378
885.274	15370
885.399	15401
885.524	15218
885.65	15146
885.775	15306
885.9	15203
886.025	15340
886.15	15287
886.275	15214
886.4	15058
886.525	15146
886.65	15138
886.775	15218
886.9	15386
887.025	15507
887.149	15222
887.274	15024
887.399	15024
887.523	15066
887.648	14933
887.773	14960
887.897	15093
888.021	15062
888.146	15043
888.27	15089
888.395	15203
888.519	15013
888.643	15020
888.767	15165
888.891	14910
889.015	14944
889.139	14948
889.263	14914
889.387	15013
889.511	15055
889.635	14960
889.759	14868
889.883	14880
890.006	14960
890.13	14963
890.254	14773
890.377	14800
890.501	14659
890.624	14663
890.748	14792
890.871	14537
890.995	14617
891.118	14400
891.241	14651
891.364	14549
891.488	14689
891.611	14560
891.734	14568
891.857	14667
891.98	14564
892.103	14610
892.226	14613
892.349	14568
892.471	14362
892.594	14465
892.717	14610
892.839	14476
892.962	14560
893.085	14659
893.207	14438
893.33	14381
893.452	14423
893.575	14579
893.697	14507
893.819	14739
893.941	14739
894.064	14743
894.186	14545
894.308	14533
894.43	14602
894.552	14849
894.674	14674
894.796	14530
894.918	14518
895.04	14632
895.161	14689
895.283	14708
895.405	14629
895.526	14636
895.648	14587
895.769	14670
895.891	14629
896.012	14769
896.134	14625
896.255	14663
896.376	14689
896.498	14735
896.619	14735
896.74	14765
896.861	14697
896.982	15051
897.103	15165
897.224	15104
897.345	14967
897.466	14902
897.587	15062
897.708	15074
897.828	14982
897.949	14804
898.07	14826
898.19	14918
898.311	15104
898.431	14948
898.552	14998
898.672	15119
898.792	15165
898.913	15001
899.033	14998
899.153	14830
899.273	14857
899.393	14815
899.513	14963
899.633	14914
899.753	14876
899.873	14895
899.993	14986
900.113	14834
900.232	14975
900.352	14880
900.472	14834
900.591	14788
900.711	14705
900.83	14724
900.95	14815
901.069	14941
901.189	14686
901.308	14389
901.427	14377
901.546	14446
901.665	14442
901.784	14427
901.904	14199
902.023	14164
902.141	14039
902.26	13993
902.379	14107
902.498	13947
902.617	13970
902.735	14024
902.854	14001
902.973	13967
903.091	13696
903.21	13674
903.328	13704
903.446	13674
903.565	13540
903.683	13559
903.801	13556
903.919	13472
904.038	13518
904.156	13377
904.274	13377
904.392	13354
904.51	13331
904.627	13358
904.745	13403
904.863	13388
904.981	13095
905.098	13122
905.216	13084
905.334	13084
905.451	13031
905.569	13042
905.686	13061
905.803	13042
905.921	12985
906.038	12920
906.155	12901
906.272	12814
906.389	12798
906.506	12673
906.623	12700
906.74	12540
906.857	12528
906.974	12467
907.091	12715
907.208	12749
907.324	12658
907.441	12578
907.557	12460
907.674	12353
907.79	12353
907.907	12273
908.023	12357
908.139	12350
908.256	12380
908.372	12285
908.488	12270
908.604	12083
908.72	12152
908.836	12129
908.952	12106
909.068	12102
909.184	12281
909.3	12136
909.415	12205
909.531	12190
909.647	11885
909.762	11828
909.878	11885
909.993	11870
910.108	11870
910.224	11843
910.339	11828
910.454	11710
910.57	11802
910.685	11707
910.8	11874
910.915	11813
911.03	11748
911.145	11608
911.259	11611
911.374	11627
911.489	11493
911.604	11402
911.718	11345
911.833	11372
911.947	11269
912.062	11090
912.176	11345
912.291	11273
912.405	11349
912.519	11543
912.633	11551
912.748	11452
912.862	11421
912.976	11235
913.09	11147
913.204	11136
913.318	11227
913.431	11341
913.545	11280
913.659	11292
913.772	11212
913.886	11166
914	10995
914.113	11170
914.226	11208
914.34	11254
914.453	11003
914.566	11143
914.68	11083
914.793	11086
914.906	10866
915.019	10805
915.132	10725
915.245	10809
915.358	10911
915.47	10820
915.583	10885
915.696	10919
915.809	10984
915.921	11018
916.034	10748
916.146	10725
916.259	10729
916.371	10839
916.483	10797
916.595	10714
916.708	10733
916.82	10771
916.932	10740
917.044	10736
917.156	10683
917.268	10607
917.38	10729
917.491	10622
917.603	10580
917.715	10786
917.826	10702
917.938	10542
918.049	10516
918.161	10721
918.272	10797
918.384	10786
918.495	10683
918.606	10523
918.717	10478
918.828	10512
918.939	10516
919.05	10466
919.161	10512
919.272	10276
919.383	10455
919.494	10565
919.604	10641
919.715	10516
919.826	10497
919.936	10489
920.047	10630
920.157	10592
920.267	10721
920.378	10599
920.488	10516
920.598	10763
920.708	10953
920.818	10710
920.928	10725
921.038	10930
921.148	10809
921.258	10504
921.368	10542
921.477	10367
921.587	10322
921.697	10147
921.806	10440
921.916	10188
922.025	10093
922.134	10044
922.244	10017
922.353	10086
922.462	9922
922.571	9857
922.68	9751
922.789	9736
922.898	9709
923.007	9732
923.116	9804
923.224	9717
923.333	9656
923.442	9614
923.55	9622
923.659	9644
923.767	9732
923.876	9595
923.984	9698
924.092	9633
924.201	9572
924.309	9644
924.417	9671
924.525	9576
924.633	9549
924.741	10303
924.849	9374
924.956	9519
925.064	9355
925.172	9351
925.279	9336
925.387	9378
925.494	9389
925.602	9500
925.709	9523
925.816	9283
925.924	9424
926.031	9511
926.138	9382
926.245	9477
926.352	9230
926.459	9485
926.566	9454
926.673	9420
926.779	9249
926.886	9249
926.993	9184
927.099	9119
927.206	9043
927.312	9085
927.419	9192
927.525	9112
927.631	9138
927.737	8941
927.843	8952
927.95	8937
928.056	8960
928.162	9005
928.267	9100
928.373	9652
928.479	9066
928.585	8941
928.69	8956
928.796	9020
928.901	8880
929.007	8792
929.112	8952
929.218	8819
929.323	8758
929.428	8815
929.533	8921
929.638	8792
929.743	8766
929.848	8876
929.953	8800
930.058	8708
930.163	8530
930.267	8579
930.372	8788
930.477	8537
930.581	8720
930.685	8560
930.79	8518
930.894	8492
930.998	8492
931.103	8655
931.207	8336
931.311	8244
931.415	8180
931.519	8046
931.623	7978
