Data from test_V78500241_151.txt Node
Date: Fri Mar 25 14:34:46 CST 2022
User: usil
Spectrometer: V785-0024
Trigger mode: 0
Integration Time (sec): 4.000000E-1
Scans to average: 1
Nonlinearity correction enabled: false
Boxcar width: 0
Storing dark spectrum: false
XAxis mode: Wavelengths
Number of Pixels in Spectrum: 1024
>>>>>Begin Spectral Data<<<<<
801.071	29235
801.214	29105
801.356	28881
801.499	28869
801.641	28626
801.783	28679
801.926	28634
802.068	28580
802.211	28436
802.353	28557
802.496	28261
802.638	28295
802.78	28295
802.923	28360
803.065	28280
803.208	28272
803.35	28322
803.492	28344
803.635	28459
803.777	28527
803.919	28538
804.061	28771
804.204	28493
804.346	28356
804.488	28310
804.63	28493
804.773	28379
804.915	28508
805.057	28500
805.199	28489
805.341	28641
805.483	28713
805.626	28759
805.768	28580
805.91	28820
806.052	28877
806.194	28812
806.336	28999
806.478	28987
806.62	29010
806.762	29056
806.904	29269
807.046	29493
807.188	29752
807.33	29878
807.472	30129
807.614	30353
807.756	30589
807.898	30856
808.04	31263
808.182	31966
808.324	32781
808.465	33778
808.607	34752
808.749	35767
808.891	36235
809.033	36361
809.174	35722
809.316	34752
809.458	33618
809.6	32571
809.741	31845
809.883	31244
810.025	30935
810.166	30589
810.308	30281
810.45	30106
810.591	29969
810.733	29691
810.875	29585
811.016	29516
811.158	29273
811.299	29311
811.441	29421
811.582	29318
811.724	29200
811.865	29098
812.007	29121
812.148	29071
812.29	29197
812.431	29056
812.573	29318
812.714	29379
812.855	29486
812.997	29425
813.138	29783
813.279	29459
813.421	29315
813.562	29315
813.703	29170
813.845	29094
813.986	28752
814.127	28675
814.268	28542
814.41	28485
814.551	28440
814.692	28417
814.833	28363
814.974	28421
815.115	28382
815.256	28394
815.397	28150
815.539	28185
815.68	28120
815.821	28173
815.962	28150
816.103	28044
816.244	27991
816.385	27846
816.526	27857
816.666	27545
816.807	27572
816.948	27515
817.089	27606
817.23	27458
817.371	27545
817.512	27325
817.653	27370
817.793	27435
817.934	27481
818.075	27447
818.216	27306
818.356	27458
818.497	27169
818.638	27218
818.778	27074
818.919	27176
819.06	27241
819.2	27157
819.341	27507
819.481	27405
819.622	27431
819.762	27675
819.903	27542
820.043	27412
820.184	27401
820.324	27420
820.465	27412
820.605	27325
820.746	27393
820.886	27237
821.026	27264
821.167	27207
821.307	27374
821.447	27108
821.588	27070
821.728	27150
821.868	26769
822.008	26693
822.149	26796
822.289	26579
822.429	26484
822.569	26419
822.709	26419
822.849	26199
822.99	26229
823.13	26157
823.27	26202
823.41	25883
823.55	25830
823.69	26081
823.83	25830
823.97	25947
824.11	25696
824.25	25635
824.389	25750
824.529	25719
824.669	25548
824.809	25864
824.949	25875
825.089	25818
825.228	25742
825.368	25689
825.508	25533
825.648	25548
825.787	25590
825.927	25548
826.067	25476
826.206	25483
826.346	25567
826.485	25628
826.625	25495
826.765	25529
826.904	25499
827.044	25346
827.183	25209
827.323	25057
827.462	25194
827.601	25126
827.741	25118
827.88	25145
828.02	25141
828.159	25175
828.298	25107
828.437	25164
828.577	25053
828.716	25168
828.855	25141
828.994	24863
829.134	24973
829.273	24966
829.412	24901
829.551	24768
829.69	24867
829.829	24760
829.968	24890
830.107	24916
830.246	24859
830.385	24852
830.524	24700
830.663	24681
830.802	24574
830.941	24513
831.08	24471
831.219	24513
831.357	24521
831.496	24597
831.635	24471
831.774	24254
831.913	24209
832.051	24247
832.19	24190
832.329	24220
832.467	24190
832.606	24121
832.744	24102
832.883	24159
833.022	24102
833.16	24224
833.299	24247
833.437	24228
833.576	24292
833.714	24342
833.852	24289
833.991	24494
834.129	24410
834.267	24441
834.406	24437
834.544	24376
834.682	24365
834.821	24289
834.959	24410
835.097	24224
835.235	24216
835.373	24114
835.511	24049
835.65	23958
835.788	24026
835.926	23863
836.064	23691
836.202	23687
836.34	23843
836.478	23973
836.615	23847
836.753	23916
836.891	23901
837.029	23847
837.167	23729
837.305	23695
837.443	23554
837.58	23558
837.718	23703
837.856	23695
837.993	23486
838.131	23676
838.269	23539
838.406	23528
838.544	23478
838.681	23299
838.819	23307
838.956	23151
839.094	23102
839.231	23162
839.369	23318
839.506	23448
839.643	23246
839.781	23113
839.918	23003
840.055	22965
840.193	23044
840.33	23018
840.467	22923
840.604	22904
840.742	23189
840.879	22877
841.016	22889
841.153	22877
841.29	23052
841.427	22892
841.564	22968
841.701	22938
841.838	22934
841.975	22908
842.112	22812
842.249	22710
842.385	22740
842.522	22847
842.659	22755
842.796	22675
842.933	22717
843.069	22615
843.206	22687
843.343	22812
843.479	22835
843.616	22767
843.752	22630
843.889	22462
844.025	22675
844.162	22512
844.298	22675
844.435	22573
844.571	22645
844.708	22748
844.844	22991
844.98	23052
845.117	23368
845.253	23463
845.389	23931
845.525	25015
845.661	26621
845.798	28706
845.934	30330
846.07	31129
846.206	30726
846.342	29524
846.478	27287
846.614	25217
846.75	23927
846.886	23235
847.022	22809
847.158	22535
847.294	22322
847.429	22257
847.565	22200
847.701	22424
847.837	21778
847.972	21660
848.108	21724
848.244	21850
848.379	21564
848.515	21428
848.65	21561
848.786	21545
848.921	21568
849.057	21439
849.192	21466
849.328	21511
849.463	21591
849.598	21363
849.734	21260
849.869	21336
850.004	21218
850.14	21264
850.275	21222
850.41	21298
850.545	21230
850.68	21264
850.815	21093
850.95	21100
851.085	21298
851.22	21154
851.355	21222
851.49	21180
851.625	21127
851.76	20975
851.895	21043
852.03	21032
852.165	21081
852.299	21195
852.434	21321
852.569	21252
852.703	21211
852.838	21260
852.973	21211
853.107	21397
853.242	21047
853.376	21085
853.511	20944
853.645	21043
853.78	21157
853.914	21104
854.048	21116
854.183	20979
854.317	21009
854.451	21279
854.585	21043
854.72	21020
854.854	21119
854.988	20979
855.122	21077
855.256	20857
855.39	21055
855.524	21024
855.658	20986
855.792	20990
855.926	21039
856.06	20998
856.194	20941
856.327	21028
856.461	21024
856.595	20891
856.729	20899
856.862	20979
856.996	20963
857.13	21070
857.263	21142
857.397	21036
857.53	20819
857.664	20914
857.797	21009
857.931	21032
858.064	20921
858.197	21062
858.331	20842
858.464	20708
858.597	20655
858.731	20842
858.864	20880
858.997	20830
859.13	20864
859.263	20845
859.396	20937
859.529	20876
859.662	20925
859.795	20906
859.928	20891
860.061	20876
860.194	21013
860.327	20754
860.46	20746
860.592	20986
860.725	20944
860.858	21017
860.99	20788
861.123	20655
861.256	20819
861.388	20880
861.521	21492
861.653	20667
861.786	20655
861.918	20750
862.05	20708
862.183	20941
862.315	20807
862.447	20868
862.58	20838
862.712	20648
862.844	20431
862.976	20545
863.108	20659
863.24	20853
863.372	20457
863.504	20549
863.636	20545
863.768	20640
863.9	20415
864.032	20465
864.164	20480
864.296	20617
864.428	20442
864.559	20552
864.691	20533
864.823	20488
864.954	20495
865.086	20415
865.217	20343
865.349	20267
865.48	20484
865.612	20488
865.743	20446
865.875	20495
866.006	20381
866.137	20412
866.269	20427
866.4	20446
866.531	20301
866.662	20339
866.793	20393
866.924	20404
867.055	20309
867.186	20423
867.317	20339
867.448	20206
867.579	20286
867.71	20240
867.841	20202
867.972	20358
868.103	20332
868.233	20332
868.364	20313
868.495	20434
868.625	20537
868.756	20598
868.886	20495
869.017	20590
869.147	20583
869.278	20670
869.408	20659
869.539	20549
869.669	20667
869.799	20629
869.929	20712
870.06	20880
870.19	20864
870.32	20739
870.45	20910
870.58	20933
870.71	21009
870.84	21036
870.97	20982
871.1	20883
871.23	21096
871.36	21203
871.489	21005
871.619	21127
871.749	21138
871.879	21203
872.008	21291
872.138	21207
872.267	21218
872.397	21233
872.526	21036
872.656	21005
872.785	21009
872.915	21317
873.044	21291
873.173	21291
873.303	21287
873.432	21279
873.561	21431
873.69	21237
873.819	21268
873.948	21252
874.077	21405
874.206	21256
874.335	21401
874.464	21496
874.593	21519
874.722	21576
874.851	21694
874.979	21713
875.108	21736
875.237	21603
875.365	21587
875.494	21641
875.623	21759
875.751	21641
875.88	21709
876.008	21819
876.136	21926
876.265	22097
876.393	22265
876.521	22352
876.65	22348
876.778	22204
876.906	22287
877.034	22207
877.162	22253
877.29	22230
877.418	22272
877.546	22265
877.674	22360
877.802	22299
877.93	22405
878.058	22489
878.185	22428
878.313	22580
878.441	22717
878.568	22649
878.696	22980
878.824	23288
878.951	23585
879.079	24136
879.206	24909
879.333	25514
879.461	26024
879.588	26389
879.715	26507
879.842	26225
879.97	25525
880.097	24715
880.224	24171
880.351	23741
880.478	23570
880.605	23204
880.732	23098
880.859	23318
880.986	23014
881.112	23006
881.239	22801
881.366	22748
881.493	22588
881.619	22569
881.746	22512
881.872	22698
881.999	22637
882.125	22561
882.252	22637
882.378	22569
882.505	22812
882.631	22569
882.757	22481
882.883	22478
883.01	22443
883.136	22405
883.262	22246
883.388	22177
883.514	22413
883.64	22421
883.766	22405
883.892	22272
884.018	22314
884.143	22337
884.269	22443
884.395	22078
884.52	22078
884.646	22032
884.772	21983
884.897	21911
885.023	22017
885.148	22128
885.274	22169
885.399	22067
885.524	21934
885.65	21987
885.775	21926
885.9	21831
886.025	21953
886.15	21812
886.275	21622
886.4	21519
886.525	21545
886.65	21507
886.775	21424
886.9	21614
887.025	21606
887.149	21450
887.274	21325
887.399	21218
887.523	21157
887.648	21036
887.773	20971
887.897	21085
888.021	21081
888.146	20921
888.27	21032
888.395	21074
888.519	21108
888.643	20967
888.767	20979
888.891	20781
889.015	20785
889.139	20815
889.263	20651
889.387	20785
889.511	20857
889.635	20785
889.759	20613
889.883	20629
890.006	20590
890.13	20613
890.254	20537
890.377	20480
890.501	20214
890.624	20419
890.748	20461
890.871	20271
890.995	20107
891.118	20183
891.241	20153
891.364	20240
891.488	20313
891.611	20111
891.734	20084
891.857	20119
891.98	20107
892.103	20024
892.226	19944
892.349	19951
892.471	19780
892.594	19883
892.717	19932
892.839	19799
892.962	19864
893.085	19913
893.207	19780
893.33	19784
893.452	19772
893.575	19955
893.697	19681
893.819	19940
893.941	19970
894.064	20005
894.186	19719
894.308	19662
894.43	19845
894.552	19887
894.674	19932
894.796	19712
894.918	19712
895.04	19822
895.161	19791
895.283	19761
895.405	19715
895.526	19753
895.648	19693
895.769	19757
895.891	19890
896.012	19799
896.134	19738
896.255	19776
896.376	19704
896.498	19704
896.619	19719
896.74	19655
896.861	19799
896.982	19921
897.103	20157
897.224	20088
897.345	20020
897.466	19871
897.587	20054
897.708	20039
897.828	19947
897.949	19811
898.07	19712
898.19	19761
898.311	19997
898.431	19837
898.552	19894
898.672	20024
898.792	20024
898.913	19776
899.033	19753
899.153	19601
899.273	19635
899.393	19563
899.513	19628
899.633	19693
899.753	19651
899.873	19578
899.993	19632
900.113	19586
900.232	19563
900.352	19514
900.472	19396
900.591	19278
900.711	19514
900.83	19388
900.95	19499
901.069	19525
901.189	19270
901.308	19126
901.427	19008
901.546	18977
901.665	19046
901.784	19015
901.904	18821
902.023	18844
902.141	18604
902.26	18532
902.379	18521
902.498	18376
902.617	18460
902.735	18467
902.854	18357
902.973	18346
903.091	18091
903.21	18152
903.328	18144
903.446	18041
903.565	17931
903.683	17870
903.801	17885
903.919	17847
904.038	17802
904.156	17775
904.274	17767
904.392	17634
904.51	17703
904.627	17668
904.745	17737
904.863	17726
904.981	17425
905.098	17383
905.216	17353
905.334	17372
905.451	17383
905.569	17258
905.686	17436
905.803	17277
905.921	17227
906.038	17322
906.155	17098
906.272	17121
906.389	17018
906.506	16881
906.623	16927
906.74	16877
906.857	16713
906.974	16812
907.091	16919
907.208	16984
907.324	16877
907.441	16752
907.557	16542
907.674	16519
907.79	16508
907.907	16565
908.023	16451
908.139	16508
908.256	16565
908.372	16405
908.488	16257
908.604	16344
908.72	16219
908.836	16280
908.952	16234
909.068	16230
909.184	16306
909.3	16196
909.415	16272
909.531	16265
909.647	16006
909.762	15903
909.878	15941
909.993	15926
910.108	15972
910.224	15869
910.339	15873
910.454	15903
910.57	15743
910.685	15610
910.8	15934
910.915	15899
911.03	15747
911.145	15595
911.259	15625
911.374	15561
911.489	15519
911.604	15500
911.718	15298
911.833	15294
911.947	15150
912.062	15135
912.176	15268
912.291	15226
912.405	15245
912.519	15412
912.633	15454
912.748	15332
912.862	15218
912.976	15119
913.09	14975
913.204	15009
913.318	15055
913.431	15157
913.545	15142
913.659	15173
913.772	15028
913.886	14914
914	14891
914.113	14933
914.226	14998
914.34	15043
914.453	14800
914.566	14925
914.68	14921
914.793	14823
914.906	14571
915.019	14476
915.132	14396
915.245	14518
915.358	14594
915.47	14522
915.583	14663
915.696	14552
915.809	14583
915.921	14689
916.034	14457
916.146	14461
916.259	14415
916.371	14461
916.483	14503
916.595	14423
916.708	14473
916.82	14351
916.932	14381
917.044	14305
917.156	14339
917.268	14294
917.38	14214
917.491	14199
917.603	14187
917.715	14271
917.826	14309
917.938	14233
918.049	14107
918.161	14172
918.272	14320
918.384	14313
918.495	14202
918.606	14001
918.717	13932
918.828	13974
918.939	13970
919.05	13822
919.161	13852
919.272	13814
919.383	13849
919.494	13947
919.604	14100
919.715	13951
919.826	13791
919.936	13769
920.047	14016
920.157	13868
920.267	14092
920.378	13936
920.488	13799
920.598	13974
920.708	14183
920.818	14054
920.928	14050
921.038	14119
921.148	14168
921.258	13864
921.368	13757
921.477	13594
921.587	13590
921.697	13483
921.806	13658
921.916	13521
922.025	13377
922.134	13278
922.244	13171
922.353	13297
922.462	13019
922.571	12973
922.68	12871
922.789	12909
922.898	12943
923.007	12844
923.116	13027
923.224	12859
923.333	12916
923.442	12821
923.55	12662
923.659	12787
923.767	12798
923.876	12711
923.984	12806
924.092	12650
924.201	12711
924.309	12616
924.417	12688
924.525	12494
924.633	12604
924.741	13472
924.849	12403
924.956	12509
925.064	12380
925.172	12319
925.279	12304
925.387	12365
925.494	12429
925.602	12528
925.709	12403
925.816	12251
925.924	12315
926.031	12388
926.138	12178
926.245	12372
926.352	12163
926.459	12369
926.566	12361
926.673	12258
926.779	12201
926.886	12095
926.993	11988
927.099	11931
927.206	11927
927.312	11832
927.419	12041
927.525	11939
927.631	11942
927.737	11798
927.843	11817
927.95	11680
928.056	11726
928.162	11764
928.267	11836
928.373	12292
928.479	11851
928.585	11592
928.69	11684
928.796	11745
928.901	11672
929.007	11478
929.112	11627
929.218	11581
929.323	11524
929.428	11486
929.533	11604
929.638	11414
929.743	11448
929.848	11459
929.953	11539
930.058	11307
930.163	11258
930.267	11326
930.372	11440
930.477	11124
930.581	11425
930.685	11292
930.79	11140
930.894	11128
930.998	11022
931.103	11178
931.207	10809
931.311	10767
931.415	10679
931.519	10485
931.623	10474
