Data from test_V78500241_1465.txt Node
Date: Fri Mar 25 14:43:54 CST 2022
User: usil
Spectrometer: V785-0024
Trigger mode: 0
Integration Time (sec): 4.000000E-1
Scans to average: 1
Nonlinearity correction enabled: false
Boxcar width: 0
Storing dark spectrum: false
XAxis mode: Wavelengths
Number of Pixels in Spectrum: 1024
>>>>>Begin Spectral Data<<<<<
801.071	22497
801.214	22478
801.356	21968
801.499	21968
801.641	21781
801.783	21842
801.926	21720
802.068	21720
802.211	21591
802.353	21466
802.496	21431
802.638	21245
802.78	21256
802.923	21112
803.065	21066
803.208	20979
803.35	21096
803.492	21188
803.635	21329
803.777	21089
803.919	21138
804.061	21583
804.204	21051
804.346	21108
804.488	20914
804.63	21119
804.773	20963
804.915	20967
805.057	21180
805.199	21039
805.341	21154
805.483	21252
805.626	21085
805.768	20990
805.91	21093
806.052	21096
806.194	21047
806.336	21211
806.478	21112
806.62	21066
806.762	21218
806.904	21256
807.046	21443
807.188	21466
807.33	21401
807.472	21549
807.614	21329
807.756	21462
807.898	21310
808.04	21256
808.182	21150
808.324	21374
808.465	21348
808.607	21610
808.749	21625
808.891	21732
809.033	21770
809.174	21766
809.316	21591
809.458	21526
809.6	21435
809.741	21629
809.883	21542
810.025	21717
810.166	21652
810.308	21686
810.45	21572
810.591	21443
810.733	21447
810.875	21214
811.016	21207
811.158	21131
811.299	21367
811.441	21431
811.582	21428
811.724	21252
811.865	21233
812.007	21176
812.148	21252
812.29	21313
812.431	21382
812.573	21477
812.714	21629
812.855	21804
812.997	21831
813.138	22059
813.279	21770
813.421	21755
813.562	21610
813.703	21435
813.845	21431
813.986	21085
814.127	20872
814.268	20826
814.41	20853
814.551	20678
814.692	20823
814.833	20632
814.974	20849
815.115	20762
815.256	20651
815.397	20590
815.539	20598
815.68	20556
815.821	20533
815.962	20499
816.103	20488
816.244	20400
816.385	20298
816.526	20374
816.666	19997
816.807	19932
816.948	20092
817.089	19921
817.23	20001
817.371	20027
817.512	20001
817.653	19959
817.793	19830
817.934	19940
818.075	20062
818.216	19906
818.356	19856
818.497	19799
818.638	19571
818.778	19647
818.919	19651
819.06	19708
819.2	19734
819.341	19860
819.481	19811
819.622	19833
819.762	20103
819.903	20142
820.043	19982
820.184	19963
820.324	19852
820.465	19951
820.605	19951
820.746	19871
820.886	19814
821.026	19967
821.167	19902
821.307	19909
821.447	19811
821.588	19753
821.728	19559
821.868	19438
822.008	19327
822.149	19263
822.289	19304
822.429	19034
822.569	19053
822.709	18981
822.849	18711
822.99	18692
823.13	18817
823.27	18798
823.41	18521
823.55	18525
823.69	18563
823.83	18555
823.97	18418
824.11	18422
824.25	18456
824.389	18380
824.529	18460
824.669	18498
824.809	18566
824.949	18494
825.089	18452
825.228	18372
825.368	18205
825.508	18235
825.648	18121
825.787	18308
825.927	18300
826.067	18197
826.206	18129
826.346	18171
826.485	18125
826.625	18182
826.765	18228
826.904	18121
827.044	17916
827.183	17878
827.323	17904
827.462	17863
827.601	17870
827.741	17783
827.88	17882
828.02	17783
828.159	17802
828.298	17878
828.437	17984
828.577	17767
828.716	17935
828.855	17790
828.994	17729
829.134	17710
829.273	17627
829.412	17467
829.551	17554
829.69	17554
829.829	17543
829.968	17676
830.107	17501
830.246	17615
830.385	17528
830.524	17543
830.663	17383
830.802	17387
830.941	17174
831.08	17235
831.219	17261
831.357	17296
831.496	17402
831.635	17193
831.774	17048
831.913	17052
832.051	17003
832.19	17067
832.329	16915
832.467	16923
832.606	16866
832.744	16850
832.883	16869
833.022	16946
833.16	16816
833.299	16904
833.437	16942
833.576	17014
833.714	16953
833.852	17022
833.991	16949
834.129	16972
834.267	17056
834.406	16957
834.544	16934
834.682	16965
834.821	16911
834.959	17216
835.097	16919
835.235	17102
835.373	17014
835.511	16911
835.65	16831
835.788	16790
835.926	16569
836.064	16645
836.202	16645
836.34	16839
836.478	16869
836.615	16824
836.753	16835
836.891	16995
837.029	16877
837.167	16774
837.305	16771
837.443	16725
837.58	16733
837.718	16805
837.856	16854
837.993	16634
838.131	16790
838.269	16672
838.406	16645
838.544	16626
838.681	16303
838.819	16363
838.956	16177
839.094	16276
839.231	16272
839.369	16363
839.506	16664
839.643	16424
839.781	16223
839.918	16284
840.055	16360
840.193	16196
840.33	16188
840.467	16204
840.604	16272
840.742	16481
840.879	16147
841.016	16173
841.153	16086
841.29	16341
841.427	16276
841.564	16295
841.701	16276
841.838	16154
841.975	16025
842.112	16162
842.249	15975
842.385	16032
842.522	16181
842.659	16048
842.796	16013
842.933	16131
843.069	15876
843.206	16051
843.343	16067
843.479	16002
843.616	16021
843.752	15846
843.889	15823
844.025	16002
844.162	15751
844.298	15888
844.435	15865
844.571	15816
844.708	15816
844.844	15979
844.98	15972
845.117	15941
845.253	15793
845.389	15816
845.525	15842
845.661	15861
845.798	15842
845.934	15964
846.07	15884
846.206	15831
846.342	15991
846.478	15762
846.614	15473
846.75	15450
846.886	15439
847.022	15443
847.158	15393
847.294	15348
847.429	15367
847.565	15313
847.701	15519
847.837	15199
847.972	15112
848.108	15199
848.244	15089
848.379	15062
848.515	14971
848.65	14876
848.786	14929
848.921	14975
849.057	15066
849.192	15097
849.328	15017
849.463	15062
849.598	14918
849.734	14902
849.869	14796
850.004	14754
850.14	14777
850.275	14682
850.41	14678
850.545	14705
850.68	14724
850.815	14686
850.95	14610
851.085	14921
851.22	14853
851.355	14765
851.49	14804
851.625	14727
851.76	14590
851.895	14632
852.03	14659
852.165	14720
852.299	14705
852.434	14807
852.569	14758
852.703	14716
852.838	14731
852.973	14830
853.107	14857
853.242	14686
853.376	14564
853.511	14438
853.645	14655
853.78	14708
853.914	14537
854.048	14560
854.183	14533
854.317	14651
854.451	14788
854.585	14598
854.72	14651
854.854	14731
854.988	14473
855.122	14617
855.256	14457
855.39	14571
855.524	14667
855.658	14648
855.792	14705
855.926	14670
856.06	14655
856.194	14750
856.327	14606
856.461	14514
856.595	14545
856.729	14598
856.862	14682
856.996	14640
857.13	14625
857.263	14697
857.397	14705
857.53	14655
857.664	14708
857.797	14640
857.931	14777
858.064	14686
858.197	14762
858.331	14606
858.464	14583
858.597	14419
858.731	14545
858.864	14651
858.997	14511
859.13	14610
859.263	14610
859.396	14682
859.529	14537
859.662	14526
859.795	14564
859.928	14682
860.061	14773
860.194	14792
860.327	14476
860.46	14629
860.592	14705
860.725	14716
860.858	14724
860.99	14541
861.123	14526
861.256	14549
861.388	14640
861.521	15222
861.653	14480
861.786	14336
861.918	14412
862.05	14488
862.183	14632
862.315	14575
862.447	14674
862.58	14533
862.712	14423
862.844	14309
862.976	14427
863.108	14461
863.24	14762
863.372	14267
863.504	14366
863.636	14332
863.768	14400
863.9	14412
864.032	14469
864.164	14317
864.296	14385
864.428	14438
864.559	14457
864.691	14423
864.823	14454
864.954	14393
865.086	14381
865.217	14336
865.349	14237
865.48	14336
865.612	14381
865.743	14473
865.875	14393
866.006	14320
866.137	14309
866.269	14225
866.4	14465
866.531	14347
866.662	14317
866.793	14374
866.924	14339
867.055	14336
867.186	14385
867.317	14233
867.448	14290
867.579	14183
867.71	14233
867.841	14221
867.972	14396
868.103	14374
868.233	14313
868.364	14351
868.495	14370
868.625	14530
868.756	14575
868.886	14465
869.017	14514
869.147	14746
869.278	14697
869.408	14560
869.539	14587
869.669	14712
869.799	14640
869.929	14667
870.06	14712
870.19	15005
870.32	14811
870.45	14876
870.58	14948
870.71	15051
870.84	15142
870.97	14960
871.1	15013
871.23	15157
871.36	15192
871.489	14971
871.619	15055
871.749	15154
871.879	15127
872.008	15321
872.138	15287
872.267	15142
872.397	15039
872.526	14960
872.656	14941
872.785	14960
872.915	15218
873.044	15283
873.173	15184
873.303	15245
873.432	15260
873.561	15249
873.69	15279
873.819	15264
873.948	15241
874.077	15249
874.206	15192
874.335	15192
874.464	15431
874.593	15561
874.722	15420
874.851	15633
874.979	15587
875.108	15690
875.237	15542
875.365	15481
875.494	15610
875.623	15618
875.751	15637
875.88	15564
876.008	15625
876.136	15778
876.265	15915
876.393	16128
876.521	16071
876.65	15983
876.778	15949
876.906	15964
877.034	15941
877.162	15945
877.29	15884
877.418	16040
877.546	15937
877.674	15941
877.802	16021
877.93	15880
878.058	15907
878.185	15922
878.313	15934
878.441	15991
878.568	15770
878.696	15915
878.824	16029
878.951	15998
879.079	16166
879.206	16318
879.333	16200
879.461	16097
879.588	16246
879.715	16226
879.842	16325
879.97	16162
880.097	15930
880.224	15808
880.351	15827
880.478	15880
880.605	15743
880.732	15835
880.859	16036
880.986	15895
881.112	16017
881.239	15675
881.366	15564
881.493	15469
881.619	15523
881.746	15488
881.872	15450
881.999	15424
882.125	15374
882.252	15614
882.378	15568
882.505	15625
882.631	15443
882.757	15359
882.883	15268
883.01	15275
883.136	15241
883.262	15207
883.388	15214
883.514	15466
883.64	15370
883.766	15306
883.892	15104
884.018	15081
884.143	15275
884.269	15401
884.395	15180
884.52	14982
884.646	15089
884.772	15013
884.897	14895
885.023	15123
885.148	15100
885.274	15093
885.399	15230
885.524	15093
885.65	15062
885.775	14994
885.9	15047
886.025	15013
886.15	15001
886.275	15009
886.4	14834
886.525	15028
886.65	14929
886.775	15001
886.9	15135
887.025	15237
887.149	15032
887.274	14941
887.399	14750
887.523	14872
887.648	14743
887.773	14727
887.897	14910
888.021	14918
888.146	14781
888.27	14834
888.395	14967
888.519	14819
888.643	14918
888.767	14925
888.891	14758
889.015	14606
889.139	14720
889.263	14689
889.387	14853
889.511	14765
889.635	14781
889.759	14636
889.883	14651
890.006	14674
890.13	14754
890.254	14651
890.377	14689
890.501	14541
890.624	14484
890.748	14568
890.871	14374
890.995	14343
891.118	14305
891.241	14339
891.364	14237
891.488	14541
891.611	14355
891.734	14309
891.857	14412
891.98	14362
892.103	14408
892.226	14347
892.349	14396
892.471	14240
892.594	14381
892.717	14362
892.839	14309
892.962	14393
893.085	14454
893.207	14377
893.33	14244
893.452	14206
893.575	14454
893.697	14377
893.819	14511
893.941	14629
894.064	14541
894.186	14263
894.308	14309
894.43	14533
894.552	14537
894.674	14594
894.796	14328
894.918	14393
895.04	14408
895.161	14298
895.283	14438
895.405	14446
895.526	14400
895.648	14507
895.769	14514
895.891	14480
896.012	14678
896.134	14503
896.255	14583
896.376	14473
896.498	14469
896.619	14610
896.74	14526
896.861	14590
896.982	14762
897.103	15051
897.224	14861
897.345	14811
897.466	14788
897.587	14777
897.708	14910
897.828	14750
897.949	14857
898.07	14670
898.19	14758
898.311	14937
898.431	14788
898.552	14876
898.672	15001
898.792	14952
898.913	14982
899.033	14834
899.153	14739
899.273	14667
899.393	14613
899.513	14667
899.633	14670
899.753	14811
899.873	14739
899.993	14758
900.113	14667
900.232	14724
900.352	14682
900.472	14632
900.591	14632
900.711	14640
900.83	14514
900.95	14724
901.069	14689
901.189	14564
901.308	14389
901.427	14294
901.546	14210
901.665	14313
901.784	14305
901.904	14115
902.023	14035
902.141	13856
902.26	13784
902.379	13967
902.498	13753
902.617	13738
902.735	13849
902.854	13898
902.973	13807
903.091	13514
903.21	13506
903.328	13487
903.446	13407
903.565	13407
903.683	13403
903.801	13320
903.919	13400
904.038	13327
904.156	13156
904.274	13251
904.392	13168
904.51	13168
904.627	13278
904.745	13263
904.863	13278
904.981	13038
905.098	12913
905.216	12867
905.334	12878
905.451	12928
905.569	12894
905.686	12894
905.803	12951
905.921	12692
906.038	12821
906.155	12673
906.272	12631
906.389	12608
906.506	12574
906.623	12528
906.74	12525
906.857	12426
906.974	12403
907.091	12486
907.208	12566
907.324	12521
907.441	12350
907.557	12186
907.674	12266
907.79	12095
907.907	12213
908.023	12258
908.139	12232
908.256	12175
908.372	12163
908.488	12106
908.604	11973
908.72	12007
908.836	12003
908.952	11908
909.068	12015
909.184	12079
909.3	12026
909.415	12034
909.531	12019
909.647	11775
909.762	11710
909.878	11691
909.993	11745
910.108	11760
910.224	11741
910.339	11665
910.454	11688
910.57	11619
910.685	11448
910.8	11798
910.915	11745
911.03	11600
911.145	11417
911.259	11452
911.374	11512
911.489	11334
911.604	11254
911.718	11174
911.833	11307
911.947	11109
912.062	11094
912.176	11159
912.291	11204
912.405	11181
912.519	11440
912.633	11398
912.748	11273
912.862	11181
912.976	11033
913.09	10843
913.204	11083
913.318	11090
913.431	11075
913.545	11132
913.659	11159
913.772	11037
913.886	11003
914	10862
914.113	11010
914.226	11003
914.34	10957
914.453	10877
914.566	11010
914.68	10866
914.793	10839
914.906	10645
915.019	10630
915.132	10637
915.245	10706
915.358	10691
915.47	10698
915.583	10744
915.696	10752
915.809	10812
915.921	10881
916.034	10675
916.146	10679
916.259	10637
916.371	10694
916.483	10626
916.595	10516
916.708	10626
916.82	10626
916.932	10565
917.044	10565
917.156	10641
917.268	10558
917.38	10497
917.491	10447
917.603	10554
917.715	10527
917.826	10622
917.938	10493
918.049	10443
918.161	10500
918.272	10611
918.384	10664
918.495	10577
918.606	10337
918.717	10265
918.828	10459
918.939	10386
919.05	10295
919.161	10398
919.272	10154
919.383	10272
919.494	10447
919.604	10580
919.715	10375
919.826	10386
919.936	10337
920.047	10474
920.157	10348
920.267	10641
920.378	10398
920.488	10375
920.598	10516
920.708	10736
920.818	10588
920.928	10554
921.038	10752
921.148	10733
921.258	10402
921.368	10306
921.477	10314
921.587	10265
921.697	10147
921.806	10219
921.916	10143
922.025	9968
922.134	9964
922.244	9918
922.353	9960
922.462	9846
922.571	9751
922.68	9625
922.789	9622
922.898	9637
923.007	9545
923.116	9648
923.224	9591
923.333	9587
923.442	9485
923.55	9496
923.659	9545
923.767	9644
923.876	9500
923.984	9538
924.092	9431
924.201	9538
924.309	9492
924.417	9515
924.525	9435
924.633	9443
924.741	10306
924.849	9306
924.956	9431
925.064	9268
925.172	9184
925.279	9268
925.387	9310
925.494	9256
925.602	9424
925.709	9344
925.816	9199
925.924	9222
926.031	9340
926.138	9283
926.245	9321
926.352	9207
926.459	9325
926.566	9363
926.673	9256
926.779	9150
926.886	9104
926.993	8990
927.099	9043
927.206	8971
927.312	8979
927.419	8971
927.525	9024
927.631	9074
927.737	8906
927.843	8887
927.95	8758
928.056	8872
928.162	8952
928.267	8963
928.373	9542
928.479	8979
928.585	8785
928.69	8883
928.796	8845
928.901	8845
929.007	8724
929.112	8834
929.218	8754
929.323	8701
929.428	8659
929.533	8804
929.638	8613
929.743	8686
929.848	8689
929.953	8705
930.058	8617
930.163	8450
930.267	8438
930.372	8598
930.477	8431
930.581	8663
930.685	8575
930.79	8374
930.894	8450
930.998	8389
931.103	8556
931.207	8149
931.311	8153
931.415	8088
931.519	7894
931.623	7868
