Data from test_V78500241_1125.txt Node
Date: Fri Mar 25 14:41:33 CST 2022
User: usil
Spectrometer: V785-0024
Trigger mode: 0
Integration Time (sec): 4.000000E-1
Scans to average: 1
Nonlinearity correction enabled: false
Boxcar width: 0
Storing dark spectrum: false
XAxis mode: Wavelengths
Number of Pixels in Spectrum: 1024
>>>>>Begin Spectral Data<<<<<
801.071	22710
801.214	22523
801.356	22337
801.499	22147
801.641	21911
801.783	21987
801.926	21972
802.068	21903
802.211	21838
802.353	21644
802.496	21519
802.638	21557
802.78	21393
802.923	21386
803.065	21203
803.208	21321
803.35	21306
803.492	21424
803.635	21485
803.777	21203
803.919	21348
804.061	21762
804.204	21405
804.346	21329
804.488	21077
804.63	21176
804.773	21203
804.915	21203
805.057	21367
805.199	21180
805.341	21237
805.483	21264
805.626	21412
805.768	21294
805.91	21268
806.052	21211
806.194	21173
806.336	21412
806.478	21214
806.62	21279
806.762	21302
806.904	21447
807.046	21663
807.188	21629
807.33	21682
807.472	21728
807.614	21534
807.756	21675
807.898	21561
808.04	21416
808.182	21545
808.324	21549
808.465	21507
808.607	21789
808.749	21964
808.891	22128
809.033	22074
809.174	21922
809.316	21770
809.458	21899
809.6	21766
809.741	21895
809.883	21835
810.025	21975
810.166	21930
810.308	21755
810.45	21827
810.591	21800
810.733	21519
810.875	21572
811.016	21336
811.158	21439
811.299	21507
811.441	21576
811.582	21629
811.724	21492
811.865	21447
812.007	21542
812.148	21477
812.29	21473
812.431	21591
812.573	21797
812.714	21835
812.855	21903
812.997	22032
813.138	22272
813.279	21998
813.421	21888
813.562	21934
813.703	21743
813.845	21553
813.986	21275
814.127	21135
814.268	21062
814.41	21127
814.551	21005
814.692	21013
814.833	20948
814.974	21051
815.115	20960
815.256	20785
815.397	20971
815.539	20842
815.68	20716
815.821	20552
815.962	20781
816.103	20731
816.244	20686
816.385	20465
816.526	20431
816.666	20362
816.807	20233
816.948	20362
817.089	20202
817.23	20256
817.371	20096
817.512	20130
817.653	20073
817.793	20195
817.934	20229
818.075	20256
818.216	20096
818.356	20035
818.497	19890
818.638	19704
818.778	19864
818.919	19932
819.06	19879
819.2	19936
819.341	20126
819.481	20077
819.622	20065
819.762	20305
819.903	20385
820.043	20164
820.184	20210
820.324	20100
820.465	20161
820.605	20240
820.746	20039
820.886	20039
821.026	19978
821.167	20039
821.307	20107
821.447	20130
821.588	19932
821.728	19780
821.868	19723
822.008	19559
822.149	19441
822.289	19548
822.429	19202
822.569	19179
822.709	19206
822.849	19088
822.99	19015
823.13	18951
823.27	18901
823.41	18943
823.55	18719
823.69	18913
823.83	18779
823.97	18814
824.11	18703
824.25	18597
824.389	18658
824.529	18612
824.669	18563
824.809	18795
824.949	18821
825.089	18719
825.228	18528
825.368	18448
825.508	18365
825.648	18403
825.787	18410
825.927	18464
826.067	18422
826.206	18391
826.346	18467
826.485	18441
826.625	18403
826.765	18528
826.904	18517
827.044	18148
827.183	18190
827.323	17992
827.462	18038
827.601	18197
827.741	18030
827.88	18228
828.02	18053
828.159	17999
828.298	18091
828.437	18121
828.577	18019
828.716	18106
828.855	18060
828.994	17794
829.134	17828
829.273	17889
829.412	17676
829.551	17726
829.69	17737
829.829	17870
829.968	17897
830.107	17893
830.246	17771
830.385	17817
830.524	17726
830.663	17589
830.802	17532
830.941	17490
831.08	17406
831.219	17493
831.357	17482
831.496	17566
831.635	17440
831.774	17341
831.913	17315
832.051	17337
832.19	17170
832.329	17315
832.467	17121
832.606	17117
832.744	17136
832.883	17037
833.022	17151
833.16	17265
833.299	17174
833.437	17277
833.576	17098
833.714	17258
833.852	17269
833.991	17162
834.129	17246
834.267	17258
834.406	17170
834.544	17246
834.682	17208
834.821	17235
834.959	17353
835.097	17041
835.235	17303
835.373	17227
835.511	17204
835.65	17079
835.788	17113
835.926	16923
836.064	16904
836.202	17003
836.34	17124
836.478	17159
836.615	17102
836.753	17216
836.891	17208
837.029	17170
837.167	17079
837.305	16980
837.443	16995
837.58	17018
837.718	16984
837.856	17003
837.993	16911
838.131	16949
838.269	16980
838.406	16889
838.544	16835
838.681	16656
838.819	16656
838.956	16554
839.094	16508
839.231	16653
839.369	16702
839.506	16930
839.643	16752
839.781	16508
839.918	16512
840.055	16500
840.193	16535
840.33	16561
840.467	16599
840.604	16527
840.742	16854
840.879	16379
841.016	16421
841.153	16375
841.29	16611
841.427	16519
841.564	16493
841.701	16466
841.838	16459
841.975	16432
842.112	16371
842.249	16299
842.385	16211
842.522	16538
842.659	16371
842.796	16272
842.933	16413
843.069	16215
843.206	16234
843.343	16310
843.479	16322
843.616	16417
843.752	16116
843.889	16086
844.025	16169
844.162	16006
844.298	16162
844.435	16131
844.571	16063
844.708	16131
844.844	16280
844.98	16242
845.117	16177
845.253	16139
845.389	16055
845.525	16139
845.661	16120
845.798	16238
845.934	16268
846.07	16284
846.206	16226
846.342	16242
846.478	16135
846.614	15838
846.75	15789
846.886	15614
847.022	15781
847.158	15656
847.294	15732
847.429	15618
847.565	15606
847.701	15823
847.837	15424
847.972	15363
848.108	15473
848.244	15428
848.379	15291
848.515	15214
848.65	15195
848.786	15226
848.921	15279
849.057	15272
849.192	15351
849.328	15249
849.463	15359
849.598	15291
849.734	15203
849.869	15116
850.004	14986
850.14	15036
850.275	15051
850.41	14982
850.545	14956
850.68	14906
850.815	14998
850.95	15013
851.085	15230
851.22	15043
851.355	14963
851.49	14933
851.625	15047
851.76	15013
851.895	14861
852.03	14868
852.165	15055
852.299	15077
852.434	15028
852.569	15043
852.703	15009
852.838	14994
852.973	15154
853.107	15116
853.242	14929
853.376	14849
853.511	14769
853.645	14823
853.78	14960
853.914	14823
854.048	14864
854.183	14857
854.317	14842
854.451	15013
854.585	14807
854.72	14857
854.854	15020
854.988	14777
855.122	14788
855.256	14648
855.39	14933
855.524	14971
855.658	14895
855.792	14811
855.926	14876
856.06	14895
856.194	14933
856.327	14826
856.461	14853
856.595	14819
856.729	14773
856.862	14948
856.996	15028
857.13	14937
857.263	14975
857.397	14998
857.53	14880
857.664	14880
857.797	14933
857.931	14990
858.064	14899
858.197	15020
858.331	14887
858.464	14788
858.597	14781
858.731	14899
858.864	14895
858.997	14891
859.13	14807
859.263	14815
859.396	15009
859.529	14804
859.662	14746
859.795	14842
859.928	14880
860.061	15036
860.194	14960
860.327	14971
860.46	14834
860.592	14990
860.725	15070
860.858	14952
860.99	14963
861.123	14758
861.256	14743
861.388	14807
861.521	15545
861.653	14750
861.786	14746
861.918	14636
862.05	14834
862.183	14804
862.315	14834
862.447	14872
862.58	14758
862.712	14594
862.844	14579
862.976	14701
863.108	14693
863.24	15100
863.372	14598
863.504	14663
863.636	14636
863.768	14678
863.9	14621
864.032	14476
864.164	14564
864.296	14640
864.428	14678
864.559	14788
864.691	14716
864.823	14731
864.954	14762
865.086	14590
865.217	14533
865.349	14560
865.48	14610
865.612	14648
865.743	14739
865.875	14705
866.006	14705
866.137	14648
866.269	14583
866.4	14564
866.531	14564
866.662	14606
866.793	14495
866.924	14495
867.055	14594
867.186	14541
867.317	14545
867.448	14465
867.579	14606
867.71	14446
867.841	14469
867.972	14560
868.103	14537
868.233	14606
868.364	14651
868.495	14689
868.625	14826
868.756	14929
868.886	14739
869.017	14819
869.147	14982
869.278	14944
869.408	14849
869.539	14853
869.669	14807
869.799	14861
869.929	15017
870.06	15009
870.19	15161
870.32	15142
870.45	15116
870.58	15211
870.71	15435
870.84	15317
870.97	15245
871.1	15214
871.23	15500
871.36	15401
871.489	15230
871.619	15386
871.749	15542
871.879	15481
872.008	15572
872.138	15443
872.267	15397
872.397	15272
872.526	15363
872.656	15264
872.785	15291
872.915	15485
873.044	15584
873.173	15359
873.303	15466
873.432	15473
873.561	15523
873.69	15504
873.819	15557
873.948	15652
874.077	15523
874.206	15382
874.335	15530
874.464	15629
874.593	15804
874.722	15785
874.851	15823
874.979	15743
875.108	15816
875.237	15793
875.365	15724
875.494	15747
875.623	15835
875.751	15717
875.88	15823
876.008	16010
876.136	15956
876.265	16154
876.393	16344
876.521	16337
876.65	16257
876.778	16238
876.906	16192
877.034	16242
877.162	16090
877.29	16143
877.418	16181
877.546	16230
877.674	16211
877.802	16181
877.93	16219
878.058	16150
878.185	16105
878.313	16280
878.441	16128
878.568	16051
878.696	16268
878.824	16303
878.951	16272
879.079	16493
879.206	16607
879.333	16500
879.461	16451
879.588	16459
879.715	16546
879.842	16599
879.97	16451
880.097	16040
880.224	16188
880.351	16128
880.478	16173
880.605	16017
880.732	16059
880.859	16325
880.986	16150
881.112	16219
881.239	15968
881.366	15865
881.493	15720
881.619	15648
881.746	15808
881.872	15743
881.999	15755
882.125	15751
882.252	15770
882.378	15743
882.505	15888
882.631	15610
882.757	15595
882.883	15587
883.01	15561
883.136	15637
883.262	15348
883.388	15443
883.514	15603
883.64	15610
883.766	15526
883.892	15336
884.018	15359
884.143	15564
884.269	15644
884.395	15264
884.52	15176
884.646	15256
884.772	15317
884.897	15207
885.023	15252
885.148	15435
885.274	15443
885.399	15355
885.524	15260
885.65	15233
885.775	15306
885.9	15351
886.025	15389
886.15	15389
886.275	15184
886.4	15119
886.525	15310
886.65	15222
886.775	15176
886.9	15374
887.025	15584
887.149	15218
887.274	15085
887.399	15032
887.523	15058
887.648	15146
887.773	14979
887.897	15161
888.021	15157
888.146	15005
888.27	15161
888.395	15203
888.519	15085
888.643	15104
888.767	15131
888.891	14994
889.015	14914
889.139	14933
889.263	14876
889.387	15039
889.511	15062
889.635	15017
889.759	14853
889.883	14842
890.006	14967
890.13	14948
890.254	14929
890.377	14902
890.501	14670
890.624	14644
890.748	14705
890.871	14590
890.995	14511
891.118	14541
891.241	14602
891.364	14610
891.488	14735
891.611	14560
891.734	14644
891.857	14754
891.98	14735
892.103	14648
892.226	14701
892.349	14606
892.471	14415
892.594	14636
892.717	14640
892.839	14503
892.962	14583
893.085	14640
893.207	14651
893.33	14488
893.452	14526
893.575	14629
893.697	14518
893.819	14781
893.941	14716
894.064	14716
894.186	14530
894.308	14568
894.43	14769
894.552	14811
894.674	14773
894.796	14583
894.918	14651
895.04	14571
895.161	14708
895.283	14720
895.405	14667
895.526	14678
895.648	14682
895.769	14804
895.891	14750
896.012	14743
896.134	14746
896.255	14739
896.376	14701
896.498	14697
896.619	14792
896.74	14617
896.861	14819
896.982	15176
897.103	15146
897.224	14960
897.345	15001
897.466	14857
897.587	14971
897.708	15135
897.828	15074
897.949	14975
898.07	14937
898.19	14921
898.311	15112
898.431	14963
898.552	15020
898.672	15131
898.792	15199
898.913	15138
899.033	15036
899.153	14918
899.273	14754
899.393	14857
899.513	14979
899.633	14899
899.753	15020
899.873	14826
899.993	15032
900.113	14929
900.232	14944
900.352	14902
900.472	14941
900.591	14686
900.711	14845
900.83	14785
900.95	14872
901.069	14853
901.189	14621
901.308	14522
901.427	14423
901.546	14389
901.665	14518
901.784	14412
901.904	14328
902.023	14248
902.141	14054
902.26	13970
902.379	14054
902.498	13955
902.617	13986
902.735	14043
902.854	13989
902.973	13978
903.091	13746
903.21	13738
903.328	13689
903.446	13616
903.565	13491
903.683	13609
903.801	13499
903.919	13609
904.038	13658
904.156	13438
904.274	13422
904.392	13327
904.51	13312
904.627	13411
904.745	13464
904.863	13457
904.981	13103
905.098	13084
905.216	13095
905.334	13114
905.451	13053
905.569	13129
905.686	13088
905.803	13050
905.921	12821
906.038	13027
906.155	12871
906.272	12787
906.389	12825
906.506	12673
906.623	12684
906.74	12654
906.857	12536
906.974	12521
907.091	12776
907.208	12738
907.324	12696
907.441	12597
907.557	12369
907.674	12342
907.79	12403
907.907	12429
908.023	12369
908.139	12372
908.256	12338
908.372	12407
908.488	12239
908.604	12209
908.72	12076
908.836	12190
908.952	12110
909.068	12129
909.184	12273
909.3	12102
909.415	12140
909.531	12175
909.647	11965
909.762	11897
909.878	11878
909.993	11954
910.108	11859
910.224	11958
910.339	11859
910.454	11840
910.57	11741
910.685	11707
910.8	11908
910.915	11882
911.03	11779
911.145	11623
911.259	11501
911.374	11619
911.489	11566
911.604	11478
911.718	11322
911.833	11436
911.947	11201
912.062	11235
912.176	11345
912.291	11315
912.405	11303
912.519	11558
912.633	11573
912.748	11376
912.862	11379
912.976	11143
913.09	11185
913.204	11201
913.318	11288
913.431	11318
913.545	11341
913.659	11353
913.772	11178
913.886	11143
914	11170
914.113	11204
914.226	11212
914.34	11208
914.453	11056
914.566	11162
914.68	11067
914.793	10919
914.906	10904
915.019	10782
915.132	10694
915.245	10831
915.358	10843
915.47	10854
915.583	10862
915.696	10934
915.809	10999
915.921	10999
916.034	10885
916.146	10820
916.259	10820
916.371	10858
916.483	10885
916.595	10759
916.708	10736
916.82	10854
916.932	10801
917.044	10683
917.156	10687
917.268	10660
917.38	10721
917.491	10637
917.603	10717
917.715	10771
917.826	10805
917.938	10683
918.049	10596
918.161	10656
918.272	10797
918.384	10778
918.495	10729
918.606	10626
918.717	10504
918.828	10573
918.939	10584
919.05	10470
919.161	10512
919.272	10287
919.383	10409
919.494	10645
919.604	10691
919.715	10546
919.826	10402
919.936	10512
920.047	10516
920.157	10607
920.267	10759
920.378	10531
920.488	10519
920.598	10763
920.708	10892
920.818	10782
920.928	10801
921.038	10862
921.148	10850
921.258	10584
921.368	10462
921.477	10375
921.587	10329
921.697	10192
921.806	10398
921.916	10390
922.025	10063
922.134	10059
922.244	10063
922.353	10185
922.462	10025
922.571	9888
922.68	9838
922.789	9861
922.898	9800
923.007	9705
923.116	9797
923.224	9789
923.333	9789
923.442	9629
923.55	9663
923.659	9644
923.767	9778
923.876	9603
923.984	9686
924.092	9580
924.201	9675
924.309	9622
924.417	9641
924.525	9599
924.633	9606
924.741	10386
924.849	9348
924.956	9534
925.064	9481
925.172	9329
925.279	9340
925.387	9458
925.494	9416
925.602	9534
925.709	9511
925.816	9344
925.924	9443
926.031	9412
926.138	9500
926.245	9496
926.352	9359
926.459	9515
926.566	9412
926.673	9386
926.779	9336
926.886	9268
926.993	9116
927.099	9131
927.206	9024
927.312	9127
927.419	9112
927.525	9104
927.631	9207
927.737	9077
927.843	9039
927.95	8891
928.056	8921
928.162	8971
928.267	9089
928.373	9656
928.479	9154
928.585	8914
928.69	9028
928.796	9058
928.901	8899
929.007	8758
929.112	8967
929.218	8914
929.323	8876
929.428	8807
929.533	8948
929.638	8766
929.743	8773
929.848	8864
929.953	8861
930.058	8758
930.163	8579
930.267	8507
930.372	8670
930.477	8526
930.581	8750
930.685	8663
930.79	8423
930.894	8594
930.998	8511
931.103	8655
931.207	8336
931.311	8279
931.415	8183
931.519	8043
931.623	8062
