Data from test_V78500241_2968.txt Node
Date: Fri Mar 25 14:54:22 CST 2022
User: usil
Spectrometer: V785-0024
Trigger mode: 0
Integration Time (sec): 4.000000E-1
Scans to average: 1
Nonlinearity correction enabled: false
Boxcar width: 0
Storing dark spectrum: false
XAxis mode: Wavelengths
Number of Pixels in Spectrum: 1024
>>>>>Begin Spectral Data<<<<<
801.071	22063
801.214	21930
801.356	21865
801.499	21800
801.641	21477
801.783	21530
801.926	21526
802.068	21359
802.211	21367
802.353	21321
802.496	21135
802.638	20967
802.78	21013
802.923	20838
803.065	20819
803.208	20743
803.35	20868
803.492	20975
803.635	20941
803.777	20819
803.919	20994
804.061	21131
804.204	20845
804.346	20731
804.488	20705
804.63	20765
804.773	20842
804.915	20773
805.057	20861
805.199	20678
805.341	20739
805.483	20819
805.626	20834
805.768	20670
805.91	20800
806.052	20686
806.194	20621
806.336	20929
806.478	20636
806.62	20678
806.762	20731
806.904	20845
807.046	21203
807.188	20967
807.33	21017
807.472	21055
807.614	20994
807.756	20998
807.898	20857
808.04	20701
808.182	20861
808.324	20864
808.465	20952
808.607	21062
808.749	21127
808.891	21211
809.033	21329
809.174	21077
809.316	21096
809.458	21100
809.6	20952
809.741	21207
809.883	21157
810.025	21348
810.166	21260
810.308	21268
810.45	21199
810.591	21051
810.733	21093
810.875	20891
811.016	20826
811.158	20842
811.299	20979
811.441	21066
811.582	21017
811.724	20876
811.865	20990
812.007	20853
812.148	20933
812.29	21013
812.431	21089
812.573	21116
812.714	21294
812.855	21348
812.997	21572
813.138	21587
813.279	21561
813.421	21321
813.562	21367
813.703	21161
813.845	21089
813.986	20705
814.127	20617
814.268	20484
814.41	20556
814.551	20415
814.692	20275
814.833	20434
814.974	20343
815.115	20461
815.256	20317
815.397	20286
815.539	20278
815.68	20115
815.821	20084
815.962	20115
816.103	20084
816.244	20012
816.385	19955
816.526	19883
816.666	19655
816.807	19540
816.948	19609
817.089	19761
817.23	19723
817.371	19548
817.512	19639
817.653	19438
817.793	19502
817.934	19586
818.075	19651
818.216	19548
818.356	19483
818.497	19301
818.638	19206
818.778	19335
818.919	19232
819.06	19339
819.2	19449
819.341	19491
819.481	19407
819.622	19499
819.762	19780
819.903	19639
820.043	19586
820.184	19529
820.324	19480
820.465	19571
820.605	19582
820.746	19594
820.886	19407
821.026	19518
821.167	19472
821.307	19597
821.447	19506
821.588	19308
821.728	19171
821.868	19069
822.008	18989
822.149	19023
822.289	18951
822.429	18719
822.569	18669
822.709	18719
822.849	18448
822.99	18460
823.13	18350
823.27	18410
823.41	18357
823.55	18228
823.69	18285
823.83	18258
823.97	18174
824.11	17999
824.25	17882
824.389	17992
824.529	17958
824.669	17980
824.809	18007
824.949	18041
825.089	18060
825.228	17999
825.368	17741
825.508	17836
825.648	17714
825.787	17931
825.927	17805
826.067	17691
826.206	17775
826.346	17748
826.485	17786
826.625	17790
826.765	17855
826.904	17813
827.044	17615
827.183	17619
827.323	17364
827.462	17532
827.601	17376
827.741	17551
827.88	17478
828.02	17311
828.159	17512
828.298	17596
828.437	17493
828.577	17429
828.716	17547
828.855	17425
828.994	17162
829.134	17204
829.273	17231
829.412	17098
829.551	17079
829.69	17155
829.829	17185
829.968	17387
830.107	17265
830.246	17235
830.385	17155
830.524	17090
830.663	17048
830.802	16889
830.941	16866
831.08	16835
831.219	16839
831.357	16900
831.496	17086
831.635	16835
831.774	16729
831.913	16668
832.051	16630
832.19	16584
832.329	16653
832.467	16462
832.606	16546
832.744	16478
832.883	16455
833.022	16417
833.16	16462
833.299	16538
833.437	16588
833.576	16565
833.714	16554
833.852	16607
833.991	16535
834.129	16649
834.267	16542
834.406	16558
834.544	16641
834.682	16565
834.821	16489
834.959	16672
835.097	16417
835.235	16599
835.373	16607
835.511	16580
835.65	16455
835.788	16432
835.926	16329
836.064	16230
836.202	16352
836.34	16443
836.478	16615
836.615	16421
836.753	16424
836.891	16523
837.029	16516
837.167	16462
837.305	16360
837.443	16333
837.58	16329
837.718	16299
837.856	16371
837.993	16318
838.131	16424
838.269	16257
838.406	16181
838.544	16238
838.681	16044
838.819	15994
838.956	15903
839.094	15888
839.231	15926
839.369	15991
839.506	16249
839.643	16169
839.781	15892
839.918	15759
840.055	15975
840.193	15819
840.33	15842
840.467	15743
840.604	15892
840.742	16131
840.879	15675
841.016	15876
841.153	15739
841.29	15930
841.427	15838
841.564	15831
841.701	15915
841.838	15797
841.975	15751
842.112	15698
842.249	15622
842.385	15599
842.522	15804
842.659	15595
842.796	15663
842.933	15694
843.069	15523
843.206	15538
843.343	15641
843.479	15610
843.616	15660
843.752	15477
843.889	15367
844.025	15629
844.162	15279
844.298	15496
844.435	15283
844.571	15336
844.708	15416
844.844	15686
844.98	15576
845.117	15561
845.253	15382
845.389	15382
845.525	15291
845.661	15272
845.798	15157
845.934	15260
846.07	15123
846.206	15249
846.342	15386
846.478	15142
846.614	15017
846.75	15017
846.886	14910
847.022	15055
847.158	15112
847.294	14990
847.429	15020
847.565	14956
847.701	15279
847.837	14693
847.972	14754
848.108	14796
848.244	14811
848.379	14625
848.515	14579
848.65	14526
848.786	14564
848.921	14625
849.057	14750
849.192	14743
849.328	14522
849.463	14606
849.598	14476
849.734	14503
849.869	14404
850.004	14396
850.14	14450
850.275	14431
850.41	14305
850.545	14275
850.68	14351
850.815	14347
850.95	14290
851.085	14431
851.22	14522
851.355	14423
851.49	14374
851.625	14396
851.76	14313
851.895	14221
852.03	14237
852.165	14298
852.299	14328
852.434	14351
852.569	14343
852.703	14400
852.838	14442
852.973	14545
853.107	14492
853.242	14339
853.376	14248
853.511	14107
853.645	14130
853.78	14366
853.914	14339
854.048	14252
854.183	14123
854.317	14187
854.451	14313
854.585	14278
854.72	14111
854.854	14237
854.988	14039
855.122	14176
855.256	14043
855.39	14240
855.524	14294
855.658	14339
855.792	14157
855.926	14290
856.06	14271
856.194	14412
856.327	14225
856.461	14145
856.595	14164
856.729	14149
856.862	14317
856.996	14233
857.13	14244
857.263	14404
857.397	14324
857.53	14134
857.664	14252
857.797	14355
857.931	14294
858.064	14225
858.197	14263
858.331	14225
858.464	14210
858.597	14134
858.731	14111
858.864	14153
858.997	14176
859.13	14225
859.263	14168
859.396	14256
859.529	14195
859.662	14142
859.795	14138
859.928	14229
860.061	14305
860.194	14385
860.327	14248
860.46	14214
860.592	14267
860.725	14301
860.858	14286
860.99	14252
861.123	14126
861.256	14168
861.388	14229
861.521	14933
861.653	14138
861.786	14020
861.918	13963
862.05	14168
862.183	14187
862.315	14214
862.447	14210
862.58	14237
862.712	14035
862.844	13925
862.976	14012
863.108	14001
863.24	14396
863.372	13898
863.504	13970
863.636	13898
863.768	14107
863.9	14062
864.032	13940
864.164	13944
864.296	14062
864.428	13986
864.559	14103
864.691	14069
864.823	14054
864.954	13997
865.086	13989
865.217	14088
865.349	13928
865.48	13963
865.612	14058
865.743	14039
865.875	13955
866.006	13925
866.137	14027
866.269	14027
866.4	13932
866.531	13887
866.662	13963
866.793	13989
866.924	13959
867.055	13978
867.186	14062
867.317	13963
867.448	13864
867.579	14020
867.71	13906
867.841	13818
867.972	13970
868.103	14001
868.233	13887
868.364	13997
868.495	14134
868.625	14202
868.756	14381
868.886	14164
869.017	14161
869.147	14176
869.278	14256
869.408	14214
869.539	14153
869.669	14233
869.799	14199
869.929	14423
870.06	14442
870.19	14507
870.32	14476
870.45	14670
870.58	14632
870.71	14712
870.84	14720
870.97	14545
871.1	14617
871.23	14800
871.36	14689
871.489	14693
871.619	14769
871.749	14667
871.879	14937
872.008	14967
872.138	14792
872.267	14804
872.397	14648
872.526	14678
872.656	14743
872.785	14670
872.915	14823
873.044	14967
873.173	14853
873.303	14937
873.432	15085
873.561	14941
873.69	14891
873.819	14891
873.948	14960
874.077	14956
874.206	14887
874.335	14952
874.464	14982
874.593	15043
874.722	15123
874.851	15237
874.979	15218
875.108	15222
875.237	15176
875.365	15062
875.494	15176
875.623	15317
875.751	15058
875.88	15245
876.008	15321
876.136	15420
876.265	15542
876.393	15785
876.521	15713
876.65	15648
876.778	15633
876.906	15644
877.034	15625
877.162	15538
877.29	15576
877.418	15614
877.546	15564
877.674	15595
877.802	15736
877.93	15587
878.058	15561
878.185	15511
878.313	15637
878.441	15633
878.568	15443
878.696	15477
878.824	15618
878.951	15823
879.079	15747
879.206	15953
879.333	15804
879.461	15728
879.588	15736
879.715	15804
879.842	15831
879.97	15724
880.097	15447
880.224	15443
880.351	15458
880.478	15523
880.605	15374
880.732	15405
880.859	15679
880.986	15435
881.112	15492
881.239	15389
881.366	15211
881.493	15077
881.619	15013
881.746	15142
881.872	15165
881.999	15100
882.125	15051
882.252	15188
882.378	15157
882.505	15264
882.631	14982
882.757	14963
882.883	14944
883.01	14899
883.136	14876
883.262	14823
883.388	14800
883.514	14918
883.64	15108
883.766	14952
883.892	14613
884.018	14724
884.143	14876
884.269	15013
884.395	14602
884.52	14648
884.646	14659
884.772	14610
884.897	14507
885.023	14598
885.148	14640
885.274	14731
885.399	14792
885.524	14617
885.65	14522
885.775	14625
885.9	14606
886.025	14762
886.15	14746
886.275	14629
886.4	14530
886.525	14560
886.65	14575
886.775	14625
886.9	14739
887.025	14887
887.149	14613
887.274	14461
887.399	14450
887.523	14396
887.648	14374
887.773	14298
887.897	14594
888.021	14530
888.146	14469
888.27	14594
888.395	14533
888.519	14552
888.643	14583
888.767	14503
888.891	14324
889.015	14309
889.139	14358
889.263	14229
889.387	14423
889.511	14476
889.635	14412
889.759	14301
889.883	14313
890.006	14381
890.13	14389
890.254	14240
890.377	14305
890.501	14126
890.624	14134
890.748	14168
890.871	14054
890.995	13932
891.118	13925
891.241	14020
891.364	13989
891.488	14046
891.611	14081
891.734	13928
891.857	14103
891.98	14134
892.103	14103
892.226	14084
892.349	14077
892.471	13879
892.594	13989
892.717	14039
892.839	13951
892.962	14065
893.085	13997
893.207	13947
893.33	13913
893.452	13970
893.575	14020
893.697	13986
893.819	14210
893.941	14244
894.064	14161
894.186	14005
894.308	13986
894.43	14092
894.552	14244
894.674	14096
894.796	14111
894.918	14001
895.04	13986
895.161	14183
895.283	14149
895.405	14050
895.526	14149
895.648	14126
895.769	14172
895.891	14149
896.012	14267
896.134	14187
896.255	14206
896.376	14233
896.498	14301
896.619	14347
896.74	14218
896.861	14252
896.982	14526
897.103	14651
897.224	14507
897.345	14431
897.466	14503
897.587	14450
897.708	14579
897.828	14541
897.949	14423
898.07	14309
898.19	14442
898.311	14655
898.431	14442
898.552	14484
898.672	14621
898.792	14712
898.913	14640
899.033	14454
899.153	14374
899.273	14313
899.393	14415
899.513	14396
899.633	14423
899.753	14457
899.873	14400
899.993	14427
900.113	14419
900.232	14495
900.352	14404
900.472	14328
900.591	14199
900.711	14275
900.83	14275
900.95	14396
901.069	14469
901.189	14191
901.308	14084
901.427	13871
901.546	13906
901.665	14046
901.784	14058
901.904	13841
902.023	13795
902.141	13670
902.26	13567
902.379	13685
902.498	13578
902.617	13411
902.735	13582
902.854	13563
902.973	13457
903.091	13266
903.21	13278
903.328	13282
903.446	13198
903.565	13027
903.683	13160
903.801	13034
903.919	13110
904.038	13038
904.156	12909
904.274	12901
904.392	12856
904.51	12935
904.627	12989
904.745	12958
904.863	12920
904.981	12692
905.098	12582
905.216	12658
905.334	12673
905.451	12650
905.569	12631
905.686	12677
905.803	12738
905.921	12388
906.038	12525
906.155	12410
906.272	12372
906.389	12285
906.506	12178
906.623	12273
906.74	12155
906.857	12060
906.974	12095
907.091	12273
907.208	12300
907.324	12197
907.441	12186
907.557	11946
907.674	11893
907.79	11912
907.907	11783
908.023	11893
908.139	11950
908.256	11832
908.372	11802
908.488	11764
908.604	11733
908.72	11668
908.836	11722
908.952	11703
909.068	11729
909.184	11828
909.3	11672
909.415	11802
909.531	11707
909.647	11486
909.762	11478
909.878	11471
909.993	11436
910.108	11452
910.224	11459
910.339	11440
910.454	11311
910.57	11398
910.685	11284
910.8	11566
910.915	11444
911.03	11356
911.145	11204
911.259	11128
911.374	11136
911.489	11109
911.604	11090
911.718	10911
911.833	10892
911.947	10881
912.062	10683
912.176	10934
912.291	10972
912.405	10934
912.519	11006
912.633	11162
912.748	11033
912.862	10976
912.976	10793
913.09	10721
913.204	10714
913.318	10790
913.431	10911
913.545	10908
913.659	10919
913.772	10820
913.886	10687
914	10702
914.113	10767
914.226	10881
914.34	10831
914.453	10653
914.566	10736
914.68	10588
914.793	10618
914.906	10497
915.019	10413
915.132	10284
915.245	10421
915.358	10500
915.47	10466
915.583	10417
915.696	10561
915.809	10535
915.921	10523
916.034	10466
916.146	10356
916.259	10341
916.371	10455
916.483	10481
916.595	10329
916.708	10363
916.82	10409
916.932	10398
917.044	10333
917.156	10386
917.268	10230
917.38	10295
917.491	10154
917.603	10287
917.715	10363
917.826	10375
917.938	10238
918.049	10143
918.161	10211
918.272	10394
918.384	10402
918.495	10268
918.606	10120
918.717	10086
918.828	10120
918.939	10143
919.05	10017
919.161	10112
919.272	9907
919.383	10025
919.494	10124
919.604	10348
919.715	10166
919.826	10067
919.936	10055
920.047	10257
920.157	10162
920.267	10356
920.378	10242
920.488	10185
920.598	10371
920.708	10531
920.818	10367
920.928	10329
921.038	10542
921.148	10485
921.258	10253
921.368	10173
921.477	10017
921.587	10025
921.697	9918
921.806	10025
921.916	9895
922.025	9762
922.134	9690
922.244	9724
922.353	9770
922.462	9572
922.571	9572
922.68	9477
922.789	9424
922.898	9405
923.007	9443
923.116	9458
923.224	9397
923.333	9351
923.442	9306
923.55	9336
923.659	9298
923.767	9428
923.876	9325
923.984	9359
924.092	9226
924.201	9279
924.309	9237
924.417	9283
924.525	9154
924.633	9237
924.741	10150
924.849	9089
924.956	9222
925.064	9085
925.172	9017
925.279	8956
925.387	9108
925.494	9081
925.602	9214
925.709	9142
925.816	9062
925.924	9062
926.031	9157
926.138	9085
926.245	9142
926.352	8971
926.459	9138
926.566	9211
926.673	9055
926.779	8914
926.886	8838
926.993	8845
927.099	8785
927.206	8766
927.312	8773
927.419	8823
927.525	8830
927.631	8933
927.737	8670
927.843	8724
927.95	8552
928.056	8705
928.162	8708
928.267	8746
928.373	9260
928.479	8766
928.585	8552
928.69	8766
928.796	8754
928.901	8568
929.007	8476
929.112	8579
929.218	8530
929.323	8461
929.428	8465
929.533	8636
929.638	8442
929.743	8434
929.848	8507
929.953	8488
930.058	8450
930.163	8256
930.267	8324
930.372	8374
930.477	8275
930.581	8537
930.685	8393
930.79	8199
930.894	8263
930.998	8195
931.103	8351
931.207	7993
931.311	7928
931.415	7970
931.519	7693
931.623	7696
