Data from test_V78500241_1230.txt Node
Date: Fri Mar 25 14:42:16 CST 2022
User: usil
Spectrometer: V785-0024
Trigger mode: 0
Integration Time (sec): 4.000000E-1
Scans to average: 1
Nonlinearity correction enabled: false
Boxcar width: 0
Storing dark spectrum: false
XAxis mode: Wavelengths
Number of Pixels in Spectrum: 1024
>>>>>Begin Spectral Data<<<<<
801.071	22379
801.214	22337
801.356	21945
801.499	21983
801.641	21713
801.783	21751
801.926	21892
802.068	21759
802.211	21614
802.353	21507
802.496	21268
802.638	21294
802.78	21252
802.923	21127
803.065	21119
803.208	20975
803.35	21116
803.492	21199
803.635	21161
803.777	20975
803.919	21249
804.061	21359
804.204	21195
804.346	20979
804.488	20883
804.63	20914
804.773	20887
804.915	21032
805.057	21203
805.199	21096
805.341	21058
805.483	21142
805.626	21096
805.768	20956
805.91	21070
806.052	20895
806.194	20899
806.336	21173
806.478	20910
806.62	20971
806.762	20910
806.904	21222
807.046	21488
807.188	21420
807.33	21294
807.472	21313
807.614	21173
807.756	21374
807.898	21325
808.04	20952
808.182	20929
808.324	21252
808.465	21245
808.607	21397
808.749	21511
808.891	21549
809.033	21705
809.174	21561
809.316	21435
809.458	21416
809.6	21431
809.741	21462
809.883	21488
810.025	21572
810.166	21538
810.308	21690
810.45	21507
810.591	21428
810.733	21272
810.875	21055
811.016	21104
811.158	21264
811.299	21275
811.441	21252
811.582	21313
811.724	21169
811.865	21230
812.007	21161
812.148	21203
812.29	21135
812.431	21431
812.573	21473
812.714	21557
812.855	21701
812.997	21728
813.138	21827
813.279	21797
813.421	21679
813.562	21713
813.703	21386
813.845	21374
813.986	21104
814.127	20944
814.268	20785
814.41	20686
814.551	20686
814.692	20785
814.833	20746
814.974	20689
815.115	20648
815.256	20587
815.397	20575
815.539	20446
815.68	20332
815.821	20412
815.962	20537
816.103	20442
816.244	20248
816.385	20218
816.526	20199
816.666	20054
816.807	19890
816.948	20008
817.089	20088
817.23	20035
817.371	19879
817.512	19845
817.653	19795
817.793	19795
817.934	19898
818.075	19932
818.216	19860
818.356	19677
818.497	19609
818.638	19544
818.778	19567
818.919	19510
819.06	19681
819.2	19734
819.341	19651
819.481	19807
819.622	19925
819.762	20065
819.903	20020
820.043	19890
820.184	19955
820.324	19814
820.465	19959
820.605	19993
820.746	19727
820.886	19674
821.026	19883
821.167	19879
821.307	19841
821.447	19791
821.588	19689
821.728	19628
821.868	19320
822.008	19244
822.149	19240
822.289	19247
822.429	19145
822.569	18867
822.709	18867
822.849	18741
822.99	18795
823.13	18745
823.27	18665
823.41	18551
823.55	18452
823.69	18566
823.83	18555
823.97	18547
824.11	18445
824.25	18334
824.389	18350
824.529	18445
824.669	18327
824.809	18532
824.949	18521
825.089	18334
825.228	18422
825.368	18136
825.508	18140
825.648	18235
825.787	18186
825.927	18174
826.067	18060
826.206	18098
826.346	18174
826.485	18091
826.625	18045
826.765	18247
826.904	18098
827.044	17961
827.183	17942
827.323	17729
827.462	17855
827.601	17741
827.741	17832
827.88	17885
828.02	17665
828.159	17809
828.298	17847
828.437	17882
828.577	17813
828.716	17988
828.855	17817
828.994	17600
829.134	17535
829.273	17748
829.412	17532
829.551	17589
829.69	17581
829.829	17615
829.968	17581
830.107	17501
830.246	17596
830.385	17532
830.524	17490
830.663	17463
830.802	17212
830.941	17220
831.08	17140
831.219	17132
831.357	17307
831.496	17433
831.635	17197
831.774	17067
831.913	17216
832.051	17041
832.19	17094
832.329	17037
832.467	16976
832.606	16877
832.744	17010
832.883	16953
833.022	16831
833.16	16987
833.299	16877
833.437	16923
833.576	17006
833.714	16858
833.852	17086
833.991	17010
834.129	17079
834.267	17037
834.406	16930
834.544	17071
834.682	17014
834.821	16911
834.959	17159
835.097	16919
835.235	17045
835.373	16991
835.511	17071
835.65	16923
835.788	16843
835.926	16675
836.064	16622
836.202	16759
836.34	16885
836.478	17105
836.615	16892
836.753	16923
836.891	16987
837.029	16942
837.167	16816
837.305	16771
837.443	16854
837.58	16713
837.718	16725
837.856	16790
837.993	16672
838.131	16634
838.269	16736
838.406	16660
838.544	16710
838.681	16455
838.819	16360
838.956	16268
839.094	16295
839.231	16424
839.369	16398
839.506	16736
839.643	16489
839.781	16318
839.918	16204
840.055	16306
840.193	16299
840.33	16246
840.467	16310
840.604	16291
840.742	16577
840.879	16101
841.016	16295
841.153	16188
841.29	16390
841.427	16276
841.564	16215
841.701	16291
841.838	16200
841.975	16192
842.112	16188
842.249	16124
842.385	16131
842.522	16207
842.659	16120
842.796	16029
842.933	16067
843.069	16010
843.206	16177
843.343	16173
843.479	16090
843.616	16135
843.752	15907
843.889	15778
844.025	16032
844.162	15812
844.298	16021
844.435	15770
844.571	15812
844.708	15857
844.844	15975
844.98	15956
845.117	15968
845.253	15770
845.389	15835
845.525	15816
845.661	15823
845.798	15663
845.934	15831
846.07	15648
846.206	15736
846.342	15949
846.478	15690
846.614	15469
846.75	15447
846.886	15488
847.022	15477
847.158	15477
847.294	15435
847.429	15538
847.565	15466
847.701	15698
847.837	15165
847.972	15176
848.108	15203
848.244	15294
848.379	15104
848.515	15024
848.65	14994
848.786	15020
848.921	14998
849.057	15135
849.192	15070
849.328	15020
849.463	15020
849.598	14933
849.734	15017
849.869	14899
850.004	14811
850.14	14842
850.275	14804
850.41	14724
850.545	14697
850.68	14773
850.815	14785
850.95	14807
851.085	14975
851.22	14929
851.355	14823
851.49	14731
851.625	14727
851.76	14785
851.895	14651
852.03	14712
852.165	14849
852.299	14792
852.434	14777
852.569	14906
852.703	14887
852.838	14883
852.973	14975
853.107	14906
853.242	14708
853.376	14785
853.511	14568
853.645	14686
853.78	14807
853.914	14560
854.048	14648
854.183	14629
854.317	14598
854.451	14815
854.585	14693
854.72	14602
854.854	14727
854.988	14533
855.122	14674
855.256	14507
855.39	14541
855.524	14765
855.658	14746
855.792	14716
855.926	14697
856.06	14663
856.194	14864
856.327	14602
856.461	14594
856.595	14590
856.729	14610
856.862	14868
856.996	14727
857.13	14705
857.263	14739
857.397	14815
857.53	14644
857.664	14750
857.797	14632
857.931	14807
858.064	14667
858.197	14788
858.331	14594
858.464	14610
858.597	14552
858.731	14621
858.864	14640
858.997	14598
859.13	14739
859.263	14659
859.396	14731
859.529	14682
859.662	14602
859.795	14537
859.928	14678
860.061	14792
860.194	14883
860.327	14678
860.46	14712
860.592	14769
860.725	14796
860.858	14762
860.99	14602
861.123	14667
861.256	14648
861.388	14762
861.521	15481
861.653	14587
861.786	14632
861.918	14480
862.05	14636
862.183	14541
862.315	14705
862.447	14758
862.58	14602
862.712	14454
862.844	14423
862.976	14499
863.108	14446
863.24	14872
863.372	14366
863.504	14377
863.636	14362
863.768	14488
863.9	14400
864.032	14404
864.164	14355
864.296	14575
864.428	14594
864.559	14507
864.691	14533
864.823	14488
864.954	14438
865.086	14438
865.217	14480
865.349	14393
865.48	14377
865.612	14465
865.743	14514
865.875	14438
866.006	14419
866.137	14461
866.269	14423
866.4	14396
866.531	14408
866.662	14259
866.793	14339
866.924	14347
867.055	14442
867.186	14431
867.317	14328
867.448	14317
867.579	14366
867.71	14309
867.841	14374
867.972	14374
868.103	14408
868.233	14431
868.364	14419
868.495	14511
868.625	14621
868.756	14826
868.886	14602
869.017	14602
869.147	14735
869.278	14906
869.408	14674
869.539	14705
869.669	14792
869.799	14644
869.929	14750
870.06	14769
870.19	14921
870.32	14975
870.45	15013
870.58	15100
870.71	15116
870.84	15119
870.97	15123
871.1	15074
871.23	15298
871.36	15310
871.489	15302
871.619	15184
871.749	15279
871.879	15332
872.008	15424
872.138	15252
872.267	15268
872.397	15051
872.526	15119
872.656	15127
872.785	15131
872.915	15298
873.044	15306
873.173	15264
873.303	15317
873.432	15351
873.561	15386
873.69	15397
873.819	15355
873.948	15397
874.077	15367
874.206	15207
874.335	15329
874.464	15450
874.593	15572
874.722	15534
874.851	15625
874.979	15568
875.108	15705
875.237	15557
875.365	15504
875.494	15595
875.623	15603
875.751	15656
875.88	15595
876.008	15709
876.136	15739
876.265	16017
876.393	16242
876.521	16109
876.65	16086
876.778	16029
876.906	16055
877.034	15857
877.162	15831
877.29	15960
877.418	16169
877.546	16036
877.674	15960
877.802	16086
877.93	16036
878.058	16002
878.185	15831
878.313	16051
878.441	16105
878.568	15850
878.696	15911
878.824	16055
878.951	16112
879.079	16097
879.206	16367
879.333	16253
879.461	16173
879.588	16207
879.715	16261
879.842	16356
879.97	16158
880.097	15869
880.224	15808
880.351	16013
880.478	15880
880.605	15884
880.732	15857
880.859	16032
880.986	15823
881.112	15930
881.239	15690
881.366	15701
881.493	15545
881.619	15507
881.746	15587
881.872	15519
881.999	15485
882.125	15538
882.252	15656
882.378	15481
882.505	15728
882.631	15500
882.757	15317
882.883	15397
883.01	15412
883.136	15481
883.262	15192
883.388	15192
883.514	15378
883.64	15439
883.766	15302
883.892	15165
884.018	15241
884.143	15466
884.269	15397
884.395	15146
884.52	14937
884.646	14960
884.772	14990
884.897	14910
885.023	15062
885.148	15081
885.274	15173
885.399	15165
885.524	15077
885.65	15074
885.775	15192
885.9	14971
886.025	15104
886.15	15169
886.275	15104
886.4	14944
886.525	15024
886.65	15001
886.775	15058
886.9	15089
887.025	15310
887.149	15058
887.274	14853
887.399	14788
887.523	14887
887.648	14849
887.773	14762
887.897	14967
888.021	14830
888.146	14834
888.27	15001
888.395	14921
888.519	14952
888.643	14925
888.767	14975
888.891	14845
889.015	14705
889.139	14754
889.263	14750
889.387	14864
889.511	14967
889.635	14826
889.759	14670
889.883	14720
890.006	14735
890.13	14762
890.254	14727
890.377	14663
890.501	14533
890.624	14461
890.748	14579
890.871	14484
890.995	14362
891.118	14351
891.241	14358
891.364	14503
891.488	14571
891.611	14381
891.734	14454
891.857	14484
891.98	14400
892.103	14480
892.226	14469
892.349	14423
892.471	14263
892.594	14457
892.717	14484
892.839	14351
892.962	14408
893.085	14396
893.207	14396
893.33	14381
893.452	14396
893.575	14526
893.697	14385
893.819	14560
893.941	14613
894.064	14560
894.186	14351
894.308	14332
894.43	14533
894.552	14648
894.674	14541
894.796	14514
894.918	14484
895.04	14480
895.161	14568
895.283	14602
895.405	14465
895.526	14442
895.648	14507
895.769	14655
895.891	14617
896.012	14575
896.134	14571
896.255	14606
896.376	14552
896.498	14549
896.619	14594
896.74	14552
896.861	14663
896.982	15009
897.103	15055
897.224	14819
897.345	14811
897.466	14663
897.587	14769
897.708	15024
897.828	14910
897.949	14762
898.07	14746
898.19	14842
898.311	14990
898.431	14994
898.552	14963
898.672	14921
898.792	15127
898.913	14925
899.033	14834
899.153	14804
899.273	14651
899.393	14678
899.513	14712
899.633	14853
899.753	14724
899.873	14682
899.993	14746
900.113	14743
900.232	14899
900.352	14861
900.472	14659
900.591	14587
900.711	14651
900.83	14579
900.95	14678
901.069	14792
901.189	14503
901.308	14461
901.427	14294
901.546	14286
901.665	14339
901.784	14355
901.904	14176
902.023	14058
902.141	13986
902.26	13849
902.379	14001
902.498	13928
902.617	13845
902.735	13906
902.854	13814
902.973	13677
903.091	13681
903.21	13658
903.328	13514
903.446	13468
903.565	13426
903.683	13472
903.801	13373
903.919	13403
904.038	13396
904.156	13213
904.274	13274
904.392	13209
904.51	13255
904.627	13183
904.745	13362
904.863	13358
904.981	13027
905.098	12970
905.216	13019
905.334	13069
905.451	12981
905.569	12878
905.686	12909
905.803	12916
905.921	12825
906.038	12867
906.155	12859
906.272	12684
906.389	12726
906.506	12498
906.623	12589
906.74	12555
906.857	12323
906.974	12433
907.091	12551
907.208	12684
907.324	12623
907.441	12483
907.557	12350
907.674	12235
907.79	12270
907.907	12296
908.023	12270
908.139	12213
908.256	12262
908.372	12129
908.488	12281
908.604	12019
908.72	11935
908.836	12026
908.952	12038
909.068	12053
909.184	11996
909.3	11996
909.415	12019
909.531	12007
909.647	11828
909.762	11729
909.878	11779
909.993	11809
910.108	11703
910.224	11802
910.339	11821
910.454	11710
910.57	11619
910.685	11596
910.8	11836
910.915	11775
911.03	11691
911.145	11512
911.259	11520
911.374	11478
911.489	11406
911.604	11341
911.718	11208
911.833	11246
911.947	11113
912.062	11045
912.176	11216
912.291	11220
912.405	11250
912.519	11463
912.633	11391
912.748	11341
912.862	11265
912.976	11197
913.09	11018
913.204	11090
913.318	11041
913.431	11166
913.545	11181
913.659	11246
913.772	11105
913.886	11071
914	10930
914.113	11117
914.226	11045
914.34	11166
914.453	11006
914.566	11014
914.68	10938
914.793	10847
914.906	10740
915.019	10721
915.132	10687
915.245	10729
915.358	10763
915.47	10714
915.583	10721
915.696	10759
915.809	10923
915.921	10991
916.034	10683
916.146	10717
916.259	10656
916.371	10725
916.483	10763
916.595	10500
916.708	10615
916.82	10702
916.932	10603
917.044	10622
917.156	10694
917.268	10478
917.38	10573
917.491	10462
917.603	10599
917.715	10660
917.826	10615
917.938	10531
918.049	10417
918.161	10603
918.272	10691
918.384	10706
918.495	10603
918.606	10398
918.717	10390
918.828	10459
918.939	10531
919.05	10341
919.161	10424
919.272	10306
919.383	10272
919.494	10538
919.604	10672
919.715	10474
919.826	10322
919.936	10386
920.047	10489
920.157	10531
920.267	10649
920.378	10436
920.488	10382
920.598	10607
920.708	10729
920.818	10668
920.928	10592
921.038	10691
921.148	10645
921.258	10459
921.368	10382
921.477	10356
921.587	10299
921.697	10162
921.806	10272
921.916	10154
922.025	9934
922.134	10040
922.244	9945
922.353	10006
922.462	9884
922.571	9846
922.68	9648
922.789	9625
922.898	9736
923.007	9667
923.116	9732
923.224	9682
923.333	9663
923.442	9561
923.55	9580
923.659	9591
923.767	9576
923.876	9549
923.984	9652
924.092	9526
924.201	9549
924.309	9622
924.417	9561
924.525	9500
924.633	9473
924.741	10299
924.849	9336
924.956	9473
925.064	9313
925.172	9291
925.279	9291
925.387	9355
925.494	9241
925.602	9469
925.709	9367
925.816	9131
925.924	9329
926.031	9340
926.138	9310
926.245	9370
926.352	9283
926.459	9412
926.566	9359
926.673	9245
926.779	9116
926.886	9127
926.993	9077
927.099	8933
927.206	8941
927.312	9009
927.419	9138
927.525	8986
927.631	9028
927.737	8967
927.843	8967
927.95	8796
928.056	8887
928.162	8902
928.267	8914
928.373	9519
928.479	8986
928.585	8796
928.69	8948
928.796	8990
928.901	8838
929.007	8697
929.112	8819
929.218	8750
929.323	8758
929.428	8644
929.533	8952
929.638	8727
929.743	8777
929.848	8788
929.953	8750
930.058	8625
930.163	8484
930.267	8522
930.372	8708
930.477	8415
930.581	8674
930.685	8552
930.79	8476
930.894	8404
930.998	8393
931.103	8533
931.207	8218
931.311	8172
931.415	8123
931.519	7909
931.623	7967
