Data from test_V78500241_801.txt Node
Date: Fri Mar 25 14:39:17 CST 2022
User: usil
Spectrometer: V785-0024
Trigger mode: 0
Integration Time (sec): 4.000000E-1
Scans to average: 1
Nonlinearity correction enabled: false
Boxcar width: 0
Storing dark spectrum: false
XAxis mode: Wavelengths
Number of Pixels in Spectrum: 1024
>>>>>Begin Spectral Data<<<<<
801.071	26393
801.214	26244
801.356	26149
801.499	25982
801.641	25841
801.783	25811
801.926	25841
802.068	25715
802.211	25594
802.353	25597
802.496	25449
802.638	25190
802.78	25225
802.923	25160
803.065	25316
803.208	25183
803.35	25206
803.492	25419
803.635	25445
803.777	25411
803.919	25415
804.061	25746
804.204	25373
804.346	25407
804.488	25381
804.63	25514
804.773	25293
804.915	25529
805.057	25632
805.199	25624
805.341	25685
805.483	25849
805.626	25769
805.768	25791
805.91	25860
806.052	26103
806.194	26081
806.336	26457
806.478	26453
806.62	26488
806.762	26849
806.904	27135
807.046	27641
807.188	27747
807.33	28249
807.472	28588
807.614	29067
807.756	29775
807.898	30768
808.04	31963
808.182	33603
808.324	35714
808.465	37974
808.607	40729
808.749	42920
808.891	44320
809.033	44507
809.174	43152
809.316	40972
809.458	38202
809.6	35490
809.741	33150
809.883	31594
810.025	30247
810.166	29467
810.308	28847
810.45	28409
810.591	28025
810.733	27378
810.875	27043
811.016	26864
811.158	26720
811.299	26575
811.441	26667
811.582	26419
811.724	26358
811.865	26157
812.007	26043
812.148	26027
812.29	26035
812.431	26187
812.573	26233
812.714	26240
812.855	26149
812.997	26294
813.138	26385
813.279	26229
813.421	26115
813.562	26012
813.703	25898
813.845	25685
813.986	25422
814.127	25164
814.268	25053
814.41	25126
814.551	24890
814.692	25103
814.833	24905
814.974	24844
815.115	24840
815.256	24715
815.397	24730
815.539	24779
815.68	24700
815.821	24525
815.962	24582
816.103	24551
816.244	24350
816.385	24323
816.526	24232
816.666	24144
816.807	24018
816.948	24003
817.089	23999
817.23	23882
817.371	23920
817.512	23798
817.653	23847
817.793	23878
817.934	23908
818.075	23893
818.216	23794
818.356	23840
818.497	23699
818.638	23387
818.778	23573
818.919	23452
819.06	23585
819.2	23562
819.341	23646
819.481	23630
819.622	23847
819.762	23882
819.903	23961
820.043	23703
820.184	23745
820.324	23687
820.465	23851
820.605	23786
820.746	23608
820.886	23444
821.026	23592
821.167	23566
821.307	23741
821.447	23486
821.588	23326
821.728	23292
821.868	23147
822.008	22999
822.149	22797
822.289	22809
822.429	22755
822.569	22698
822.709	22634
822.849	22432
822.99	22451
823.13	22249
823.27	22325
823.41	22139
823.55	22135
823.69	22253
823.83	22234
823.97	22147
824.11	21937
824.25	22013
824.389	21857
824.529	21979
824.669	21994
824.809	21861
824.949	22192
825.089	22109
825.228	21934
825.368	21675
825.508	21751
825.648	21793
825.787	21835
825.927	21789
826.067	21724
826.206	21804
826.346	21751
826.485	21838
826.625	21701
826.765	21800
826.904	21641
827.044	21428
827.183	21492
827.323	21473
827.462	21447
827.601	21382
827.741	21359
827.88	21428
828.02	21256
828.159	21321
828.298	21302
828.437	21435
828.577	21370
828.716	21534
828.855	21355
828.994	21218
829.134	21104
829.273	21233
829.412	21036
829.551	20925
829.69	21005
829.829	21074
829.968	21173
830.107	21157
830.246	21036
830.385	21005
830.524	20849
830.663	20800
830.802	20845
830.941	20739
831.08	20701
831.219	20697
831.357	20670
831.496	20819
831.635	20632
831.774	20659
831.913	20469
832.051	20568
832.19	20629
832.329	20575
832.467	20461
832.606	20446
832.744	20454
832.883	20602
833.022	20613
833.16	20731
833.299	20868
833.437	20830
833.576	21066
833.714	21074
833.852	21233
833.991	21416
834.129	21473
834.267	21397
834.406	21230
834.544	21378
834.682	21207
834.821	21188
834.959	21173
835.097	20834
835.235	20864
835.373	20815
835.511	20621
835.65	20499
835.788	20320
835.926	20263
836.064	20229
836.202	20244
836.34	20237
836.478	20339
836.615	20157
836.753	20252
836.891	20180
837.029	20278
837.167	20092
837.305	20043
837.443	20092
837.58	20050
837.718	20008
837.856	20122
837.993	20020
838.131	20020
838.269	19967
838.406	19883
838.544	19856
838.681	19719
838.819	19677
838.956	19464
839.094	19502
839.231	19655
839.369	19575
839.506	19841
839.643	19746
839.781	19609
839.918	19396
840.055	19468
840.193	19491
840.33	19419
840.467	19460
840.604	19506
840.742	19719
840.879	19293
841.016	19415
841.153	19362
841.29	19582
841.427	19468
841.564	19392
841.701	19411
841.838	19362
841.975	19468
842.112	19403
842.249	19285
842.385	19270
842.522	19411
842.659	19316
842.796	19251
842.933	19335
843.069	19240
843.206	19301
843.343	19403
843.479	19339
843.616	19476
843.752	19198
843.889	19304
844.025	19388
844.162	19308
844.298	19575
844.435	19548
844.571	19521
844.708	20031
844.844	20298
844.98	20705
845.117	21176
845.253	21732
845.389	23166
845.525	26062
845.661	30532
845.798	35855
845.934	40051
846.07	41855
846.206	40672
846.342	37164
846.478	31814
846.614	26899
846.75	23832
846.886	22044
847.022	21043
847.158	20164
847.294	19639
847.429	19499
847.565	19179
847.701	19377
847.837	18692
847.972	18623
848.108	18730
848.244	18703
848.379	18464
848.515	18262
848.65	18273
848.786	18209
848.921	18159
849.057	18315
849.192	18380
849.328	18186
849.463	18327
849.598	18232
849.734	18201
849.869	18030
850.004	17954
850.14	17764
850.275	17912
850.41	17828
850.545	17961
850.68	17832
850.815	17836
850.95	17901
851.085	18098
851.22	17931
851.355	17866
851.49	17927
851.625	17752
851.76	17836
851.895	17836
852.03	17828
852.165	17878
852.299	17939
852.434	17996
852.569	17969
852.703	17946
852.838	18038
852.973	18045
853.107	18136
853.242	17950
853.376	17828
853.511	17779
853.645	17874
853.78	18155
853.914	18038
854.048	18045
854.183	18038
854.317	18049
854.451	18239
854.585	18098
854.72	18053
854.854	18091
854.988	17950
855.122	17980
855.256	17790
855.39	17969
855.524	17809
855.658	17863
855.792	17805
855.926	17843
856.06	17828
856.194	17874
856.327	17882
856.461	17684
856.595	17741
856.729	17699
856.862	17836
856.996	17805
857.13	17870
857.263	17798
857.397	17836
857.53	17779
857.664	17756
857.797	17752
857.931	17714
858.064	17745
858.197	17847
858.331	17600
858.464	17638
858.597	17558
858.731	17665
858.864	17524
858.997	17585
859.13	17543
859.263	17581
859.396	17581
859.529	17558
859.662	17558
859.795	17547
859.928	17653
860.061	17737
860.194	17786
860.327	17474
860.46	17642
860.592	17634
860.725	17710
860.858	17847
860.99	17573
861.123	17478
861.256	17474
861.388	17653
861.521	18171
861.653	17440
861.786	17490
861.918	17421
862.05	17471
862.183	17440
862.315	17528
862.447	17596
862.58	17493
862.712	17315
862.844	17220
862.976	17486
863.108	17258
863.24	17775
863.372	17193
863.504	17288
863.636	17250
863.768	17299
863.9	17315
864.032	17242
864.164	17303
864.296	17288
864.428	17395
864.559	17345
864.691	17398
864.823	17368
864.954	17269
865.086	17311
865.217	17113
865.349	17140
865.48	17193
865.612	17307
865.743	17353
865.875	17242
866.006	17250
866.137	17288
866.269	17197
866.4	17189
866.531	17170
866.662	17143
866.793	17117
866.924	17197
867.055	17197
867.186	17204
867.317	17136
867.448	17121
867.579	17185
867.71	17094
867.841	17064
867.972	17193
868.103	17208
868.233	17223
868.364	17208
868.495	17353
868.625	17448
868.756	17497
868.886	17368
869.017	17505
869.147	17528
869.278	17524
869.408	17505
869.539	17421
869.669	17520
869.799	17558
869.929	17562
870.06	17501
870.19	17802
870.32	17722
870.45	17821
870.58	17813
870.71	17931
870.84	17946
870.97	17847
871.1	17855
871.23	17950
871.36	18030
871.489	18102
871.619	18091
871.749	18232
871.879	18102
872.008	18273
872.138	18235
872.267	18144
872.397	18121
872.526	18041
872.656	17999
872.785	18095
872.915	18235
873.044	18407
873.173	18277
873.303	18384
873.432	18315
873.561	18521
873.69	18338
873.819	18437
873.948	18498
874.077	18479
874.206	18429
874.335	18490
874.464	18631
874.593	18722
874.722	18753
874.851	18837
874.979	18806
875.108	18875
875.237	18825
875.365	18650
875.494	18897
875.623	19050
875.751	18890
875.88	19084
876.008	19164
876.136	19350
876.265	19548
876.393	19567
876.521	19624
876.65	19795
876.778	19769
876.906	19734
877.034	19719
877.162	19742
877.29	19780
877.418	20096
877.546	20107
877.674	20031
877.802	20176
877.93	20347
878.058	20495
878.185	20533
878.313	20883
878.441	21157
878.568	21294
878.696	21778
878.824	22447
878.951	23395
879.079	24623
879.206	26370
879.333	27914
879.461	29349
879.588	30349
879.715	30186
879.842	29611
879.97	28025
880.097	26149
880.224	24905
880.351	23988
880.478	23299
880.605	22847
880.732	22474
880.859	22512
880.986	22177
881.112	22048
881.239	21926
881.366	21762
881.493	21606
881.619	21606
881.746	21652
881.872	21629
881.999	21671
882.125	21709
882.252	21930
882.378	21854
882.505	21945
882.631	21819
882.757	21591
882.883	21759
883.01	21580
883.136	21599
883.262	21557
883.388	21523
883.514	21747
883.64	21580
883.766	21507
883.892	21386
884.018	21329
884.143	21466
884.269	21644
884.395	21389
884.52	21344
884.646	21306
884.772	21264
884.897	21214
885.023	21325
885.148	21389
885.274	21340
885.399	21348
885.524	21108
885.65	21055
885.775	21013
885.9	20876
886.025	20781
886.15	20724
886.275	20537
886.4	20351
886.525	20305
886.65	20111
886.775	20016
886.9	20180
887.025	20187
887.149	19845
887.274	19620
887.399	19529
887.523	19480
887.648	19422
887.773	19244
887.897	19308
888.021	19346
888.146	19076
888.27	19263
888.395	19141
888.519	19065
888.643	19057
888.767	19133
888.891	18920
889.015	18696
889.139	18810
889.263	18677
889.387	18745
889.511	18798
889.635	18753
889.759	18521
889.883	18521
890.006	18551
890.13	18642
890.254	18327
890.377	18391
890.501	18129
890.624	18098
890.748	18167
890.871	18064
890.995	18015
891.118	17859
891.241	17950
891.364	17863
891.488	17973
891.611	17855
891.734	17973
891.857	17863
891.98	17836
892.103	17790
892.226	17840
892.349	17710
892.471	17554
892.594	17497
892.717	17729
892.839	17615
892.962	17604
893.085	17630
893.207	17547
893.33	17368
893.452	17391
893.575	17455
893.697	17452
893.819	17585
893.941	17566
894.064	17543
894.186	17349
894.308	17315
894.43	17356
894.552	17452
894.674	17402
894.796	17277
894.918	17280
895.04	17334
895.161	17429
895.283	17250
895.405	17227
895.526	17269
895.648	17280
895.769	17254
895.891	17159
896.012	17296
896.134	17277
896.255	17212
896.376	17174
896.498	17212
896.619	17239
896.74	17220
896.861	17391
896.982	17516
897.103	17630
897.224	17532
897.345	17425
897.466	17383
897.587	17455
897.708	17501
897.828	17356
897.949	17448
898.07	17288
898.19	17254
898.311	17577
898.431	17436
898.552	17402
898.672	17532
898.792	17455
898.913	17539
899.033	17288
899.153	17242
899.273	17105
899.393	17155
899.513	17235
899.633	17280
899.753	17372
899.873	17258
899.993	17181
900.113	17231
900.232	17254
900.352	17147
900.472	17121
900.591	16991
900.711	17071
900.83	17029
900.95	17124
901.069	17143
901.189	16938
901.308	16740
901.427	16656
901.546	16649
901.665	16713
901.784	16622
901.904	16527
902.023	16455
902.141	16230
902.26	16067
902.379	16204
902.498	16082
902.617	16074
902.735	16021
902.854	16071
902.973	16010
903.091	15838
903.21	15770
903.328	15838
903.446	15675
903.565	15504
903.683	15534
903.801	15370
903.919	15496
904.038	15557
904.156	15420
904.274	15408
904.392	15275
904.51	15294
904.627	15264
904.745	15450
904.863	15412
904.981	15199
905.098	15013
905.216	15055
905.334	14971
905.451	14967
905.569	14941
905.686	14990
905.803	14910
905.921	14758
906.038	14895
906.155	14830
906.272	14632
906.389	14537
906.506	14568
906.623	14610
906.74	14499
906.857	14317
906.974	14423
907.091	14590
907.208	14625
907.324	14556
907.441	14434
907.557	14294
907.674	14286
907.79	14252
907.907	14176
908.023	14244
908.139	14149
908.256	14199
908.372	14142
908.488	14180
908.604	13967
908.72	14001
908.836	13932
908.952	14035
909.068	13932
909.184	14050
909.3	13928
909.415	13951
909.531	13947
909.647	13727
909.762	13689
909.878	13647
909.993	13658
910.108	13693
910.224	13677
910.339	13655
910.454	13518
910.57	13548
910.685	13419
910.8	13750
910.915	13620
911.03	13556
911.145	13377
911.259	13251
911.374	13365
911.489	13270
911.604	13263
911.718	13164
911.833	13171
911.947	13012
912.062	12932
912.176	13088
912.291	13053
912.405	13084
912.519	13274
912.633	13244
912.748	13156
912.862	13065
912.976	12897
913.09	12897
913.204	12867
913.318	13012
913.431	13004
913.545	13084
913.659	13107
913.772	12882
913.886	12821
914	12722
914.113	12848
914.226	12894
914.34	12947
914.453	12738
914.566	12848
914.68	12673
914.793	12757
914.906	12585
915.019	12490
915.132	12380
915.245	12521
915.358	12509
915.47	12437
915.583	12479
915.696	12563
915.809	12631
915.921	12665
916.034	12513
916.146	12494
916.259	12380
916.371	12498
916.483	12555
916.595	12479
916.708	12460
916.82	12490
916.932	12471
917.044	12498
917.156	12429
917.268	12273
917.38	12334
917.491	12243
917.603	12323
917.715	12292
917.826	12365
917.938	12254
918.049	12098
918.161	12213
918.272	12292
918.384	12407
918.495	12247
918.606	12076
918.717	12007
918.828	12083
918.939	12072
919.05	11984
919.161	12003
919.272	11836
919.383	11882
919.494	12140
919.604	12289
919.715	12095
919.826	11954
919.936	11931
920.047	12152
920.157	12060
920.267	12201
920.378	12038
920.488	11992
920.598	12235
920.708	12327
920.818	12213
920.928	12133
921.038	12346
921.148	12292
921.258	12034
921.368	11923
921.477	11813
921.587	11748
921.697	11657
921.806	11859
921.916	11691
922.025	11524
922.134	11433
922.244	11417
922.353	11528
922.462	11444
922.571	11326
922.68	11231
922.789	11132
922.898	11181
923.007	11060
923.116	11201
923.224	11174
923.333	11121
923.442	11079
923.55	11014
923.659	10995
923.767	11071
923.876	10930
923.984	11071
924.092	10881
924.201	10866
924.309	11018
924.417	10942
924.525	10896
924.633	10911
924.741	11885
924.849	10763
924.956	10873
925.064	10710
925.172	10653
925.279	10626
925.387	10729
925.494	10691
925.602	10862
925.709	10717
925.816	10603
925.924	10615
926.031	10793
926.138	10714
926.245	10778
926.352	10630
926.459	10752
926.566	10820
926.673	10660
926.779	10611
926.886	10455
926.993	10360
927.099	10318
927.206	10363
927.312	10291
927.419	10367
927.525	10360
927.631	10402
927.737	10287
927.843	10215
927.95	10139
928.056	10181
928.162	10177
928.267	10272
928.373	10930
928.479	10379
928.585	10109
928.69	10135
928.796	10287
928.901	10135
929.007	10051
929.112	10139
929.218	10147
929.323	10025
929.428	9987
929.533	10188
929.638	9945
929.743	9991
929.848	9975
929.953	9964
930.058	9937
930.163	9762
930.267	9789
930.372	9926
930.477	9728
930.581	9964
930.685	9781
930.79	9679
930.894	9682
930.998	9694
931.103	9774
931.207	9431
931.311	9405
931.415	9268
931.519	9131
931.623	9051
