Data from test_V78500241_893.txt Node
Date: Fri Mar 25 14:39:56 CST 2022
User: usil
Spectrometer: V785-0024
Trigger mode: 0
Integration Time (sec): 4.000000E-1
Scans to average: 1
Nonlinearity correction enabled: false
Boxcar width: 0
Storing dark spectrum: false
XAxis mode: Wavelengths
Number of Pixels in Spectrum: 1024
>>>>>Begin Spectral Data<<<<<
801.071	25240
801.214	25156
801.356	24802
801.499	24894
801.641	24669
801.783	24726
801.926	24612
802.068	24471
802.211	24414
802.353	24289
802.496	24129
802.638	24136
802.78	24038
802.923	24053
803.065	23973
803.208	23805
803.35	23958
803.492	24079
803.635	24148
803.777	24064
803.919	24030
804.061	24422
804.204	24114
804.346	23912
804.488	23836
804.63	24015
804.773	23916
804.915	23843
805.057	24216
805.199	24068
805.341	24117
805.483	24159
805.626	24133
805.768	24007
805.91	24117
806.052	24197
806.194	24205
806.336	24395
806.478	24220
806.62	24319
806.762	24464
806.904	24692
807.046	24947
807.188	24939
807.33	25004
807.472	25198
807.614	25388
807.756	25761
807.898	25791
808.04	26149
808.182	26739
808.324	27310
808.465	28051
808.607	29003
808.749	29916
808.891	30258
809.033	30327
809.174	29893
809.316	29086
809.458	28169
809.6	27256
809.741	26861
809.883	26202
810.025	26073
810.166	25658
810.308	25460
810.45	25285
810.591	25099
810.733	24810
810.875	24791
811.016	24616
811.158	24574
811.299	24646
811.441	24639
811.582	24494
811.724	24327
811.865	24311
812.007	24372
812.148	24384
812.29	24372
812.431	24422
812.573	24578
812.714	24760
812.855	24817
812.997	24821
813.138	25034
813.279	24947
813.421	24817
813.562	24642
813.703	24490
813.845	24399
813.986	24045
814.127	23855
814.268	23809
814.41	23805
814.551	23870
814.692	23680
814.833	23619
814.974	23592
815.115	23764
815.256	23406
815.397	23570
815.539	23562
815.68	23383
815.821	23455
815.962	23444
816.103	23436
816.244	23208
816.385	23025
816.526	23178
816.666	22987
816.807	22786
816.948	22934
817.089	22927
817.23	22908
817.371	22877
817.512	22866
817.653	22729
817.793	22771
817.934	22683
818.075	22656
818.216	22889
818.356	22687
818.497	22603
818.638	22478
818.778	22470
818.919	22413
819.06	22481
819.2	22729
819.341	22668
819.481	22706
819.622	22797
819.762	22900
819.903	22847
820.043	22816
820.184	22615
820.324	22694
820.465	22759
820.605	22675
820.746	22675
820.886	22538
821.026	22687
821.167	22603
821.307	22740
821.447	22580
821.588	22413
821.728	22337
821.868	22226
822.008	22154
822.149	21991
822.289	22158
822.429	21648
822.569	21713
822.709	21781
822.849	21500
822.99	21511
823.13	21340
823.27	21462
823.41	21226
823.55	21279
823.69	21150
823.83	21192
823.97	21241
824.11	21154
824.25	21032
824.389	21043
824.529	21104
824.669	21058
824.809	20944
824.949	21176
825.089	21150
825.228	21013
825.368	20998
825.508	20891
825.648	20868
825.787	20918
825.927	20975
826.067	20838
826.206	20815
826.346	20815
826.485	20769
826.625	20758
826.765	20857
826.904	20861
827.044	20651
827.183	20621
827.323	20415
827.462	20609
827.601	20552
827.741	20503
827.88	20507
828.02	20370
828.159	20370
828.298	20545
828.437	20499
828.577	20343
828.716	20423
828.855	20473
828.994	20282
829.134	20240
829.273	20271
829.412	20202
829.551	20237
829.69	20202
829.829	20237
829.968	20225
830.107	20294
830.246	20210
830.385	20103
830.524	20062
830.663	19944
830.802	19845
830.941	19868
831.08	19879
831.219	19913
831.357	19776
831.496	19833
831.635	19727
831.774	19795
831.913	19590
832.051	19487
832.19	19521
832.329	19563
832.467	19529
832.606	19396
832.744	19514
832.883	19468
833.022	19464
833.16	19483
833.299	19639
833.437	19635
833.576	19655
833.714	19658
833.852	19666
833.991	19761
834.129	19814
834.267	19852
834.406	19708
834.544	19696
834.682	19681
834.821	19643
834.959	19818
835.097	19594
835.235	19647
835.373	19578
835.511	19548
835.65	19434
835.788	19369
835.926	19213
836.064	19168
836.202	19198
836.34	19354
836.478	19449
836.615	19247
836.753	19392
836.891	19430
837.029	19396
837.167	19187
837.305	19282
837.443	19190
837.58	19179
837.718	19282
837.856	19152
837.993	19061
838.131	19194
838.269	18951
838.406	19217
838.544	18905
838.681	18795
838.819	18726
838.956	18696
839.094	18677
839.231	18635
839.369	18806
839.506	19023
839.643	18821
839.781	18608
839.918	18604
840.055	18582
840.193	18658
840.33	18433
840.467	18570
840.604	18608
840.742	18837
840.879	18448
841.016	18433
841.153	18506
841.29	18593
841.427	18570
841.564	18521
841.701	18616
841.838	18410
841.975	18498
842.112	18361
842.249	18361
842.385	18251
842.522	18509
842.659	18357
842.796	18289
842.933	18220
843.069	18262
843.206	18372
843.343	18410
843.479	18357
843.616	18414
843.752	18155
843.889	18205
844.025	18365
844.162	18098
844.298	18369
844.435	18159
844.571	18243
844.708	18357
844.844	18654
844.98	18612
845.117	18684
845.253	18772
845.389	19270
845.525	20081
845.661	21332
845.798	22995
845.934	24437
846.07	25015
846.206	24776
846.342	23691
846.478	22101
846.614	20476
846.75	19297
846.886	18669
847.022	18464
847.158	18136
847.294	18034
847.429	17828
847.565	17855
847.701	18038
847.837	17448
847.972	17349
848.108	17551
848.244	17433
848.379	17223
848.515	17181
848.65	17181
848.786	17341
848.921	17299
849.057	17368
849.192	17254
849.328	17197
849.463	17140
849.598	17113
849.734	17086
849.869	16987
850.004	16965
850.14	16927
850.275	16942
850.41	16820
850.545	16854
850.68	16812
850.815	16946
850.95	17041
851.085	17037
851.22	17014
851.355	16877
851.49	16801
851.625	16854
851.76	16797
851.895	16843
852.03	16839
852.165	16904
852.299	16904
852.434	17109
852.569	16854
852.703	16908
852.838	16972
852.973	17086
853.107	17079
853.242	16949
853.376	16759
853.511	16634
853.645	16793
853.78	16934
853.914	16923
854.048	16839
854.183	16847
854.317	16930
854.451	17060
854.585	16854
854.72	16805
854.854	16889
854.988	16740
855.122	16854
855.256	16660
855.39	16698
855.524	16877
855.658	16847
855.792	16831
855.926	16900
856.06	16866
856.194	16942
856.327	16793
856.461	16641
856.595	16744
856.729	16801
856.862	16828
856.996	16820
857.13	16889
857.263	16877
857.397	16721
857.53	16850
857.664	16793
857.797	16790
857.931	16831
858.064	16752
858.197	16862
858.331	16904
858.464	16740
858.597	16569
858.731	16774
858.864	16634
858.997	16706
859.13	16736
859.263	16774
859.396	16782
859.529	16694
859.662	16706
859.795	16675
859.928	16645
860.061	16755
860.194	16847
860.327	16733
860.46	16717
860.592	16687
860.725	16713
860.858	16805
860.99	16664
861.123	16546
861.256	16759
861.388	16683
861.521	17315
861.653	16611
861.786	16455
861.918	16531
862.05	16554
862.183	16649
862.315	16736
862.447	16588
862.58	16573
862.712	16478
862.844	16371
862.976	16474
863.108	16516
863.24	16919
863.372	16329
863.504	16428
863.636	16390
863.768	16466
863.9	16413
864.032	16371
864.164	16363
864.296	16428
864.428	16561
864.559	16481
864.691	16565
864.823	16489
864.954	16440
865.086	16402
865.217	16447
865.349	16303
865.48	16470
865.612	16478
865.743	16462
865.875	16413
866.006	16394
866.137	16424
866.269	16363
866.4	16402
866.531	16409
866.662	16291
866.793	16280
866.924	16306
867.055	16356
867.186	16398
867.317	16261
867.448	16181
867.579	16268
867.71	16253
867.841	16310
867.972	16291
868.103	16234
868.233	16333
868.364	16276
868.495	16405
868.625	16516
868.756	16736
868.886	16470
869.017	16558
869.147	16733
869.278	16725
869.408	16577
869.539	16607
869.669	16634
869.799	16558
869.929	16706
870.06	16767
870.19	16927
870.32	16908
870.45	16965
870.58	17155
870.71	17086
870.84	17067
870.97	17003
871.1	16968
871.23	17185
871.36	17136
871.489	17064
871.619	17136
871.749	17235
871.879	17280
872.008	17337
872.138	17185
872.267	17254
872.397	17170
872.526	17071
872.656	16999
872.785	17029
872.915	17132
873.044	17269
873.173	17231
873.303	17185
873.432	17269
873.561	17417
873.69	17330
873.819	17292
873.948	17368
874.077	17410
874.206	17337
874.335	17360
874.464	17505
874.593	17585
874.722	17551
874.851	17653
874.979	17714
875.108	17726
875.237	17630
875.365	17581
875.494	17676
875.623	17760
875.751	17722
875.88	17764
876.008	17767
876.136	17988
876.265	18003
876.393	18228
876.521	18110
876.65	18201
876.778	18155
876.906	18270
877.034	18102
877.162	18380
877.29	18197
877.418	18258
877.546	18300
877.674	18342
877.802	18247
877.93	18323
878.058	18521
878.185	18273
878.313	18475
878.441	18669
878.568	18570
878.696	18833
878.824	19072
878.951	19407
879.079	19818
879.206	20476
879.333	20830
879.461	21310
879.588	21622
879.715	21576
879.842	21500
879.97	20876
880.097	20092
880.224	19639
880.351	19388
880.478	19202
880.605	19034
880.732	18897
880.859	19141
880.986	18943
881.112	18814
881.239	18707
881.366	18650
881.493	18483
881.619	18433
881.746	18376
881.872	18448
881.999	18433
882.125	18429
882.252	18517
882.378	18646
882.505	18608
882.631	18437
882.757	18327
882.883	18350
883.01	18273
883.136	18228
883.262	18224
883.388	18133
883.514	18232
883.64	18361
883.766	18235
883.892	18095
884.018	18213
884.143	18308
884.269	18251
884.395	18079
884.52	17965
884.646	18022
884.772	17832
884.897	17882
885.023	18011
885.148	17958
885.274	18102
885.399	18022
885.524	17923
885.65	17851
885.775	17855
885.9	17794
886.025	17912
886.15	17786
886.275	17665
886.4	17638
886.525	17558
886.65	17554
886.775	17478
886.9	17657
887.025	17695
887.149	17543
887.274	17410
887.399	17212
887.523	17360
887.648	17261
887.773	17159
887.897	17246
888.021	17231
888.146	17098
888.27	17326
888.395	17254
888.519	17231
888.643	17159
888.767	17178
888.891	17067
889.015	16972
889.139	16976
889.263	16980
889.387	16976
889.511	17178
889.635	17121
889.759	16927
889.883	16793
890.006	16858
890.13	16953
890.254	16767
890.377	16759
890.501	16615
890.624	16603
890.748	16668
890.871	16497
890.995	16466
891.118	16413
891.241	16481
891.364	16405
891.488	16580
891.611	16489
891.734	16508
891.857	16478
891.98	16493
892.103	16440
892.226	16443
892.349	16398
892.471	16268
892.594	16390
892.717	16322
892.839	16382
892.962	16314
893.085	16462
893.207	16379
893.33	16211
893.452	16322
893.575	16360
893.697	16363
893.819	16417
893.941	16443
894.064	16409
894.186	16299
894.308	16169
894.43	16295
894.552	16386
894.674	16348
894.796	16158
894.918	16246
895.04	16261
895.161	16375
895.283	16325
895.405	16291
895.526	16291
895.648	16246
895.769	16303
895.891	16318
896.012	16333
896.134	16341
896.255	16379
896.376	16223
896.498	16265
896.619	16508
896.74	16329
896.861	16402
896.982	16748
897.103	16805
897.224	16653
897.345	16592
897.466	16565
897.587	16596
897.708	16725
897.828	16672
897.949	16493
898.07	16538
898.19	16615
898.311	16778
898.431	16649
898.552	16687
898.672	16755
898.792	16710
898.913	16774
899.033	16660
899.153	16561
899.273	16405
899.393	16569
899.513	16508
899.633	16485
899.753	16481
899.873	16352
899.993	16504
900.113	16470
900.232	16573
900.352	16455
900.472	16478
900.591	16367
900.711	16440
900.83	16329
900.95	16485
901.069	16451
901.189	16299
901.308	16071
901.427	15964
901.546	15903
901.665	15975
901.784	16025
901.904	15804
902.023	15774
902.141	15519
902.26	15644
902.379	15671
902.498	15439
902.617	15416
902.735	15477
902.854	15477
902.973	15447
903.091	15116
903.21	15138
903.328	15176
903.446	15108
903.565	15009
903.683	14982
903.801	14902
903.919	15077
904.038	14845
904.156	14887
904.274	14754
904.392	14830
904.51	14796
904.627	14762
904.745	14792
904.863	14880
904.981	14488
905.098	14374
905.216	14423
905.334	14366
905.451	14434
905.569	14362
905.686	14396
905.803	14503
905.921	14248
906.038	14377
906.155	14294
906.272	14073
906.389	14081
906.506	13936
906.623	14001
906.74	13928
906.857	13799
906.974	13799
907.091	14073
907.208	14073
907.324	13986
907.441	13746
907.557	13715
907.674	13647
907.79	13689
907.907	13674
908.023	13647
908.139	13693
908.256	13578
908.372	13544
908.488	13529
908.604	13491
908.72	13384
908.836	13411
908.952	13449
909.068	13365
909.184	13495
909.3	13346
909.415	13464
909.531	13441
909.647	13126
909.762	13072
909.878	13152
909.993	13152
910.108	13088
910.224	13084
910.339	13179
910.454	12993
910.57	12996
910.685	12878
910.8	13168
910.915	13164
911.03	13008
911.145	12890
911.259	12753
911.374	12707
911.489	12646
911.604	12730
911.718	12650
911.833	12555
911.947	12388
912.062	12327
912.176	12445
912.291	12483
912.405	12589
912.519	12623
912.633	12627
912.748	12608
912.862	12426
912.976	12270
913.09	12296
913.204	12296
913.318	12426
913.431	12475
913.545	12437
913.659	12391
913.772	12330
913.886	12330
914	12140
914.113	12289
914.226	12346
914.34	12315
914.453	12140
914.566	12213
914.68	12220
914.793	12148
914.906	12106
915.019	11908
915.132	11874
915.245	11916
915.358	11901
915.47	12019
915.583	11999
915.696	12038
915.809	12110
915.921	12121
916.034	11958
916.146	11946
916.259	11882
916.371	11973
916.483	11836
916.595	11786
916.708	11878
916.82	11904
916.932	11790
917.044	11912
917.156	11832
917.268	11745
917.38	11707
917.491	11699
917.603	11813
917.715	11756
917.826	11843
917.938	11615
918.049	11589
918.161	11733
918.272	11775
918.384	11855
918.495	11676
918.606	11520
918.717	11524
918.828	11570
918.939	11501
919.05	11486
919.161	11516
919.272	11376
919.383	11376
919.494	11543
919.604	11741
919.715	11501
919.826	11429
919.936	11543
920.047	11539
920.157	11566
920.267	11779
920.378	11592
920.488	11459
920.598	11585
920.708	11802
920.818	11729
920.928	11741
921.038	11882
921.148	11828
921.258	11493
921.368	11429
921.477	11391
921.587	11349
921.697	11227
921.806	11307
921.916	11208
922.025	11086
922.134	10942
922.244	10965
922.353	11178
922.462	10881
922.571	10938
922.68	10736
922.789	10653
922.898	10771
923.007	10603
923.116	10812
923.224	10691
923.333	10672
923.442	10577
923.55	10554
923.659	10558
923.767	10645
923.876	10535
923.984	10656
924.092	10500
924.201	10516
924.309	10546
924.417	10497
924.525	10470
924.633	10417
924.741	11235
924.849	10299
924.956	10500
925.064	10272
925.172	10219
925.279	10173
925.387	10284
925.494	10200
925.602	10451
925.709	10375
925.816	10181
925.924	10246
926.031	10379
926.138	10295
926.245	10299
926.352	10303
926.459	10371
926.566	10386
926.673	10185
926.779	10067
926.886	10067
926.993	9972
927.099	9956
927.206	9861
927.312	9941
927.419	9968
927.525	10006
927.631	9949
927.737	9922
927.843	9781
927.95	9793
928.056	9827
928.162	9846
928.267	9937
928.373	10432
928.479	9907
928.585	9701
928.69	9774
928.796	9903
928.901	9755
929.007	9568
929.112	9759
929.218	9743
929.323	9614
929.428	9553
929.533	9762
929.638	9519
929.743	9568
929.848	9667
929.953	9637
930.058	9500
930.163	9424
930.267	9393
930.372	9481
930.477	9348
930.581	9587
930.685	9454
930.79	9359
930.894	9298
930.998	9359
931.103	9450
931.207	9028
931.311	9055
931.415	8921
931.519	8807
931.623	8727
