Data from test_V78500241_3299.txt Node
Date: Fri Mar 25 14:56:41 CST 2022
User: usil
Spectrometer: V785-0024
Trigger mode: 0
Integration Time (sec): 4.000000E-1
Scans to average: 1
Nonlinearity correction enabled: false
Boxcar width: 0
Storing dark spectrum: false
XAxis mode: Wavelengths
Number of Pixels in Spectrum: 1024
>>>>>Begin Spectral Data<<<<<
801.071	22082
801.214	21823
801.356	21679
801.499	21496
801.641	21340
801.783	21329
801.926	21519
802.068	21386
802.211	21268
802.353	21207
802.496	20849
802.638	20876
802.78	20815
802.923	20693
803.065	20549
803.208	20689
803.35	20727
803.492	20720
803.635	20788
803.777	20617
803.919	20777
804.061	21051
804.204	20644
804.346	20594
804.488	20465
804.63	20644
804.773	20560
804.915	20659
805.057	20606
805.199	20514
805.341	20716
805.483	20758
805.626	20602
805.768	20697
805.91	20609
806.052	20625
806.194	20377
806.336	20629
806.478	20552
806.62	20541
806.762	20701
806.904	20708
807.046	20937
807.188	20914
807.33	20876
807.472	20902
807.614	20800
807.756	20826
807.898	20724
808.04	20686
808.182	20689
808.324	20613
808.465	20667
808.607	20857
808.749	20937
808.891	20845
809.033	21157
809.174	20963
809.316	20830
809.458	20891
809.6	20921
809.741	20960
809.883	20914
810.025	21058
810.166	21077
810.308	21211
810.45	21039
810.591	20960
810.733	20864
810.875	20735
811.016	20632
811.158	20579
811.299	20727
811.441	20823
811.582	20853
811.724	20648
811.865	20716
812.007	20602
812.148	20773
812.29	20667
812.431	20891
812.573	21081
812.714	21096
812.855	21131
812.997	21283
813.138	21481
813.279	21355
813.421	21226
813.562	21089
813.703	20910
813.845	20788
813.986	20636
814.127	20370
814.268	20214
814.41	20256
814.551	20233
814.692	20282
814.833	20275
814.974	20176
815.115	20290
815.256	20191
815.397	20046
815.539	19993
815.68	19947
815.821	20012
815.962	19932
816.103	19986
816.244	19772
816.385	19761
816.526	19719
816.666	19567
816.807	19346
816.948	19578
817.089	19449
817.23	19384
817.371	19388
817.512	19468
817.653	19369
817.793	19327
817.934	19411
818.075	19225
818.216	19377
818.356	19339
818.497	19137
818.638	19031
818.778	19069
818.919	19076
819.06	19080
819.2	19107
819.341	19183
819.481	19206
819.622	19400
819.762	19651
819.903	19445
820.043	19502
820.184	19308
820.324	19449
820.465	19373
820.605	19354
820.746	19206
820.886	19213
821.026	19346
821.167	19358
821.307	19369
821.447	19240
821.588	19247
821.728	19019
821.868	18985
822.008	18738
822.149	18825
822.289	18772
822.429	18528
822.569	18471
822.709	18429
822.849	18262
822.99	18167
823.13	18266
823.27	18262
823.41	18064
823.55	18038
823.69	18053
823.83	18121
823.97	18083
824.11	17821
824.25	17897
824.389	17942
824.529	17863
824.669	17912
824.809	17942
824.949	17973
825.089	17832
825.228	17958
825.368	17661
825.508	17665
825.648	17611
825.787	17722
825.927	17562
826.067	17657
826.206	17581
826.346	17760
826.485	17558
826.625	17623
826.765	17718
826.904	17592
827.044	17315
827.183	17349
827.323	17265
827.462	17303
827.601	17360
827.741	17349
827.88	17364
828.02	17193
828.159	17307
828.298	17345
828.437	17421
828.577	17185
828.716	17490
828.855	17174
828.994	17189
829.134	17029
829.273	17208
829.412	17033
829.551	17025
829.69	17018
829.829	17155
829.968	17185
830.107	17109
830.246	17181
830.385	17052
830.524	17064
830.663	16892
830.802	16782
830.941	16691
831.08	16588
831.219	16858
831.357	16721
831.496	16942
831.635	16702
831.774	16687
831.913	16573
832.051	16504
832.19	16474
832.329	16497
832.467	16367
832.606	16337
832.744	16398
832.883	16352
833.022	16333
833.16	16462
833.299	16459
833.437	16409
833.576	16402
833.714	16409
833.852	16504
833.991	16474
834.129	16440
834.267	16459
834.406	16421
834.544	16489
834.682	16481
834.821	16432
834.959	16634
835.097	16291
835.235	16550
835.373	16481
835.511	16519
835.65	16432
835.788	16402
835.926	16234
836.064	16242
836.202	16253
836.34	16382
836.478	16413
836.615	16322
836.753	16402
836.891	16421
837.029	16394
837.167	16276
837.305	16299
837.443	16246
837.58	16291
837.718	16246
837.856	16215
837.993	16166
838.131	16287
838.269	16215
838.406	16246
838.544	16173
838.681	15956
838.819	15972
838.956	15800
839.094	15739
839.231	15838
839.369	15880
839.506	16207
839.643	16029
839.781	15838
839.918	15823
840.055	15759
840.193	15682
840.33	15915
840.467	15804
840.604	15895
840.742	16105
840.879	15663
841.016	15690
841.153	15663
841.29	15930
841.427	15766
841.564	15911
841.701	15930
841.838	15850
841.975	15728
842.112	15675
842.249	15652
842.385	15507
842.522	15778
842.659	15633
842.796	15511
842.933	15606
843.069	15587
843.206	15507
843.343	15610
843.479	15637
843.616	15660
843.752	15374
843.889	15386
844.025	15530
844.162	15348
844.298	15431
844.435	15439
844.571	15428
844.708	15431
844.844	15488
844.98	15473
845.117	15416
845.253	15397
845.389	15188
845.525	15321
845.661	15176
845.798	15264
845.934	15142
846.07	15085
846.206	15226
846.342	15260
846.478	15108
846.614	14990
846.75	14902
846.886	14845
847.022	15055
847.158	14963
847.294	14941
847.429	14990
847.565	14823
847.701	15135
847.837	14765
847.972	14629
848.108	14750
848.244	14765
848.379	14594
848.515	14568
848.65	14499
848.786	14450
848.921	14560
849.057	14655
849.192	14575
849.328	14659
849.463	14560
849.598	14461
849.734	14446
849.869	14317
850.004	14450
850.14	14339
850.275	14358
850.41	14210
850.545	14282
850.68	14309
850.815	14256
850.95	14309
851.085	14511
851.22	14385
851.355	14412
851.49	14240
851.625	14237
851.76	14294
851.895	14161
852.03	14202
852.165	14263
852.299	14343
852.434	14412
852.569	14339
852.703	14271
852.838	14377
852.973	14454
853.107	14484
853.242	14320
853.376	14149
853.511	14050
853.645	14081
853.78	14233
853.914	14168
854.048	14081
854.183	14119
854.317	14138
854.451	14278
854.585	14176
854.72	14031
854.854	14237
854.988	14145
855.122	14111
855.256	13986
855.39	14183
855.524	14290
855.658	14233
855.792	14240
855.926	14119
856.06	14214
856.194	14332
856.327	14202
856.461	14123
856.595	14088
856.729	14210
856.862	14320
856.996	14168
857.13	14278
857.263	14157
857.397	14309
857.53	14252
857.664	14206
857.797	14244
857.931	14218
858.064	14187
858.197	14286
858.331	14164
858.464	14126
858.597	14035
858.731	14134
858.864	14103
858.997	14096
859.13	14157
859.263	14199
859.396	14199
859.529	14119
859.662	14164
859.795	14084
859.928	14214
860.061	14317
860.194	14259
860.327	14237
860.46	14126
860.592	14229
860.725	14301
860.858	14233
860.99	14172
861.123	14092
861.256	14062
861.388	14191
861.521	15058
861.653	14123
861.786	13997
861.918	13986
862.05	14046
862.183	14077
862.315	14073
862.447	14202
862.58	14149
862.712	14031
862.844	13860
862.976	14058
863.108	14046
863.24	14298
863.372	13883
863.504	13951
863.636	13967
863.768	14081
863.9	13997
864.032	13890
864.164	13906
864.296	13947
864.428	14073
864.559	14069
864.691	14062
864.823	14035
864.954	13951
865.086	13997
865.217	14008
865.349	13894
865.48	13906
865.612	13936
865.743	14111
865.875	13898
866.006	13955
866.137	14005
866.269	13890
866.4	13925
866.531	13967
866.662	13890
866.793	13940
866.924	13818
867.055	13928
867.186	13811
867.317	13856
867.448	13830
867.579	13906
867.71	13875
867.841	13849
867.972	13955
868.103	13944
868.233	13951
868.364	13921
868.495	14020
868.625	14164
868.756	14267
868.886	14092
869.017	14214
869.147	14237
869.278	14298
869.408	14256
869.539	14214
869.669	14275
869.799	14199
869.929	14263
870.06	14366
870.19	14549
870.32	14492
870.45	14476
870.58	14560
870.71	14689
870.84	14667
870.97	14526
871.1	14629
871.23	14758
871.36	14765
871.489	14705
871.619	14746
871.749	14864
871.879	14815
872.008	14880
872.138	14708
872.267	14792
872.397	14689
872.526	14659
872.656	14518
872.785	14648
872.915	14739
873.044	14918
873.173	14899
873.303	14868
873.432	14880
873.561	14887
873.69	14800
873.819	14796
873.948	14891
874.077	14815
874.206	14815
874.335	14899
874.464	14906
874.593	15055
874.722	15116
874.851	15233
874.979	15211
875.108	15108
875.237	15112
875.365	15047
875.494	15123
875.623	15226
875.751	15138
875.88	15100
876.008	15249
876.136	15332
876.265	15530
876.393	15766
876.521	15660
876.65	15660
876.778	15576
876.906	15572
877.034	15564
877.162	15526
877.29	15435
877.418	15542
877.546	15572
877.674	15679
877.802	15671
877.93	15648
878.058	15545
878.185	15458
878.313	15530
878.441	15530
878.568	15458
878.696	15572
878.824	15580
878.951	15561
879.079	15800
879.206	15865
879.333	15679
879.461	15584
879.588	15743
879.715	15713
879.842	15915
879.97	15511
880.097	15374
880.224	15283
880.351	15500
880.478	15447
880.605	15389
880.732	15431
880.859	15682
880.986	15454
881.112	15485
881.239	15348
881.366	15218
881.493	15146
881.619	14986
881.746	15085
881.872	15176
881.999	15028
882.125	15043
882.252	15138
882.378	15154
882.505	15226
882.631	15074
882.757	14921
882.883	14937
883.01	14937
883.136	14861
883.262	14765
883.388	14845
883.514	14800
883.64	14963
883.766	14739
883.892	14883
884.018	14697
884.143	14941
884.269	14876
884.395	14712
884.52	14495
884.646	14545
884.772	14644
884.897	14556
885.023	14560
885.148	14659
885.274	14712
885.399	14769
885.524	14655
885.65	14663
885.775	14583
885.9	14613
886.025	14545
886.15	14636
886.275	14575
886.4	14457
886.525	14560
886.65	14587
886.775	14514
886.9	14750
887.025	14785
887.149	14571
887.274	14415
887.399	14393
887.523	14431
887.648	14438
887.773	14343
887.897	14438
888.021	14454
888.146	14305
888.27	14522
888.395	14530
888.519	14465
888.643	14488
888.767	14575
888.891	14313
889.015	14294
889.139	14221
889.263	14290
889.387	14442
889.511	14552
889.635	14419
889.759	14324
889.883	14244
890.006	14237
890.13	14423
890.254	14282
890.377	14290
890.501	14115
890.624	14073
890.748	14183
890.871	14088
890.995	14005
891.118	13879
891.241	14027
891.364	13982
891.488	14077
891.611	13944
891.734	14062
891.857	14035
891.98	14046
892.103	14092
892.226	14039
892.349	13978
892.471	13898
892.594	14016
892.717	14020
892.839	13989
892.962	13986
893.085	13970
893.207	14046
893.33	13852
893.452	13932
893.575	13982
893.697	14005
893.819	14138
893.941	14256
894.064	14176
894.186	14005
894.308	13944
894.43	14168
894.552	14172
894.674	14161
894.796	13944
894.918	14024
895.04	14073
895.161	14244
895.283	14073
895.405	14016
895.526	14142
895.648	14145
895.769	14103
895.891	14172
896.012	14267
896.134	14237
896.255	14134
896.376	14069
896.498	14164
896.619	14248
896.74	14218
896.861	14305
896.982	14533
897.103	14629
897.224	14568
897.345	14408
897.466	14393
897.587	14438
897.708	14610
897.828	14442
897.949	14408
898.07	14412
898.19	14301
898.311	14568
898.431	14450
898.552	14522
898.672	14545
898.792	14682
898.913	14689
899.033	14396
899.153	14370
899.273	14259
899.393	14301
899.513	14320
899.633	14362
899.753	14370
899.873	14385
899.993	14347
900.113	14415
900.232	14473
900.352	14370
900.472	14244
900.591	14267
900.711	14309
900.83	14145
900.95	14199
901.069	14332
901.189	14142
901.308	13997
901.427	13746
901.546	13970
901.665	13868
901.784	13959
901.904	13883
902.023	13674
902.141	13556
902.26	13506
902.379	13601
902.498	13533
902.617	13499
902.735	13559
902.854	13388
902.973	13358
903.091	13171
903.21	13175
903.328	13259
903.446	13194
903.565	13126
903.683	13160
903.801	13042
903.919	13076
904.038	13091
904.156	12852
904.274	12935
904.392	12897
904.51	12783
904.627	12897
904.745	12928
904.863	12935
904.981	12658
905.098	12563
905.216	12570
905.334	12642
905.451	12642
905.569	12532
905.686	12498
905.803	12627
905.921	12410
906.038	12502
906.155	12452
906.272	12330
906.389	12247
906.506	12228
906.623	12205
906.74	12224
906.857	12030
906.974	12064
907.091	12300
907.208	12292
907.324	12197
907.441	12224
907.557	11908
907.674	11798
907.79	11885
907.907	11935
908.023	11954
908.139	11916
908.256	11893
908.372	11870
908.488	11828
908.604	11710
908.72	11741
908.836	11718
908.952	11592
909.068	11756
909.184	11817
909.3	11665
909.415	11691
909.531	11562
909.647	11482
909.762	11448
909.878	11334
909.993	11444
910.108	11429
910.224	11425
910.339	11353
910.454	11353
910.57	11299
910.685	11269
910.8	11524
910.915	11425
911.03	11337
911.145	11140
911.259	11098
911.374	11208
911.489	11045
911.604	11033
911.718	10949
911.833	10984
911.947	10786
912.062	10736
912.176	10900
912.291	10866
912.405	10866
912.519	11071
912.633	11067
912.748	10908
912.862	10892
912.976	10835
913.09	10668
913.204	10820
913.318	10771
913.431	10930
913.545	10900
913.659	10923
913.772	10721
913.886	10706
914	10653
914.113	10824
914.226	10812
914.34	10763
914.453	10603
914.566	10831
914.68	10599
914.793	10580
914.906	10531
915.019	10402
915.132	10382
915.245	10409
915.358	10462
915.47	10421
915.583	10440
915.696	10531
915.809	10561
915.921	10588
916.034	10451
916.146	10303
916.259	10291
916.371	10386
916.483	10462
916.595	10333
916.708	10329
916.82	10333
916.932	10341
917.044	10310
917.156	10341
917.268	10215
917.38	10310
917.491	10219
917.603	10310
917.715	10356
917.826	10318
917.938	10158
918.049	10162
918.161	10276
918.272	10398
918.384	10379
918.495	10291
918.606	10048
918.717	10044
918.828	10101
918.939	10173
919.05	10067
919.161	10158
919.272	9876
919.383	9998
919.494	10234
919.604	10318
919.715	10082
919.826	10025
919.936	10124
920.047	10219
920.157	10169
920.267	10405
920.378	10143
920.488	10177
920.598	10306
920.708	10428
920.818	10337
920.928	10337
921.038	10512
921.148	10478
921.258	10211
921.368	10131
921.477	10036
921.587	9998
921.697	9876
921.806	10032
921.916	9884
922.025	9641
922.134	9686
922.244	9698
922.353	9713
922.462	9549
922.571	9485
922.68	9420
922.789	9367
922.898	9370
923.007	9355
923.116	9428
923.224	9488
923.333	9329
923.442	9317
923.55	9298
923.659	9294
923.767	9401
923.876	9317
923.984	9294
924.092	9142
924.201	9218
924.309	9275
924.417	9291
924.525	9142
924.633	9256
924.741	10090
924.849	9024
924.956	9119
925.064	8990
925.172	8941
925.279	9070
925.387	9047
925.494	9028
925.602	9279
925.709	9146
925.816	8986
925.924	8960
926.031	9127
926.138	9055
926.245	9116
926.352	8906
926.459	9112
926.566	9108
926.673	8994
926.779	8868
926.886	8906
926.993	8876
927.099	8735
927.206	8670
927.312	8746
927.419	8842
927.525	8766
927.631	8762
927.737	8724
927.843	8708
927.95	8587
928.056	8705
928.162	8743
928.267	8712
928.373	9264
928.479	8754
928.585	8571
928.69	8686
928.796	8708
928.901	8564
929.007	8400
929.112	8575
929.218	8530
929.323	8526
929.428	8492
929.533	8632
929.638	8423
929.743	8431
929.848	8530
929.953	8507
930.058	8400
930.163	8237
930.267	8286
930.372	8336
930.477	8183
930.581	8530
930.685	8336
930.79	8256
930.894	8256
930.998	8176
931.103	8404
931.207	8020
931.311	7936
931.415	7875
931.519	7685
931.623	7761
