Data from test_V78500241_160.txt Node
Date: Fri Mar 25 14:34:50 CST 2022
User: usil
Spectrometer: V785-0024
Trigger mode: 0
Integration Time (sec): 4.000000E-1
Scans to average: 1
Nonlinearity correction enabled: false
Boxcar width: 0
Storing dark spectrum: false
XAxis mode: Wavelengths
Number of Pixels in Spectrum: 1024
>>>>>Begin Spectral Data<<<<<
801.071	29296
801.214	29189
801.356	28938
801.499	28987
801.641	28797
801.783	28683
801.926	28759
802.068	28649
802.211	28668
802.353	28736
802.496	28287
802.638	28440
802.78	28481
802.923	28207
803.065	28234
803.208	28211
803.35	28318
803.492	28371
803.635	28474
803.777	28405
803.919	28363
804.061	28706
804.204	28405
804.346	28314
804.488	28242
804.63	28185
804.773	28333
804.915	28341
805.057	28398
805.199	28451
805.341	28535
805.483	28466
805.626	28679
805.768	28542
805.91	28512
806.052	28649
806.194	28405
806.336	28809
806.478	28828
806.62	28866
806.762	29003
806.904	29048
807.046	29509
807.188	29326
807.33	29486
807.472	29786
807.614	29760
807.756	29783
807.898	30144
808.04	30289
808.182	30791
808.324	31479
808.465	32062
808.607	32899
808.749	33614
808.891	33987
809.033	34082
809.174	33386
809.316	32872
809.458	32119
809.6	31358
809.741	30882
809.883	30505
810.025	30369
810.166	30098
810.308	29984
810.45	29828
810.591	29752
810.733	29349
810.875	29330
811.016	29041
811.158	29136
811.299	29079
811.441	28999
811.582	29124
811.724	28782
811.865	28991
812.007	29075
812.148	28896
812.29	29037
812.431	29014
812.573	29162
812.714	29280
812.855	29235
812.997	29535
813.138	29596
813.279	29353
813.421	29254
813.562	29307
813.703	29090
813.845	28915
813.986	28626
814.127	28596
814.268	28272
814.41	28337
814.551	28352
814.692	28318
814.833	28226
814.974	28398
815.115	28401
815.256	28124
815.397	28196
815.539	28177
815.68	28173
815.821	28021
815.962	28040
816.103	27854
816.244	27953
816.385	27770
816.526	27679
816.666	27580
816.807	27450
816.948	27435
817.089	27504
817.23	27519
817.371	27511
817.512	27344
817.653	27454
817.793	27272
817.934	27359
818.075	27260
818.216	27348
818.356	27310
818.497	27176
818.638	27096
818.778	27070
818.919	27013
819.06	27123
819.2	27085
819.341	27268
819.481	27302
819.622	27439
819.762	27469
819.903	27591
820.043	27466
820.184	27393
820.324	27378
820.465	27416
820.605	27226
820.746	27294
820.886	27104
821.026	27211
821.167	27154
821.307	27313
821.447	27085
821.588	26990
821.728	26819
821.868	26815
822.008	26663
822.149	26518
822.289	26632
822.429	26332
822.569	26218
822.709	26324
822.849	26271
822.99	26122
823.13	26092
823.27	26024
823.41	25803
823.55	25807
823.69	25932
823.83	25864
823.97	25738
824.11	25620
824.25	25635
824.389	25563
824.529	25841
824.669	25696
824.809	25746
824.949	25723
825.089	25700
825.228	25689
825.368	25499
825.508	25468
825.648	25449
825.787	25362
825.927	25491
826.067	25339
826.206	25388
826.346	25422
826.485	25457
826.625	25327
826.765	25457
826.904	25449
827.044	25206
827.183	25194
827.323	25046
827.462	25129
827.601	25110
827.741	25103
827.88	25091
828.02	24970
828.159	25088
828.298	25270
828.437	25228
828.577	24806
828.716	25145
828.855	24970
828.994	24802
829.134	24863
829.273	24753
829.412	24532
829.551	24612
829.69	24696
829.829	24738
829.968	24856
830.107	24741
830.246	24806
830.385	24661
830.524	24677
830.663	24544
830.802	24365
830.941	24437
831.08	24205
831.219	24410
831.357	24502
831.496	24467
831.635	24281
831.774	24243
831.913	24216
832.051	24205
832.19	24125
832.329	24239
832.467	23961
832.606	23870
832.744	23863
832.883	24022
833.022	24007
833.16	24022
833.299	24159
833.437	24018
833.576	24045
833.714	24106
833.852	24369
833.991	24239
834.129	24342
834.267	24292
834.406	24209
834.544	24197
834.682	24186
834.821	24140
834.959	24224
835.097	24003
835.235	24038
835.373	24038
835.511	23996
835.65	23813
835.788	23798
835.926	23691
836.064	23581
836.202	23733
836.34	23809
836.478	23870
836.615	23657
836.753	23687
836.891	23752
837.029	23589
837.167	23714
837.305	23600
837.443	23554
837.58	23535
837.718	23608
837.856	23505
837.993	23539
838.131	23501
838.269	23406
838.406	23414
838.544	23204
838.681	23185
838.819	23143
838.956	22919
839.094	22953
839.231	22980
839.369	23056
839.506	23318
839.643	23261
839.781	22877
839.918	22858
840.055	22820
840.193	22908
840.33	22850
840.467	22717
840.604	22938
840.742	23067
840.879	22599
841.016	22801
841.153	22805
841.29	22980
841.427	22889
841.564	22957
841.701	22889
841.838	22778
841.975	22771
842.112	22660
842.249	22557
842.385	22459
842.522	22698
842.659	22538
842.796	22626
842.933	22645
843.069	22554
843.206	22462
843.343	22508
843.479	22603
843.616	22561
843.752	22413
843.889	22535
844.025	22622
844.162	22299
844.298	22523
844.435	22428
844.571	22493
844.708	22622
844.844	22687
844.98	22885
845.117	22820
845.253	22877
845.389	23284
845.525	23923
845.661	25145
845.798	26495
845.934	27652
846.07	28234
846.206	27949
846.342	27036
846.478	25521
846.614	24197
846.75	23250
846.886	22687
847.022	22375
847.158	22154
847.294	22006
847.429	22120
847.565	21755
847.701	22086
847.837	21568
847.972	21428
848.108	21568
848.244	21538
848.379	21424
848.515	21310
848.65	21275
848.786	21363
848.921	21291
849.057	21408
849.192	21428
849.328	21374
849.463	21340
849.598	21241
849.734	21211
849.869	21077
850.004	21013
850.14	21062
850.275	21039
850.41	21013
850.545	21020
850.68	20895
850.815	20975
850.95	20895
851.085	21203
851.22	21020
851.355	21089
851.49	20876
851.625	20967
851.76	20967
851.895	20853
852.03	20952
852.165	20952
852.299	20982
852.434	20952
852.569	21051
852.703	21154
852.838	21058
852.973	21154
853.107	21176
853.242	20918
853.376	20845
853.511	20708
853.645	20830
853.78	20918
853.914	20796
854.048	20804
854.183	20944
854.317	20872
854.451	21119
854.585	20826
854.72	20918
854.854	20948
854.988	20792
855.122	20773
855.256	20682
855.39	20792
855.524	20861
855.658	20815
855.792	20815
855.926	20716
856.06	20754
856.194	20876
856.327	20689
856.461	20777
856.595	20754
856.729	20796
856.862	20948
856.996	20785
857.13	20838
857.263	20944
857.397	20857
857.53	20743
857.664	20746
857.797	20796
857.931	20754
858.064	20754
858.197	20842
858.331	20720
858.464	20617
858.597	20663
858.731	20746
858.864	20530
858.997	20701
859.13	20727
859.263	20587
859.396	20781
859.529	20785
859.662	20625
859.795	20613
859.928	20632
860.061	20914
860.194	20765
860.327	20583
860.46	20625
860.592	20708
860.725	20887
860.858	20689
860.99	20636
861.123	20602
861.256	20537
861.388	20663
861.521	21363
861.653	20583
861.786	20454
861.918	20644
862.05	20651
862.183	20705
862.315	20651
862.447	20697
862.58	20743
862.712	20450
862.844	20351
862.976	20431
863.108	20450
863.24	20678
863.372	20301
863.504	20370
863.636	20286
863.768	20465
863.9	20339
864.032	20267
864.164	20377
864.296	20389
864.428	20446
864.559	20446
864.691	20374
864.823	20294
864.954	20320
865.086	20317
865.217	20256
865.349	20164
865.48	20290
865.612	20275
865.743	20313
865.875	20347
866.006	20366
866.137	20256
866.269	20374
866.4	20248
866.531	20100
866.662	20214
866.793	20115
866.924	20191
867.055	20244
867.186	20191
867.317	20195
867.448	20100
867.579	20206
867.71	20088
867.841	20122
867.972	20145
868.103	20237
868.233	20199
868.364	20214
868.495	20290
868.625	20442
868.756	20549
868.886	20358
869.017	20476
869.147	20530
869.278	20526
869.408	20412
869.539	20431
869.669	20457
869.799	20533
869.929	20530
870.06	20568
870.19	20720
870.32	20587
870.45	20765
870.58	20804
870.71	20895
870.84	20910
870.97	20857
871.1	20910
871.23	20990
871.36	21013
871.489	20975
871.619	20929
871.749	21013
871.879	21074
872.008	21043
872.138	20982
872.267	20887
872.397	20902
872.526	20994
872.656	20914
872.785	20823
872.915	21089
873.044	21100
873.173	21055
873.303	21123
873.432	21195
873.561	21180
873.69	21127
873.819	20982
873.948	21138
874.077	21165
874.206	21184
874.335	21165
874.464	21252
874.593	21359
874.722	21256
874.851	21416
874.979	21294
875.108	21523
875.237	21458
875.365	21325
875.494	21435
875.623	21435
875.751	21355
875.88	21370
876.008	21534
876.136	21648
876.265	21945
876.393	22002
876.521	22006
876.65	21998
876.778	21926
876.906	21895
877.034	21911
877.162	21937
877.29	21972
877.418	21945
877.546	22070
877.674	22010
877.802	22105
877.93	22074
878.058	22040
878.185	22207
878.313	22090
878.441	22200
878.568	22204
878.696	22485
878.824	22664
878.951	22965
879.079	23410
879.206	23836
879.333	24213
879.461	24525
879.588	24863
879.715	24932
879.842	24776
879.97	24194
880.097	23577
880.224	23143
880.351	22984
880.478	22729
880.605	22698
880.732	22516
880.859	22561
880.986	22409
881.112	22512
881.239	22352
881.366	22013
881.493	22166
881.619	22025
881.746	22078
881.872	21964
881.999	21922
882.125	22109
882.252	22021
882.378	21956
882.505	22116
882.631	21994
882.757	21876
882.883	21987
883.01	21762
883.136	21713
883.262	21663
883.388	21614
883.514	21747
883.64	21827
883.766	21656
883.892	21538
884.018	21534
884.143	21694
884.269	21766
884.395	21496
884.52	21435
884.646	21439
884.772	21382
884.897	21348
885.023	21431
885.148	21538
885.274	21393
885.399	21439
885.524	21454
885.65	21321
885.775	21264
885.9	21252
886.025	21367
886.15	21188
886.275	21135
886.4	21157
886.525	20971
886.65	21051
886.775	21085
886.9	21169
887.025	21272
887.149	20982
887.274	20792
887.399	20819
887.523	20792
887.648	20693
887.773	20689
887.897	20735
888.021	20701
888.146	20518
888.27	20716
888.395	20636
888.519	20667
888.643	20617
888.767	20560
888.891	20484
889.015	20412
889.139	20347
889.263	20358
889.387	20404
889.511	20541
889.635	20492
889.759	20328
889.883	20252
890.006	20263
890.13	20362
890.254	20294
890.377	20130
890.501	20069
890.624	20050
890.748	20130
890.871	19944
890.995	19734
891.118	19772
891.241	19917
891.364	19879
891.488	19841
891.611	19788
891.734	19818
891.857	19807
891.98	19814
892.103	19875
892.226	19818
892.349	19715
892.471	19533
892.594	19674
892.717	19860
892.839	19632
892.962	19651
893.085	19731
893.207	19620
893.33	19480
893.452	19647
893.575	19715
893.697	19620
893.819	19620
893.941	19799
894.064	19696
894.186	19567
894.308	19525
894.43	19712
894.552	19727
894.674	19727
894.796	19491
894.918	19491
895.04	19487
895.161	19605
895.283	19620
895.405	19460
895.526	19575
895.648	19457
895.769	19510
895.891	19628
896.012	19647
896.134	19772
896.255	19639
896.376	19563
896.498	19510
896.619	19708
896.74	19639
896.861	19666
896.982	19951
897.103	20046
897.224	19902
897.345	19788
897.466	19807
897.587	19780
897.708	19947
897.828	19822
897.949	19689
898.07	19594
898.19	19776
898.311	19750
898.431	19731
898.552	19780
898.672	19856
898.792	19898
898.913	19746
899.033	19734
899.153	19525
899.273	19495
899.393	19563
899.513	19559
899.633	19567
899.753	19537
899.873	19434
899.993	19594
900.113	19567
900.232	19521
900.352	19514
900.472	19430
900.591	19187
900.711	19339
900.83	19350
900.95	19525
901.069	19563
901.189	19259
901.308	18985
901.427	18871
901.546	18920
901.665	18882
901.784	18966
901.904	18821
902.023	18806
902.141	18559
902.26	18452
902.379	18471
902.498	18448
902.617	18426
902.735	18494
902.854	18281
902.973	18262
903.091	18060
903.21	18011
903.328	18045
903.446	17980
903.565	17942
903.683	17863
903.801	17821
903.919	17847
904.038	17737
904.156	17619
904.274	17695
904.392	17611
904.51	17554
904.627	17615
904.745	17684
904.863	17680
904.981	17433
905.098	17265
905.216	17200
905.334	17299
905.451	17254
905.569	17212
905.686	17330
905.803	17193
905.921	17033
906.038	16965
906.155	17003
906.272	16908
906.389	16904
906.506	16755
906.623	16801
906.74	16683
906.857	16664
906.974	16630
907.091	16820
907.208	16862
907.324	16694
907.441	16782
907.557	16527
907.674	16462
907.79	16409
907.907	16341
908.023	16512
908.139	16478
908.256	16390
908.372	16284
908.488	16333
908.604	16226
908.72	16154
908.836	16101
908.952	16010
909.068	16226
909.184	16329
909.3	16124
909.415	16124
909.531	16112
909.647	15800
909.762	15724
909.878	15846
909.993	15865
910.108	15797
910.224	15698
910.339	15819
910.454	15709
910.57	15614
910.685	15584
910.8	15850
910.915	15663
911.03	15542
911.145	15431
911.259	15405
911.374	15355
911.489	15329
911.604	15256
911.718	15135
911.833	15138
911.947	15108
912.062	15024
912.176	15108
912.291	15077
912.405	15135
912.519	15481
912.633	15355
912.748	15245
912.862	15104
912.976	15051
913.09	14864
913.204	14899
913.318	14952
913.431	15032
913.545	14967
913.659	15039
913.772	14895
913.886	14811
914	14883
914.113	14819
914.226	14925
914.34	14838
914.453	14530
914.566	14853
914.68	14701
914.793	14667
914.906	14556
915.019	14442
915.132	14259
915.245	14381
915.358	14465
915.47	14480
915.583	14343
915.696	14450
915.809	14511
915.921	14518
916.034	14320
916.146	14366
916.259	14286
916.371	14339
916.483	14450
916.595	14332
916.708	14191
916.82	14149
916.932	14290
917.044	14210
917.156	14221
917.268	14111
917.38	14062
917.491	14058
917.603	14119
917.715	14172
917.826	14149
917.938	14001
918.049	13879
918.161	14043
918.272	14134
918.384	14046
918.495	13993
918.606	13795
918.717	13849
918.828	13894
918.939	13978
919.05	13700
919.161	13761
919.272	13609
919.383	13712
919.494	13871
919.604	13967
919.715	13822
919.826	13704
919.936	13738
920.047	13765
920.157	13750
920.267	13928
920.378	13666
920.488	13757
920.598	13883
920.708	14081
920.818	13852
920.928	13875
921.038	14039
921.148	14043
921.258	13693
921.368	13559
921.477	13548
921.587	13480
921.697	13438
921.806	13514
921.916	13400
922.025	13190
922.134	13164
922.244	13099
922.353	13179
922.462	12932
922.571	12981
922.68	12837
922.789	12696
922.898	12867
923.007	12795
923.116	12772
923.224	12791
923.333	12764
923.442	12570
923.55	12608
923.659	12642
923.767	12688
923.876	12642
923.984	12642
924.092	12544
924.201	12547
924.309	12528
924.417	12650
924.525	12483
924.633	12559
924.741	13354
924.849	12289
924.956	12410
925.064	12300
925.172	12178
925.279	12209
925.387	12296
925.494	12281
925.602	12357
925.709	12266
925.816	12201
925.924	12186
926.031	12251
926.138	12228
926.245	12197
926.352	12129
926.459	12216
926.566	12281
926.673	12106
926.779	11988
926.886	12076
926.993	11813
927.099	11828
927.206	11764
927.312	11771
927.419	11783
927.525	11870
927.631	11912
927.737	11802
927.843	11665
927.95	11608
928.056	11729
928.162	11703
928.267	11733
928.373	12277
928.479	11737
928.585	11463
928.69	11668
928.796	11665
928.901	11501
929.007	11356
929.112	11589
929.218	11486
929.323	11433
929.428	11417
929.533	11512
929.638	11398
929.743	11330
929.848	11387
929.953	11376
930.058	11334
930.163	11102
930.267	11086
930.372	11303
930.477	11075
930.581	11292
930.685	11079
930.79	10976
930.894	10953
930.998	10942
931.103	11094
931.207	10786
931.311	10656
931.415	10611
931.519	10455
931.623	10379
