Data from test_V78500241_2099.txt Node
Date: Fri Mar 25 14:48:19 CST 2022
User: usil
Spectrometer: V785-0024
Trigger mode: 0
Integration Time (sec): 4.000000E-1
Scans to average: 1
Nonlinearity correction enabled: false
Boxcar width: 0
Storing dark spectrum: false
XAxis mode: Wavelengths
Number of Pixels in Spectrum: 1024
>>>>>Begin Spectral Data<<<<<
801.071	22013
801.214	22025
801.356	21671
801.499	21663
801.641	21667
801.783	21568
801.926	21526
802.068	21458
802.211	21412
802.353	21321
802.496	21207
802.638	21051
802.78	20967
802.923	20910
803.065	20697
803.208	20842
803.35	20914
803.492	20842
803.635	20944
803.777	20667
803.919	20937
804.061	21169
804.204	20902
804.346	20845
804.488	20693
804.63	20807
804.773	20731
804.915	20777
805.057	20735
805.199	20716
805.341	20876
805.483	20823
805.626	20708
805.768	20830
805.91	20781
806.052	20769
806.194	20689
806.336	20944
806.478	20819
806.62	20758
806.762	20842
806.904	21055
807.046	21192
807.188	21161
807.33	20921
807.472	21214
807.614	20910
807.756	20960
807.898	20830
808.04	20792
808.182	20838
808.324	20876
808.465	20773
808.607	21058
808.749	21093
808.891	21169
809.033	21169
809.174	21180
809.316	21188
809.458	21222
809.6	21032
809.741	21199
809.883	21237
810.025	21272
810.166	21272
810.308	21302
810.45	21180
810.591	21135
810.733	20960
810.875	20876
811.016	20765
811.158	20758
811.299	20895
811.441	20998
811.582	20921
811.724	20769
811.865	20708
812.007	20921
812.148	20754
812.29	20887
812.431	20941
812.573	21173
812.714	21268
812.855	21416
812.997	21416
813.138	21599
813.279	21447
813.421	21336
813.562	21313
813.703	21058
813.845	21009
813.986	20765
814.127	20488
814.268	20530
814.41	20446
814.551	20522
814.692	20492
814.833	20305
814.974	20442
815.115	20442
815.256	20309
815.397	20275
815.539	20423
815.68	20157
815.821	20130
815.962	20199
816.103	20058
816.244	20035
816.385	19944
816.526	19841
816.666	19746
816.807	19731
816.948	19518
817.089	19647
817.23	19666
817.371	19731
817.512	19487
817.653	19533
817.793	19540
817.934	19609
818.075	19616
818.216	19540
818.356	19487
818.497	19411
818.638	19168
818.778	19152
818.919	19270
819.06	19213
819.2	19324
819.341	19552
819.481	19430
819.622	19510
819.762	19734
819.903	19647
820.043	19559
820.184	19563
820.324	19571
820.465	19624
820.605	19597
820.746	19586
820.886	19400
821.026	19559
821.167	19350
821.307	19510
821.447	19487
821.588	19358
821.728	19228
821.868	19065
822.008	18962
822.149	18977
822.289	18920
822.429	18837
822.569	18726
822.709	18646
822.849	18441
822.99	18429
823.13	18399
823.27	18448
823.41	18239
823.55	18209
823.69	18247
823.83	18315
823.97	18171
824.11	18038
824.25	18083
824.389	18133
824.529	18076
824.669	18038
824.809	18129
824.949	18167
825.089	18140
825.228	18079
825.368	17847
825.508	17741
825.648	17828
825.787	17863
825.927	17843
826.067	17821
826.206	17878
826.346	17718
826.485	17790
826.625	17775
826.765	17885
826.904	17809
827.044	17668
827.183	17566
827.323	17467
827.462	17547
827.601	17520
827.741	17463
827.88	17490
828.02	17474
828.159	17459
828.298	17493
828.437	17680
828.577	17410
828.716	17608
828.855	17482
828.994	17280
829.134	17334
829.273	17372
829.412	17117
829.551	17094
829.69	17273
829.829	17223
829.968	17193
830.107	17269
830.246	17280
830.385	17178
830.524	17037
830.663	17079
830.802	16911
830.941	16858
831.08	16801
831.219	16987
831.357	16919
831.496	17162
831.635	16854
831.774	16816
831.913	16687
832.051	16656
832.19	16592
832.329	16630
832.467	16603
832.606	16550
832.744	16500
832.883	16584
833.022	16558
833.16	16561
833.299	16603
833.437	16599
833.576	16546
833.714	16611
833.852	16653
833.991	16573
834.129	16683
834.267	16694
834.406	16641
834.544	16649
834.682	16538
834.821	16588
834.959	16812
835.097	16500
835.235	16725
835.373	16592
835.511	16626
835.65	16455
835.788	16618
835.926	16333
836.064	16295
836.202	16386
836.34	16542
836.478	16622
836.615	16554
836.753	16584
836.891	16573
837.029	16478
837.167	16550
837.305	16451
837.443	16394
837.58	16348
837.718	16466
837.856	16500
837.993	16417
838.131	16413
838.269	16318
838.406	16360
838.544	16299
838.681	16097
838.819	16082
838.956	15930
839.094	15915
839.231	16040
839.369	16067
839.506	16249
839.643	16211
839.781	15968
839.918	15930
840.055	15949
840.193	15930
840.33	15930
840.467	15888
840.604	15998
840.742	16112
840.879	15850
841.016	15808
841.153	15934
841.29	16010
841.427	15987
841.564	15949
841.701	15983
841.838	15949
841.975	15774
842.112	15785
842.249	15747
842.385	15713
842.522	15861
842.659	15785
842.796	15709
842.933	15701
843.069	15618
843.206	15648
843.343	15857
843.479	15766
843.616	15755
843.752	15572
843.889	15466
844.025	15759
844.162	15454
844.298	15660
844.435	15538
844.571	15458
844.708	15485
844.844	15690
844.98	15591
845.117	15587
845.253	15401
845.389	15344
845.525	15336
845.661	15485
845.798	15287
845.934	15336
846.07	15287
846.206	15443
846.342	15435
846.478	15329
846.614	15051
846.75	15085
846.886	15032
847.022	15157
847.158	15131
847.294	15108
847.429	15116
847.565	15032
847.701	15321
847.837	14792
847.972	14792
848.108	14914
848.244	14849
848.379	14762
848.515	14537
848.65	14587
848.786	14705
848.921	14629
849.057	14777
849.192	14769
849.328	14689
849.463	14651
849.598	14594
849.734	14613
849.869	14556
850.004	14400
850.14	14355
850.275	14427
850.41	14400
850.545	14339
850.68	14362
850.815	14461
850.95	14465
851.085	14602
851.22	14606
851.355	14465
851.49	14473
851.625	14256
851.76	14415
851.895	14393
852.03	14332
852.165	14393
852.299	14484
852.434	14552
852.569	14473
852.703	14473
852.838	14503
852.973	14552
853.107	14598
853.242	14396
853.376	14332
853.511	14119
853.645	14221
853.78	14465
853.914	14362
854.048	14309
854.183	14210
854.317	14332
854.451	14450
854.585	14278
854.72	14221
854.854	14396
854.988	14191
855.122	14199
855.256	14126
855.39	14271
855.524	14400
855.658	14396
855.792	14358
855.926	14301
856.06	14404
856.194	14347
856.327	14355
856.461	14180
856.595	14149
856.729	14347
856.862	14427
856.996	14355
857.13	14347
857.263	14412
857.397	14347
857.53	14286
857.664	14419
857.797	14366
857.931	14332
858.064	14286
858.197	14423
858.331	14358
858.464	14267
858.597	14164
858.731	14309
858.864	14275
858.997	14263
859.13	14358
859.263	14404
859.396	14366
859.529	14244
859.662	14221
859.795	14248
859.928	14339
860.061	14522
860.194	14450
860.327	14252
860.46	14336
860.592	14415
860.725	14419
860.858	14473
860.99	14336
861.123	14294
861.256	14145
861.388	14343
861.521	14868
861.653	14206
861.786	14092
861.918	14172
862.05	14248
862.183	14195
862.315	14286
862.447	14320
862.58	14233
862.712	14145
862.844	13967
862.976	14111
863.108	14115
863.24	14385
863.372	14020
863.504	14103
863.636	14115
863.768	14092
863.9	14088
864.032	13997
864.164	14035
864.296	14077
864.428	14172
864.559	14134
864.691	14050
864.823	14069
864.954	14130
865.086	14191
865.217	14096
865.349	14081
865.48	14012
865.612	14069
865.743	14172
865.875	14035
866.006	13978
866.137	14062
866.269	14107
866.4	14073
866.531	14027
866.662	13986
866.793	14024
866.924	14024
867.055	14031
867.186	14100
867.317	14111
867.448	13887
867.579	14031
867.71	14016
867.841	13921
867.972	14119
868.103	14126
868.233	14210
868.364	14054
868.495	14092
868.625	14336
868.756	14423
868.886	14244
869.017	14301
869.147	14377
869.278	14431
869.408	14381
869.539	14332
869.669	14419
869.799	14423
869.929	14404
870.06	14454
870.19	14655
870.32	14533
870.45	14621
870.58	14819
870.71	14796
870.84	14868
870.97	14720
871.1	14769
871.23	14887
871.36	14990
871.489	14910
871.619	14902
871.749	14933
871.879	14994
872.008	15043
872.138	15001
872.267	14944
872.397	14933
872.526	14785
872.656	14765
872.785	14845
872.915	14933
873.044	15017
873.173	15009
873.303	14998
873.432	15070
873.561	15047
873.69	15055
873.819	15036
873.948	15180
874.077	15028
874.206	14914
874.335	15077
874.464	15127
874.593	15272
874.722	15214
874.851	15294
874.979	15321
875.108	15450
875.237	15321
875.365	15214
875.494	15264
875.623	15340
875.751	15241
875.88	15431
876.008	15412
876.136	15469
876.265	15698
876.393	15880
876.521	15793
876.65	15759
876.778	15751
876.906	15686
877.034	15713
877.162	15709
877.29	15663
877.418	15713
877.546	15766
877.674	15835
877.802	15804
877.93	15660
878.058	15701
878.185	15576
878.313	15641
878.441	15724
878.568	15580
878.696	15629
878.824	15739
878.951	15808
879.079	15835
879.206	16074
879.333	15869
879.461	15778
879.588	15857
879.715	15968
879.842	15968
879.97	15850
880.097	15644
880.224	15557
880.351	15576
880.478	15572
880.605	15564
880.732	15542
880.859	15781
880.986	15652
881.112	15641
881.239	15549
881.366	15321
881.493	15230
881.619	15226
881.746	15184
881.872	15218
881.999	15230
882.125	15146
882.252	15321
882.378	15245
882.505	15393
882.631	15222
882.757	15039
882.883	15123
883.01	15032
883.136	14944
883.262	14868
883.388	14963
883.514	15127
883.64	15119
883.766	14914
883.892	14967
884.018	14925
884.143	15051
884.269	15161
884.395	14880
884.52	14800
884.646	14682
884.772	14629
884.897	14659
885.023	14693
885.148	14857
885.274	14872
885.399	14891
885.524	14773
885.65	14720
885.775	14781
885.9	14762
886.025	14906
886.15	14895
886.275	14765
886.4	14651
886.525	14708
886.65	14636
886.775	14667
886.9	14861
887.025	14982
887.149	14754
887.274	14575
887.399	14549
887.523	14590
887.648	14545
887.773	14526
887.897	14556
888.021	14587
888.146	14549
888.27	14682
888.395	14724
888.519	14667
888.643	14598
888.767	14659
888.891	14484
889.015	14503
889.139	14568
889.263	14381
889.387	14560
889.511	14625
889.635	14564
889.759	14320
889.883	14438
890.006	14476
890.13	14549
890.254	14343
890.377	14370
890.501	14381
890.624	14275
890.748	14229
890.871	14233
890.995	14058
891.118	14065
891.241	14168
891.364	14195
891.488	14218
891.611	14084
891.734	14138
891.857	14206
891.98	14115
892.103	14145
892.226	14221
892.349	14172
892.471	13940
892.594	14157
892.717	14134
892.839	14084
892.962	14100
893.085	14218
893.207	14084
893.33	14031
893.452	14062
893.575	14191
893.697	14100
893.819	14263
893.941	14389
894.064	14419
894.186	14145
894.308	14145
894.43	14282
894.552	14385
894.674	14267
894.796	14126
894.918	14168
895.04	14237
895.161	14210
895.283	14176
895.405	14149
895.526	14199
895.648	14320
895.769	14339
895.891	14339
896.012	14393
896.134	14339
896.255	14275
896.376	14301
896.498	14290
896.619	14370
896.74	14290
896.861	14355
896.982	14678
897.103	14830
897.224	14746
897.345	14587
897.466	14488
897.587	14625
897.708	14705
897.828	14667
897.949	14583
898.07	14507
898.19	14552
898.311	14743
898.431	14606
898.552	14655
898.672	14724
898.792	14781
898.913	14724
899.033	14568
899.153	14511
899.273	14476
899.393	14511
899.513	14625
899.633	14552
899.753	14412
899.873	14442
899.993	14610
900.113	14412
900.232	14594
900.352	14446
900.472	14431
900.591	14301
900.711	14423
900.83	14294
900.95	14465
901.069	14499
901.189	14351
901.308	14092
901.427	14043
901.546	13986
901.665	14081
901.784	14096
901.904	13959
902.023	13875
902.141	13696
902.26	13731
902.379	13696
902.498	13616
902.617	13556
902.735	13597
902.854	13681
902.973	13590
903.091	13339
903.21	13297
903.328	13354
903.446	13266
903.565	13240
903.683	13198
903.801	13091
903.919	13088
904.038	13164
904.156	13107
904.274	13019
904.392	13000
904.51	13065
904.627	13008
904.745	13038
904.863	13069
904.981	12806
905.098	12772
905.216	12783
905.334	12772
905.451	12673
905.569	12639
905.686	12707
905.803	12646
905.921	12612
906.038	12589
906.155	12566
906.272	12452
906.389	12540
906.506	12338
906.623	12285
906.74	12235
906.857	12178
906.974	12292
907.091	12239
907.208	12418
907.324	12273
907.441	12197
907.557	12049
907.674	12136
907.79	11923
907.907	12026
908.023	12072
908.139	12038
908.256	12015
908.372	11984
908.488	11916
908.604	11832
908.72	11798
908.836	11726
908.952	11798
909.068	11851
909.184	11885
909.3	11908
909.415	11866
909.531	11805
909.647	11566
909.762	11642
909.878	11528
909.993	11657
910.108	11570
910.224	11573
910.339	11524
910.454	11516
910.57	11379
910.685	11387
910.8	11604
910.915	11547
911.03	11414
911.145	11216
911.259	11353
911.374	11216
911.489	11136
911.604	11132
911.718	11079
911.833	11105
911.947	10938
912.062	10858
912.176	10972
912.291	11041
912.405	11010
912.519	11239
912.633	11284
912.748	11121
912.862	11045
912.976	10968
913.09	10820
913.204	10786
913.318	10980
913.431	11006
913.545	10976
913.659	11037
913.772	10930
913.886	10714
914	10771
914.113	10820
914.226	10881
914.34	10812
914.453	10660
914.566	10816
914.68	10801
914.793	10687
914.906	10554
915.019	10500
915.132	10352
915.245	10481
915.358	10470
915.47	10535
915.583	10535
915.696	10565
915.809	10710
915.921	10664
916.034	10489
916.146	10474
916.259	10497
916.371	10523
916.483	10561
916.595	10428
916.708	10440
916.82	10455
916.932	10470
917.044	10402
917.156	10363
917.268	10329
917.38	10356
917.491	10306
917.603	10413
917.715	10443
917.826	10451
917.938	10337
918.049	10188
918.161	10413
918.272	10462
918.384	10542
918.495	10356
918.606	10207
918.717	10147
918.828	10227
918.939	10268
919.05	10177
919.161	10215
919.272	10055
919.383	10093
919.494	10375
919.604	10451
919.715	10192
919.826	10192
919.936	10265
920.047	10306
920.157	10284
920.267	10402
920.378	10318
920.488	10204
920.598	10485
920.708	10592
920.818	10413
920.928	10432
921.038	10641
921.148	10558
921.258	10325
921.368	10158
921.477	10051
921.587	10025
921.697	10029
921.806	10200
921.916	9991
922.025	9876
922.134	9759
922.244	9793
922.353	9762
922.462	9679
922.571	9614
922.68	9466
922.789	9447
922.898	9488
923.007	9477
923.116	9530
923.224	9515
923.333	9507
923.442	9386
923.55	9359
923.659	9393
923.767	9450
923.876	9374
923.984	9389
924.092	9291
924.201	9344
924.309	9351
924.417	9450
924.525	9245
924.633	9272
924.741	10276
924.849	9173
924.956	9393
925.064	9199
925.172	9051
925.279	9135
925.387	9127
925.494	9199
925.602	9291
925.709	9207
925.816	9161
925.924	9207
926.031	9279
926.138	9195
926.245	9256
926.352	9112
926.459	9207
926.566	9203
926.673	9108
926.779	9066
926.886	9043
926.993	8956
927.099	8910
927.206	8769
927.312	8880
927.419	8902
927.525	8880
927.631	8921
927.737	8788
927.843	8720
927.95	8629
928.056	8739
928.162	8785
928.267	8826
928.373	9504
928.479	8868
928.585	8636
928.69	8792
928.796	8845
928.901	8632
929.007	8514
929.112	8670
929.218	8663
929.323	8610
929.428	8545
929.533	8667
929.638	8503
929.743	8579
929.848	8640
929.953	8514
930.058	8442
930.163	8358
930.267	8370
930.372	8442
930.477	8286
930.581	8590
930.685	8457
930.79	8191
930.894	8355
930.998	8267
931.103	8438
931.207	8081
931.311	8024
931.415	7974
931.519	7792
931.623	7822
