Data from test_V78500241_2540.txt Node
Date: Fri Mar 25 14:51:24 CST 2022
User: usil
Spectrometer: V785-0024
Trigger mode: 0
Integration Time (sec): 4.000000E-1
Scans to average: 1
Nonlinearity correction enabled: false
Boxcar width: 0
Storing dark spectrum: false
XAxis mode: Wavelengths
Number of Pixels in Spectrum: 1024
>>>>>Begin Spectral Data<<<<<
801.071	22128
801.214	21960
801.356	21713
801.499	21637
801.641	21473
801.783	21435
801.926	21504
802.068	21268
802.211	21203
802.353	21176
802.496	21093
802.638	20994
802.78	20956
802.923	20842
803.065	20697
803.208	20830
803.35	20731
803.492	20826
803.635	20982
803.777	20762
803.919	20712
804.061	21058
804.204	20708
804.346	20705
804.488	20587
804.63	20686
804.773	20644
804.915	20621
805.057	20724
805.199	20606
805.341	20659
805.483	20724
805.626	20754
805.768	20568
805.91	20716
806.052	20689
806.194	20549
806.336	20746
806.478	20499
806.62	20716
806.762	20640
806.904	20956
807.046	21005
807.188	20921
807.33	20937
807.472	21070
807.614	20929
807.756	20883
807.898	20792
808.04	20655
808.182	20773
808.324	20739
808.465	20705
808.607	20842
808.749	21146
808.891	21085
809.033	21336
809.174	21184
809.316	20845
809.458	21032
809.6	20918
809.741	21017
809.883	21013
810.025	21279
810.166	21214
810.308	21157
810.45	21192
810.591	20994
810.733	20895
810.875	20830
811.016	20773
811.158	20686
811.299	20944
811.441	20853
811.582	20823
811.724	20857
811.865	20712
812.007	20746
812.148	20754
812.29	20849
812.431	20998
812.573	21062
812.714	21211
812.855	21233
812.997	21454
813.138	21447
813.279	21424
813.421	21351
813.562	21108
813.703	20994
813.845	21001
813.986	20571
814.127	20583
814.268	20408
814.41	20423
814.551	20332
814.692	20355
814.833	20286
814.974	20259
815.115	20237
815.256	20164
815.397	20214
815.539	20149
815.68	20119
815.821	20001
815.962	20084
816.103	20035
816.244	19963
816.385	19814
816.526	19814
816.666	19613
816.807	19495
816.948	19616
817.089	19662
817.23	19441
817.371	19449
817.512	19415
817.653	19514
817.793	19396
817.934	19502
818.075	19445
818.216	19529
818.356	19453
818.497	19255
818.638	19152
818.778	19023
818.919	19137
819.06	19107
819.2	19289
819.341	19362
819.481	19293
819.622	19499
819.762	19616
819.903	19571
820.043	19635
820.184	19388
820.324	19460
820.465	19563
820.605	19468
820.746	19381
820.886	19289
821.026	19407
821.167	19358
821.307	19438
821.447	19339
821.588	19206
821.728	19190
821.868	19012
822.008	18810
822.149	18848
822.289	18650
822.429	18627
822.569	18399
822.709	18528
822.849	18384
822.99	18372
823.13	18410
823.27	18254
823.41	18190
823.55	18098
823.69	18235
823.83	18095
823.97	18163
824.11	17893
824.25	17813
824.389	17912
824.529	17954
824.669	18041
824.809	18064
824.949	17969
825.089	17950
825.228	17904
825.368	17771
825.508	17741
825.648	17741
825.787	17726
825.927	17748
826.067	17596
826.206	17703
826.346	17737
826.485	17668
826.625	17600
826.765	17748
826.904	17722
827.044	17585
827.183	17528
827.323	17414
827.462	17554
827.601	17421
827.741	17326
827.88	17406
828.02	17360
828.159	17318
828.298	17440
828.437	17516
828.577	17391
828.716	17486
828.855	17440
828.994	17200
829.134	17151
829.273	17189
829.412	17265
829.551	17212
829.69	17208
829.829	17277
829.968	17326
830.107	17200
830.246	17197
830.385	17227
830.524	17143
830.663	17109
830.802	16953
830.941	16740
831.08	16767
831.219	16930
831.357	16881
831.496	16995
831.635	16778
831.774	16820
831.913	16683
832.051	16611
832.19	16645
832.329	16660
832.467	16493
832.606	16489
832.744	16360
832.883	16561
833.022	16519
833.16	16508
833.299	16546
833.437	16584
833.576	16546
833.714	16569
833.852	16694
833.991	16660
834.129	16615
834.267	16626
834.406	16512
834.544	16558
834.682	16615
834.821	16592
834.959	16694
835.097	16474
835.235	16611
835.373	16542
835.511	16645
835.65	16599
835.788	16470
835.926	16257
836.064	16333
836.202	16367
836.34	16569
836.478	16512
836.615	16462
836.753	16516
836.891	16500
837.029	16535
837.167	16447
837.305	16398
837.443	16352
837.58	16242
837.718	16402
837.856	16360
837.993	16291
838.131	16341
838.269	16276
838.406	16226
838.544	16200
838.681	16147
838.819	15994
838.956	15876
839.094	15842
839.231	15892
839.369	15994
839.506	16215
839.643	16181
839.781	15983
839.918	15857
840.055	15880
840.193	15759
840.33	15884
840.467	15842
840.604	15884
840.742	16211
840.879	15785
841.016	15724
841.153	15770
841.29	15987
841.427	15998
841.564	15865
841.701	15892
841.838	15762
841.975	15819
842.112	15785
842.249	15679
842.385	15572
842.522	15835
842.659	15663
842.796	15553
842.933	15641
843.069	15599
843.206	15625
843.343	15812
843.479	15682
843.616	15797
843.752	15424
843.889	15439
844.025	15507
844.162	15408
844.298	15584
844.435	15412
844.571	15435
844.708	15553
844.844	15622
844.98	15561
845.117	15519
845.253	15500
845.389	15401
845.525	15386
845.661	15370
845.798	15245
845.934	15344
846.07	15176
846.206	15260
846.342	15477
846.478	15207
846.614	15074
846.75	15009
846.886	14876
847.022	15112
847.158	15112
847.294	14963
847.429	14971
847.565	15028
847.701	15218
847.837	14800
847.972	14735
848.108	14925
848.244	14830
848.379	14636
848.515	14530
848.65	14602
848.786	14739
848.921	14594
849.057	14727
849.192	14682
849.328	14617
849.463	14625
849.598	14514
849.734	14533
849.869	14511
850.004	14434
850.14	14492
850.275	14336
850.41	14309
850.545	14366
850.68	14396
850.815	14400
850.95	14514
851.085	14651
851.22	14625
851.355	14385
851.49	14328
851.625	14446
851.76	14381
851.895	14263
852.03	14240
852.165	14286
852.299	14374
852.434	14450
852.569	14461
852.703	14381
852.838	14526
852.973	14617
853.107	14514
853.242	14298
853.376	14263
853.511	14183
853.645	14267
853.78	14336
853.914	14355
854.048	14259
854.183	14187
854.317	14164
854.451	14396
854.585	14294
854.72	14259
854.854	14366
854.988	14092
855.122	14313
855.256	14096
855.39	14237
855.524	14427
855.658	14294
855.792	14244
855.926	14263
856.06	14324
856.194	14419
856.327	14355
856.461	14172
856.595	14157
856.729	14305
856.862	14374
856.996	14221
857.13	14271
857.263	14438
857.397	14286
857.53	14290
857.664	14385
857.797	14301
857.931	14347
858.064	14290
858.197	14427
858.331	14286
858.464	14191
858.597	14218
858.731	14191
858.864	14256
858.997	14259
859.13	14278
859.263	14355
859.396	14233
859.529	14210
859.662	14210
859.795	14233
859.928	14214
860.061	14320
860.194	14514
860.327	14271
860.46	14290
860.592	14385
860.725	14488
860.858	14343
860.99	14301
861.123	14176
861.256	14134
861.388	14233
861.521	14842
861.653	14111
861.786	14130
861.918	14138
862.05	14069
862.183	14187
862.315	14320
862.447	14336
862.58	14278
862.712	13932
862.844	13963
862.976	14031
863.108	13967
863.24	14446
863.372	13967
863.504	14046
863.636	14069
863.768	14054
863.9	14115
864.032	13925
864.164	14001
864.296	14039
864.428	14111
864.559	14172
864.691	14142
864.823	14161
864.954	14081
865.086	14073
865.217	14107
865.349	14012
865.48	13989
865.612	13951
865.743	14199
865.875	14054
866.006	13982
866.137	13986
866.269	13909
866.4	13959
866.531	14005
866.662	13898
866.793	14027
866.924	13978
867.055	13959
867.186	14035
867.317	13936
867.448	13936
867.579	14012
867.71	14058
867.841	13890
867.972	14073
868.103	14081
868.233	14020
868.364	14084
868.495	14031
868.625	14370
868.756	14366
868.886	14157
869.017	14195
869.147	14370
869.278	14412
869.408	14298
869.539	14199
869.669	14324
869.799	14278
869.929	14423
870.06	14412
870.19	14556
870.32	14533
870.45	14625
870.58	14682
870.71	14727
870.84	14800
870.97	14716
871.1	14632
871.23	14876
871.36	14883
871.489	14811
871.619	14731
871.749	14834
871.879	14826
872.008	15100
872.138	14845
872.267	14815
872.397	14804
872.526	14670
872.656	14701
872.785	14678
872.915	14914
873.044	14967
873.173	14960
873.303	14975
873.432	14918
873.561	15055
873.69	14956
873.819	14948
873.948	15070
874.077	14963
874.206	14895
874.335	15039
874.464	15077
874.593	15241
874.722	15108
874.851	15245
874.979	15222
875.108	15275
875.237	15203
875.365	15157
875.494	15214
875.623	15317
875.751	15138
875.88	15279
876.008	15336
876.136	15469
876.265	15709
876.393	15789
876.521	15682
876.65	15705
876.778	15713
876.906	15568
877.034	15713
877.162	15625
877.29	15561
877.418	15656
877.546	15701
877.674	15686
877.802	15713
877.93	15580
878.058	15561
878.185	15477
878.313	15625
878.441	15572
878.568	15523
878.696	15591
878.824	15690
878.951	15663
879.079	15755
879.206	15876
879.333	15808
879.461	15641
879.588	15679
879.715	15869
879.842	15880
879.97	15732
880.097	15408
880.224	15485
880.351	15492
880.478	15553
880.605	15530
880.732	15458
880.859	15751
880.986	15564
881.112	15530
881.239	15450
881.366	15241
881.493	15230
881.619	15142
881.746	15150
881.872	15249
881.999	15066
882.125	15188
882.252	15150
882.378	15176
882.505	15256
882.631	15066
882.757	15024
882.883	15150
883.01	14883
883.136	14925
883.262	14815
883.388	14781
883.514	14994
883.64	15066
883.766	14853
883.892	14720
884.018	14826
884.143	15013
884.269	15032
884.395	14769
884.52	14640
884.646	14686
884.772	14727
884.897	14590
885.023	14701
885.148	14777
885.274	14815
885.399	14834
885.524	14712
885.65	14743
885.775	14640
885.9	14667
886.025	14785
886.15	14731
886.275	14655
886.4	14518
886.525	14602
886.65	14636
886.775	14651
886.9	14811
887.025	14998
887.149	14739
887.274	14625
887.399	14488
887.523	14549
887.648	14400
887.773	14400
887.897	14602
888.021	14552
888.146	14457
888.27	14575
888.395	14579
888.519	14533
888.643	14590
888.767	14533
888.891	14446
889.015	14370
889.139	14446
889.263	14389
889.387	14476
889.511	14556
889.635	14408
889.759	14450
889.883	14282
890.006	14434
890.13	14488
890.254	14275
890.377	14362
890.501	14157
890.624	14126
890.748	14180
890.871	14065
890.995	13989
891.118	13989
891.241	14149
891.364	14103
891.488	14142
891.611	14054
891.734	14138
891.857	14202
891.98	14134
892.103	14149
892.226	14138
892.349	14020
892.471	13898
892.594	14008
892.717	14058
892.839	14115
892.962	14111
893.085	14145
893.207	14069
893.33	13955
893.452	13978
893.575	14172
893.697	14054
893.819	14221
893.941	14278
894.064	14244
894.186	14065
894.308	14050
894.43	14161
894.552	14298
894.674	14199
894.796	14020
894.918	14210
895.04	14058
895.161	14267
895.283	14233
895.405	14065
895.526	14191
895.648	14073
895.769	14267
895.891	14282
896.012	14282
896.134	14317
896.255	14237
896.376	14187
896.498	14172
896.619	14305
896.74	14313
896.861	14229
896.982	14621
897.103	14731
897.224	14568
897.345	14454
897.466	14408
897.587	14503
897.708	14667
897.828	14606
897.949	14438
898.07	14332
898.19	14533
898.311	14663
898.431	14499
898.552	14670
898.672	14708
898.792	14663
898.913	14663
899.033	14476
899.153	14423
899.273	14347
899.393	14438
899.513	14438
899.633	14396
899.753	14469
899.873	14385
899.993	14495
900.113	14488
900.232	14431
900.352	14408
900.472	14339
900.591	14305
900.711	14298
900.83	14221
900.95	14438
901.069	14412
901.189	14320
901.308	14035
901.427	13967
901.546	13932
901.665	14126
901.784	14027
901.904	13860
902.023	13795
902.141	13628
902.26	13559
902.379	13521
902.498	13533
902.617	13457
902.735	13586
902.854	13487
902.973	13441
903.091	13320
903.21	13335
903.328	13297
903.446	13266
903.565	13145
903.683	13168
903.801	13034
903.919	13141
904.038	13050
904.156	13023
904.274	13050
904.392	12954
904.51	12935
904.627	12954
904.745	12924
904.863	12970
904.981	12791
905.098	12681
905.216	12608
905.334	12719
905.451	12677
905.569	12639
905.686	12726
905.803	12616
905.921	12414
906.038	12601
906.155	12399
906.272	12456
906.389	12372
906.506	12213
906.623	12289
906.74	12167
906.857	12057
906.974	12136
907.091	12300
907.208	12433
907.324	12262
907.441	12178
907.557	12011
907.674	12053
907.79	11942
907.907	11992
908.023	11992
908.139	12030
908.256	12022
908.372	11969
908.488	11847
908.604	11813
908.72	11767
908.836	11710
908.952	11748
909.068	11779
909.184	11741
909.3	11786
909.415	11745
909.531	11813
909.647	11478
909.762	11528
909.878	11532
909.993	11493
910.108	11532
910.224	11547
910.339	11516
910.454	11467
910.57	11421
910.685	11345
910.8	11608
910.915	11524
911.03	11406
911.145	11311
911.259	11178
911.374	11178
911.489	11174
911.604	11113
911.718	11003
911.833	11045
911.947	10923
912.062	10793
912.176	10927
912.291	11037
912.405	11029
912.519	11273
912.633	11227
912.748	11056
912.862	10999
912.976	10850
913.09	10710
913.204	10759
913.318	10915
913.431	10995
913.545	10968
913.659	10968
913.772	10881
913.886	10816
914	10706
914.113	10877
914.226	10854
914.34	10862
914.453	10687
914.566	10850
914.68	10710
914.793	10653
914.906	10580
915.019	10478
915.132	10417
915.245	10478
915.358	10497
915.47	10474
915.583	10588
915.696	10535
915.809	10641
915.921	10679
916.034	10500
916.146	10459
916.259	10485
916.371	10481
916.483	10459
916.595	10447
916.708	10421
916.82	10447
916.932	10360
917.044	10398
917.156	10394
917.268	10276
917.38	10299
917.491	10318
917.603	10299
917.715	10413
917.826	10485
917.938	10310
918.049	10207
918.161	10249
918.272	10459
918.384	10451
918.495	10382
918.606	10211
918.717	10135
918.828	10249
918.939	10249
919.05	10181
919.161	10230
919.272	9956
919.383	10074
919.494	10238
919.604	10409
919.715	10207
919.826	10154
919.936	10185
920.047	10322
920.157	10265
920.267	10382
920.378	10249
920.488	10227
920.598	10436
920.708	10535
920.818	10421
920.928	10409
921.038	10569
921.148	10615
921.258	10242
921.368	10242
921.477	10086
921.587	10063
921.697	9998
921.806	10131
921.916	9972
922.025	9827
922.134	9755
922.244	9713
922.353	9876
922.462	9648
922.571	9603
922.68	9424
922.789	9504
922.898	9485
923.007	9393
923.116	9496
923.224	9447
923.333	9511
923.442	9359
923.55	9283
923.659	9450
923.767	9492
923.876	9279
923.984	9428
924.092	9241
924.201	9351
924.309	9359
924.417	9321
924.525	9332
924.633	9401
924.741	10227
924.849	9112
924.956	9313
925.064	9135
925.172	9077
925.279	9123
925.387	9112
925.494	9150
925.602	9249
925.709	9260
925.816	9104
925.924	9161
926.031	9203
926.138	9154
926.245	9173
926.352	9020
926.459	9211
926.566	9195
926.673	9104
926.779	8986
926.886	9036
926.993	8880
927.099	8864
927.206	8788
927.312	8849
927.419	8929
927.525	8887
927.631	8948
927.737	8785
927.843	8754
927.95	8693
928.056	8644
928.162	8773
928.267	8750
928.373	9389
928.479	8891
928.585	8663
928.69	8712
928.796	8785
928.901	8655
929.007	8549
929.112	8598
929.218	8697
929.323	8575
929.428	8590
929.533	8689
929.638	8476
929.743	8556
929.848	8659
929.953	8556
930.058	8457
930.163	8313
930.267	8336
930.372	8457
930.477	8355
930.581	8545
930.685	8415
930.79	8336
930.894	8324
930.998	8259
931.103	8366
931.207	8088
931.311	8020
931.415	7963
931.519	7788
931.623	7734
