Data from test_V78500241_108.txt Node
Date: Fri Mar 25 14:34:28 CST 2022
User: usil
Spectrometer: V785-0024
Trigger mode: 0
Integration Time (sec): 4.000000E-1
Scans to average: 1
Nonlinearity correction enabled: false
Boxcar width: 0
Storing dark spectrum: false
XAxis mode: Wavelengths
Number of Pixels in Spectrum: 1024
>>>>>Begin Spectral Data<<<<<
801.071	29627
801.214	29520
801.356	29334
801.499	29208
801.641	29280
801.783	29037
801.926	29041
802.068	29044
802.211	28908
802.353	28999
802.496	28702
802.638	28702
802.78	28828
802.923	28767
803.065	28668
803.208	28645
803.35	28767
803.492	28923
803.635	28896
803.777	28774
803.919	29037
804.061	29159
804.204	29075
804.346	29098
804.488	28854
804.63	28946
804.773	28847
804.915	29025
805.057	29071
805.199	28968
805.341	29239
805.483	29216
805.626	29212
805.768	29181
805.91	29311
806.052	29398
806.194	29398
806.336	29699
806.478	29691
806.62	29733
806.762	29927
806.904	30133
807.046	30608
807.188	30517
807.33	30673
807.472	31065
807.614	31129
807.756	31495
807.898	31860
808.04	32480
808.182	33340
808.324	34466
808.465	35840
808.607	37156
808.749	38214
808.891	38861
809.033	38895
809.174	38172
809.316	36867
809.458	35493
809.6	34325
809.741	33222
809.883	32332
810.025	31982
810.166	31567
810.308	31308
810.45	30981
810.591	30646
810.733	30433
810.875	30148
811.016	30083
811.158	29809
811.299	30007
811.441	30136
811.582	29859
811.724	29741
811.865	29703
812.007	29676
812.148	29630
812.29	29634
812.431	29684
812.573	29786
812.714	29859
812.855	29946
812.997	30201
813.138	30144
813.279	30095
813.421	29980
813.562	30022
813.703	29737
813.845	29627
813.986	29242
814.127	29181
814.268	29037
814.41	29006
814.551	28980
814.692	29003
814.833	28835
814.974	28881
815.115	28858
815.256	28778
815.397	28691
815.539	28565
815.68	28596
815.821	28550
815.962	28436
816.103	28592
816.244	28462
816.385	28356
816.526	28333
816.666	28059
816.807	27899
816.948	28188
817.089	28013
817.23	27979
817.371	27903
817.512	27797
817.653	27869
817.793	27835
817.934	27930
818.075	27888
818.216	27850
818.356	27842
818.497	27743
818.638	27595
818.778	27698
818.919	27682
819.06	27538
819.2	27762
819.341	27930
819.481	27701
819.622	28025
819.762	28055
819.903	27975
820.043	27850
820.184	27808
820.324	27846
820.465	27842
820.605	27854
820.746	27854
820.886	27663
821.026	27831
821.167	27747
821.307	27736
821.447	27698
821.588	27477
821.728	27351
821.868	27272
822.008	27123
822.149	27131
822.289	27070
822.429	26838
822.569	26644
822.709	26655
822.849	26484
822.99	26640
823.13	26503
823.27	26404
823.41	26351
823.55	26100
823.69	26256
823.83	26400
823.97	26313
824.11	26240
824.25	26035
824.389	26126
824.529	26183
824.669	26088
824.809	26187
824.949	26122
825.089	26065
825.228	26100
825.368	25833
825.508	25909
825.648	25856
825.787	25974
825.927	26008
826.067	25845
826.206	25978
826.346	25955
826.485	25982
826.625	25917
826.765	25959
826.904	25936
827.044	25738
827.183	25563
827.323	25460
827.462	25597
827.601	25590
827.741	25651
827.88	25597
828.02	25422
828.159	25639
828.298	25586
828.437	25632
828.577	25491
828.716	25556
828.855	25422
828.994	25388
829.134	25327
829.273	25396
829.412	25110
829.551	25198
829.69	25251
829.829	25274
829.968	25301
830.107	25289
830.246	25091
830.385	25251
830.524	25088
830.663	25053
830.802	24977
830.941	24715
831.08	24757
831.219	24840
831.357	24776
831.496	25031
831.635	24749
831.774	24738
831.913	24673
832.051	24601
832.19	24563
832.329	24525
832.467	24589
832.606	24407
832.744	24532
832.883	24551
833.022	24570
833.16	24593
833.299	24612
833.437	24642
833.576	24878
833.714	24829
833.852	24966
833.991	24973
834.129	24932
834.267	24981
834.406	24852
834.544	24970
834.682	24871
834.821	24688
834.959	24897
835.097	24688
835.235	24646
835.373	24696
835.511	24471
835.65	24353
835.788	24338
835.926	24167
836.064	24121
836.202	24098
836.34	24247
836.478	24365
836.615	24171
836.753	24376
836.891	24235
837.029	24338
837.167	24174
837.305	24079
837.443	24083
837.58	23999
837.718	24007
837.856	24079
837.993	24064
838.131	23984
838.269	23908
838.406	23916
838.544	23889
838.681	23554
838.819	23691
838.956	23414
839.094	23425
839.231	23486
839.369	23638
839.506	23821
839.643	23752
839.781	23444
839.918	23368
840.055	23436
840.193	23414
840.33	23250
840.467	23417
840.604	23318
840.742	23615
840.879	23326
841.016	23212
841.153	23258
841.29	23444
841.427	23364
841.564	23269
841.701	23410
841.838	23254
841.975	23166
842.112	23143
842.249	23132
842.385	22900
842.522	23159
842.659	23094
842.796	23090
842.933	23056
843.069	23086
843.206	23056
843.343	23155
843.479	23151
843.616	23037
843.752	22835
843.889	23022
844.025	23067
844.162	22946
844.298	23079
844.435	23010
844.571	23296
844.708	23318
844.844	23452
844.98	23794
845.117	23897
845.253	24201
845.389	24745
845.525	26058
845.661	28318
845.798	31137
845.934	33199
846.07	34074
846.206	33603
846.342	31925
846.478	29322
846.614	26617
846.75	24951
846.886	24106
847.022	23615
847.158	22972
847.294	22805
847.429	22805
847.565	22626
847.701	22736
847.837	22181
847.972	22230
848.108	22219
848.244	22226
848.379	21899
848.515	21835
848.65	21812
848.786	21998
848.921	21846
849.057	21930
849.192	21991
849.328	21941
849.463	21846
849.598	21804
849.734	21720
849.869	21618
850.004	21618
850.14	21648
850.275	21534
850.41	21530
850.545	21557
850.68	21496
850.815	21595
850.95	21538
851.085	21686
851.22	21580
851.355	21435
851.49	21587
851.625	21553
851.76	21386
851.895	21439
852.03	21386
852.165	21572
852.299	21488
852.434	21580
852.569	21553
852.703	21481
852.838	21576
852.973	21583
853.107	21641
853.242	21496
853.376	21431
853.511	21298
853.645	21378
853.78	21576
853.914	21561
854.048	21500
854.183	21397
854.317	21458
854.451	21519
854.585	21564
854.72	21469
854.854	21515
854.988	21405
855.122	21412
855.256	21401
855.39	21351
855.524	21363
855.658	21291
855.792	21355
855.926	21420
856.06	21355
856.194	21450
856.327	21424
856.461	21310
856.595	21275
856.729	21283
856.862	21359
856.996	21408
857.13	21275
857.263	21329
857.397	21378
857.53	21203
857.664	21302
857.797	21237
857.931	21420
858.064	21272
858.197	21344
858.331	21207
858.464	21192
858.597	21062
858.731	21138
858.864	21184
858.997	21184
859.13	21157
859.263	21142
859.396	21222
859.529	21100
859.662	21127
859.795	21119
859.928	21108
860.061	21302
860.194	21268
860.327	21203
860.46	21081
860.592	21283
860.725	21230
860.858	21325
860.99	21184
861.123	21058
861.256	21100
861.388	21131
861.521	21644
861.653	21085
861.786	21001
861.918	21085
862.05	21028
862.183	21207
862.315	21203
862.447	21302
862.58	21116
862.712	21024
862.844	20830
862.976	20952
863.108	20952
863.24	21264
863.372	20815
863.504	20849
863.636	20937
863.768	20880
863.9	20743
864.032	20720
864.164	20705
864.296	20849
864.428	20842
864.559	20971
864.691	20716
864.823	20872
864.954	20773
865.086	20845
865.217	20678
865.349	20621
865.48	20583
865.612	20663
865.743	20944
865.875	20621
866.006	20720
866.137	20739
866.269	20655
866.4	20769
866.531	20663
866.662	20678
866.793	20686
866.924	20636
867.055	20632
867.186	20648
867.317	20552
867.448	20385
867.579	20640
867.71	20473
867.841	20640
867.972	20689
868.103	20598
868.233	20549
868.364	20773
868.495	20765
868.625	20667
868.756	20948
868.886	20754
869.017	20785
869.147	21032
869.278	20952
869.408	20994
869.539	20902
869.669	20967
869.799	20967
869.929	20990
870.06	20952
870.19	21104
870.32	21161
870.45	21241
870.58	21256
870.71	21340
870.84	21317
870.97	21382
871.1	21302
871.23	21523
871.36	21351
871.489	21355
871.619	21572
871.749	21534
871.879	21595
872.008	21648
872.138	21599
872.267	21519
872.397	21393
872.526	21359
872.656	21367
872.785	21458
872.915	21603
873.044	21648
873.173	21599
873.303	21595
873.432	21660
873.561	21663
873.69	21568
873.819	21591
873.948	21736
874.077	21789
874.206	21728
874.335	21713
874.464	21789
874.593	22029
874.722	21842
874.851	21941
874.979	21934
875.108	22074
875.237	22070
875.365	21880
875.494	22093
875.623	22051
875.751	22067
875.88	22131
876.008	22200
876.136	22303
876.265	22550
876.393	22774
876.521	22691
876.65	22717
876.778	22645
876.906	22645
877.034	22607
877.162	22660
877.29	22687
877.418	22934
877.546	22831
877.674	22801
877.802	22816
877.93	22942
878.058	22889
878.185	22911
878.313	23132
878.441	23353
878.568	23383
878.696	23554
878.824	23897
878.951	24437
879.079	25251
879.206	26096
879.333	26785
879.461	27488
879.588	28109
879.715	28070
879.842	27728
879.97	26914
880.097	25902
880.224	25080
880.351	24654
880.478	24395
880.605	24038
880.732	23969
880.859	24159
880.986	23821
881.112	23695
881.239	23539
881.366	23379
881.493	23433
881.619	23227
881.746	23334
881.872	23162
881.999	23258
882.125	23185
882.252	23364
882.378	23356
882.505	23482
882.631	23193
882.757	23220
882.883	23162
883.01	23037
883.136	23060
883.262	22976
883.388	22984
883.514	23326
883.64	23147
883.766	22908
883.892	22881
884.018	22908
884.143	23147
884.269	23147
884.395	22934
884.52	22790
884.646	22736
884.772	22698
884.897	22672
885.023	22736
885.148	22847
885.274	22835
885.399	22698
885.524	22691
885.65	22592
885.775	22580
885.9	22428
886.025	22504
886.15	22500
886.275	22284
886.4	22044
886.525	22166
886.65	22173
886.775	21903
886.9	22177
887.025	22265
887.149	21968
887.274	21781
887.399	21671
887.523	21660
887.648	21557
887.773	21317
887.897	21637
888.021	21534
888.146	21405
888.27	21519
888.395	21614
888.519	21580
888.643	21511
888.767	21424
888.891	21412
889.015	21195
889.139	21192
889.263	21138
889.387	21218
889.511	21165
889.635	21249
889.759	20994
889.883	21051
890.006	21013
890.13	21123
890.254	20921
890.377	20925
890.501	20667
890.624	20746
890.748	20693
890.871	20758
890.995	20549
891.118	20370
891.241	20583
891.364	20450
891.488	20530
891.611	20522
891.734	20412
891.857	20450
891.98	20396
892.103	20503
892.226	20412
892.349	20434
892.471	20176
892.594	20233
892.717	20275
892.839	20195
892.962	20286
893.085	20218
893.207	20183
893.33	20145
893.452	20187
893.575	20328
893.697	20092
893.819	20351
893.941	20278
894.064	20199
894.186	20081
894.308	20073
894.43	20271
894.552	20218
894.674	20130
894.796	20081
894.918	20077
895.04	20012
895.161	20161
895.283	20130
895.405	19982
895.526	19947
895.648	19959
895.769	19997
895.891	19997
896.012	20103
896.134	20043
896.255	19997
896.376	19883
896.498	20054
896.619	20012
896.74	20024
896.861	20092
896.982	20389
897.103	20412
897.224	20290
897.345	20206
897.466	20111
897.587	20233
897.708	20286
897.828	20065
897.949	20012
898.07	20031
898.19	20050
898.311	20278
898.431	20062
898.552	20130
898.672	20256
898.792	20168
898.913	19944
899.033	20039
899.153	19925
899.273	19753
899.393	19795
899.513	19906
899.633	19928
899.753	19799
899.873	19807
899.993	19909
900.113	19784
900.232	19712
900.352	19791
900.472	19662
900.591	19693
900.711	19746
900.83	19556
900.95	19613
901.069	19776
901.189	19521
901.308	19206
901.427	19194
901.546	19190
901.665	19274
901.784	19168
901.904	18939
902.023	18996
902.141	18821
902.26	18749
902.379	18776
902.498	18688
902.617	18608
902.735	18623
902.854	18547
902.973	18589
903.091	18372
903.21	18304
903.328	18361
903.446	18155
903.565	18190
903.683	18079
903.801	17958
903.919	18076
904.038	17961
904.156	17908
904.274	17999
904.392	17786
904.51	17840
904.627	17828
904.745	17897
904.863	17901
904.981	17551
905.098	17573
905.216	17482
905.334	17524
905.451	17482
905.569	17425
905.686	17516
905.803	17463
905.921	17246
906.038	17368
906.155	17250
906.272	17185
906.389	17239
906.506	17155
906.623	17022
906.74	17033
906.857	16965
906.974	16816
907.091	17018
907.208	17159
907.324	17075
907.441	17003
907.557	16816
907.674	16771
907.79	16702
907.907	16653
908.023	16702
908.139	16721
908.256	16778
908.372	16660
908.488	16531
908.604	16523
908.72	16440
908.836	16440
908.952	16375
909.068	16424
909.184	16569
909.3	16413
909.415	16402
909.531	16379
909.647	16162
909.762	16135
909.878	16036
909.993	16147
910.108	16021
910.224	16181
910.339	16040
910.454	15998
910.57	15945
910.685	16002
910.8	16059
910.915	16025
911.03	15911
911.145	15728
911.259	15652
911.374	15675
911.489	15774
911.604	15682
911.718	15431
911.833	15443
911.947	15325
912.062	15317
912.176	15367
912.291	15428
912.405	15389
912.519	15637
912.633	15682
912.748	15469
912.862	15408
912.976	15233
913.09	15112
913.204	15260
913.318	15245
913.431	15363
913.545	15321
913.659	15306
913.772	15291
913.886	15184
914	15009
914.113	15184
914.226	15154
914.34	15169
914.453	14952
914.566	15123
914.68	14986
914.793	14899
914.906	14861
915.019	14701
915.132	14625
915.245	14705
915.358	14765
915.47	14781
915.583	14800
915.696	14807
915.809	14788
915.921	14872
916.034	14663
916.146	14610
916.259	14598
916.371	14663
916.483	14773
916.595	14571
916.708	14556
916.82	14625
916.932	14552
917.044	14590
917.156	14598
917.268	14389
917.38	14370
917.491	14362
917.603	14366
917.715	14533
917.826	14533
917.938	14343
918.049	14282
918.161	14290
918.272	14431
918.384	14396
918.495	14282
918.606	14157
918.717	14024
918.828	14218
918.939	14111
919.05	14088
919.161	14149
919.272	13856
919.383	13898
919.494	14134
919.604	14153
919.715	14035
919.826	13974
919.936	13967
920.047	14088
920.157	14024
920.267	14210
920.378	13997
920.488	13978
920.598	14168
920.708	14244
920.818	14180
920.928	14164
921.038	14343
921.148	14263
921.258	14005
921.368	13925
921.477	13757
921.587	13666
921.697	13674
921.806	13791
921.916	13514
922.025	13590
922.134	13346
922.244	13324
922.353	13491
922.462	13373
922.571	13209
922.68	13042
922.789	13061
922.898	13057
923.007	13015
923.116	13076
923.224	12996
923.333	12985
923.442	12947
923.55	12909
923.659	12932
923.767	12905
923.876	12878
923.984	12939
924.092	12810
924.201	12833
924.309	12814
924.417	12783
924.525	12745
924.633	12642
924.741	13670
924.849	12563
924.956	12779
925.064	12490
925.172	12506
925.279	12475
925.387	12490
925.494	12509
925.602	12684
925.709	12536
925.816	12464
925.924	12414
926.031	12498
926.138	12426
926.245	12525
926.352	12388
926.459	12513
926.566	12498
926.673	12346
926.779	12273
926.886	12254
926.993	12034
927.099	12045
927.206	12053
927.312	11988
927.419	12148
927.525	12019
927.631	12038
927.737	11843
927.843	12019
927.95	11859
928.056	11771
928.162	11908
928.267	11878
928.373	12486
928.479	11923
928.585	11710
928.69	11843
928.796	11908
928.901	11794
929.007	11562
929.112	11726
929.218	11699
929.323	11627
929.428	11532
929.533	11695
929.638	11509
929.743	11657
929.848	11539
929.953	11619
930.058	11459
930.163	11303
930.267	11322
930.372	11490
930.477	11208
930.581	11463
930.685	11337
930.79	11254
930.894	11242
930.998	11159
931.103	11235
931.207	10923
931.311	10809
931.415	10691
931.519	10577
931.623	10554
