Data from test_V78500241_1686.txt Node
Date: Fri Mar 25 14:45:27 CST 2022
User: usil
Spectrometer: V785-0024
Trigger mode: 0
Integration Time (sec): 4.000000E-1
Scans to average: 1
Nonlinearity correction enabled: false
Boxcar width: 0
Storing dark spectrum: false
XAxis mode: Wavelengths
Number of Pixels in Spectrum: 1024
>>>>>Begin Spectral Data<<<<<
801.071	22234
801.214	22234
801.356	21979
801.499	21854
801.641	21622
801.783	21679
801.926	21629
802.068	21561
802.211	21469
802.353	21393
802.496	21218
802.638	21104
802.78	21047
802.923	21077
803.065	20929
803.208	20895
803.35	20998
803.492	21036
803.635	21024
803.777	21028
803.919	20986
804.061	21279
804.204	20952
804.346	20956
804.488	20804
804.63	20971
804.773	20853
804.915	20971
805.057	21036
805.199	20845
805.341	20910
805.483	21036
805.626	21013
805.768	20883
805.91	20880
806.052	20883
806.194	20762
806.336	20929
806.478	20914
806.62	20845
806.762	20838
806.904	21146
807.046	21260
807.188	21393
807.33	21020
807.472	21222
807.614	21150
807.756	21085
807.898	21020
808.04	21036
808.182	21039
808.324	21165
808.465	21047
808.607	21173
808.749	21393
808.891	21496
809.033	21583
809.174	21332
809.316	21351
809.458	21298
809.6	21332
809.741	21389
809.883	21336
810.025	21595
810.166	21370
810.308	21378
810.45	21504
810.591	21367
810.733	21241
810.875	21154
811.016	20979
811.158	21001
811.299	21093
811.441	21310
811.582	21154
811.724	21051
811.865	21066
812.007	21055
812.148	20979
812.29	21214
812.431	21214
812.573	21424
812.714	21412
812.855	21568
812.997	21720
813.138	21778
813.279	21743
813.421	21633
813.562	21355
813.703	21378
813.845	21256
813.986	20914
814.127	20762
814.268	20667
814.41	20743
814.551	20480
814.692	20686
814.833	20621
814.974	20552
815.115	20533
815.256	20473
815.397	20461
815.539	20454
815.68	20286
815.821	20347
815.962	20366
816.103	20320
816.244	20233
816.385	20122
816.526	20100
816.666	19925
816.807	19780
816.948	19898
817.089	19883
817.23	19765
817.371	19674
817.512	19712
817.653	19742
817.793	19750
817.934	19731
818.075	19742
818.216	19822
818.356	19765
818.497	19578
818.638	19422
818.778	19449
818.919	19411
819.06	19457
819.2	19666
819.341	19685
819.481	19594
819.622	19822
819.762	19959
819.903	19883
820.043	19818
820.184	19841
820.324	19704
820.465	19708
820.605	19715
820.746	19704
820.886	19537
821.026	19780
821.167	19666
821.307	19723
821.447	19552
821.588	19620
821.728	19453
821.868	19392
822.008	19114
822.149	19198
822.289	19080
822.429	18852
822.569	18772
822.709	18783
822.849	18677
822.99	18566
823.13	18559
823.27	18540
823.41	18502
823.55	18384
823.69	18540
823.83	18456
823.97	18372
824.11	18281
824.25	18216
824.389	18258
824.529	18304
824.669	18243
824.809	18361
824.949	18251
825.089	18342
825.228	18220
825.368	18030
825.508	18019
825.648	18019
825.787	17988
825.927	18068
826.067	17988
826.206	17866
826.346	18015
826.485	18038
826.625	17988
826.765	18095
826.904	17965
827.044	17665
827.183	17745
827.323	17619
827.462	17767
827.601	17589
827.741	17707
827.88	17649
828.02	17619
828.159	17764
828.298	17611
828.437	17714
828.577	17615
828.716	17779
828.855	17600
828.994	17448
829.134	17379
829.273	17398
829.412	17417
829.551	17364
829.69	17391
829.829	17444
829.968	17554
830.107	17471
830.246	17410
830.385	17436
830.524	17303
830.663	17254
830.802	17147
830.941	17003
831.08	17079
831.219	17064
831.357	17048
831.496	17212
831.635	17014
831.774	16869
831.913	16942
832.051	16812
832.19	16908
832.329	16854
832.467	16607
832.606	16721
832.744	16694
832.883	16755
833.022	16694
833.16	16702
833.299	16805
833.437	16793
833.576	16767
833.714	16839
833.852	16828
833.991	16786
834.129	16790
834.267	16809
834.406	16725
834.544	16824
834.682	16767
834.821	16694
834.959	16968
835.097	16755
835.235	16847
835.373	16812
835.511	16793
835.65	16649
835.788	16630
835.926	16535
836.064	16379
836.202	16466
836.34	16733
836.478	16790
836.615	16523
836.753	16729
836.891	16786
837.029	16809
837.167	16702
837.305	16626
837.443	16599
837.58	16462
837.718	16672
837.856	16527
837.993	16462
838.131	16573
838.269	16405
838.406	16447
838.544	16386
838.681	16226
838.819	16219
838.956	16032
839.094	16078
839.231	16192
839.369	16173
839.506	16538
839.643	16382
839.781	16105
839.918	16090
840.055	16124
840.193	16116
840.33	16082
840.467	16082
840.604	16048
840.742	16390
840.879	15835
841.016	15949
841.153	16074
841.29	16207
841.427	16169
841.564	16128
841.701	16116
841.838	16135
841.975	15983
842.112	16055
842.249	15880
842.385	15812
842.522	16059
842.659	15873
842.796	15797
842.933	15903
843.069	15781
843.206	15778
843.343	15892
843.479	15865
843.616	15964
843.752	15641
843.889	15633
844.025	15781
844.162	15599
844.298	15667
844.435	15538
844.571	15660
844.708	15797
844.844	15797
844.98	15819
845.117	15770
845.253	15591
845.389	15564
845.525	15595
845.661	15564
845.798	15572
845.934	15454
846.07	15431
846.206	15530
846.342	15538
846.478	15500
846.614	15298
846.75	15249
846.886	15199
847.022	15287
847.158	15249
847.294	15203
847.429	15317
847.565	15188
847.701	15428
847.837	15009
847.972	14929
848.108	15108
848.244	15047
848.379	14853
848.515	14834
848.65	14686
848.786	14686
848.921	14826
849.057	14891
849.192	14845
849.328	14781
849.463	14807
849.598	14788
849.734	14712
849.869	14686
850.004	14720
850.14	14556
850.275	14571
850.41	14476
850.545	14556
850.68	14610
850.815	14511
850.95	14583
851.085	14693
851.22	14750
851.355	14663
851.49	14549
851.625	14442
851.76	14625
851.895	14396
852.03	14377
852.165	14469
852.299	14602
852.434	14651
852.569	14575
852.703	14629
852.838	14674
852.973	14693
853.107	14724
853.242	14560
853.376	14431
853.511	14294
853.645	14389
853.78	14473
853.914	14446
854.048	14385
854.183	14427
854.317	14385
854.451	14610
854.585	14454
854.72	14480
854.854	14473
854.988	14336
855.122	14423
855.256	14290
855.39	14301
855.524	14499
855.658	14503
855.792	14492
855.926	14415
856.06	14518
856.194	14587
856.327	14488
856.461	14389
856.595	14454
856.729	14454
856.862	14537
856.996	14514
857.13	14507
857.263	14488
857.397	14594
857.53	14568
857.664	14476
857.797	14492
857.931	14636
858.064	14556
858.197	14507
858.331	14503
858.464	14461
858.597	14309
858.731	14419
858.864	14347
858.997	14385
859.13	14473
859.263	14499
859.396	14457
859.529	14332
859.662	14495
859.795	14396
859.928	14408
860.061	14644
860.194	14575
860.327	14469
860.46	14446
860.592	14571
860.725	14598
860.858	14545
860.99	14317
861.123	14457
861.256	14362
861.388	14450
861.521	14960
861.653	14313
861.786	14240
861.918	14313
862.05	14263
862.183	14290
862.315	14404
862.447	14476
862.58	14488
862.712	14218
862.844	14111
862.976	14210
863.108	14313
863.24	14655
863.372	14054
863.504	14164
863.636	14267
863.768	14263
863.9	14168
864.032	14096
864.164	14221
864.296	14195
864.428	14298
864.559	14317
864.691	14301
864.823	14221
864.954	14244
865.086	14301
865.217	14183
865.349	14100
865.48	14164
865.612	14256
865.743	14347
865.875	14210
866.006	14164
866.137	14214
866.269	14290
866.4	14180
866.531	14092
866.662	14123
866.793	14195
866.924	14138
867.055	14111
867.186	14225
867.317	14195
867.448	14008
867.579	14134
867.71	14100
867.841	14073
867.972	14282
868.103	14172
868.233	14237
868.364	14183
868.495	14252
868.625	14423
868.756	14518
868.886	14336
869.017	14400
869.147	14541
869.278	14606
869.408	14370
869.539	14419
869.669	14663
869.799	14446
869.929	14476
870.06	14560
870.19	14887
870.32	14686
870.45	14811
870.58	14758
870.71	14838
870.84	14914
870.97	14750
871.1	14868
871.23	14979
871.36	15085
871.489	14956
871.619	14986
871.749	15032
871.879	15100
872.008	15161
872.138	15032
872.267	15005
872.397	15005
872.526	14902
872.656	14861
872.785	14933
872.915	15058
873.044	15089
873.173	15043
873.303	15024
873.432	15055
873.561	15199
873.69	15055
873.819	15039
873.948	15097
874.077	15176
874.206	15154
874.335	15024
874.464	15302
874.593	15454
874.722	15283
874.851	15477
874.979	15435
875.108	15363
875.237	15294
875.365	15382
875.494	15393
875.623	15355
875.751	15431
875.88	15519
876.008	15625
876.136	15686
876.265	15816
876.393	15945
876.521	15880
876.65	15907
876.778	15842
876.906	15827
877.034	15827
877.162	15736
877.29	15797
877.418	15873
877.546	15785
877.674	15755
877.802	15789
877.93	15781
878.058	15926
878.185	15671
878.313	15899
878.441	15854
878.568	15671
878.696	15728
878.824	15918
878.951	15880
879.079	16017
879.206	16063
879.333	15994
879.461	15911
879.588	15846
879.715	15994
879.842	16097
879.97	15816
880.097	15686
880.224	15603
880.351	15663
880.478	15660
880.605	15644
880.732	15690
880.859	16010
880.986	15633
881.112	15644
881.239	15644
881.366	15477
881.493	15306
881.619	15340
881.746	15340
881.872	15336
881.999	15222
882.125	15275
882.252	15389
882.378	15355
882.505	15473
882.631	15306
882.757	15184
882.883	15230
883.01	15279
883.136	15020
883.262	14975
883.388	15066
883.514	15093
883.64	15146
883.766	15043
883.892	14948
884.018	14952
884.143	15085
884.269	15237
884.395	14891
884.52	14914
884.646	14887
884.772	14670
884.897	14735
885.023	14823
885.148	14963
885.274	15036
885.399	14944
885.524	14830
885.65	14834
885.775	14925
885.9	14845
886.025	15005
886.15	14823
886.275	14731
886.4	14845
886.525	14773
886.65	14743
886.775	14788
886.9	14971
887.025	15043
887.149	14800
887.274	14655
887.399	14571
887.523	14716
887.648	14602
887.773	14590
887.897	14773
888.021	14796
888.146	14720
888.27	14667
888.395	14773
888.519	14640
888.643	14663
888.767	14693
888.891	14663
889.015	14530
889.139	14549
889.263	14522
889.387	14678
889.511	14781
889.635	14632
889.759	14461
889.883	14442
890.006	14530
890.13	14651
890.254	14473
890.377	14484
890.501	14332
890.624	14332
890.748	14499
890.871	14240
890.995	14149
891.118	14039
891.241	14214
891.364	14134
891.488	14408
891.611	14199
891.734	14263
891.857	14275
891.98	14244
892.103	14263
892.226	14126
892.349	14187
892.471	14073
892.594	14077
892.717	14199
892.839	14214
892.962	14202
893.085	14298
893.207	14259
893.33	14054
893.452	14081
893.575	14252
893.697	14183
893.819	14320
893.941	14366
894.064	14301
894.186	14149
894.308	14153
894.43	14256
894.552	14434
894.674	14290
894.796	14218
894.918	14237
895.04	14252
895.161	14396
895.283	14336
895.405	14206
895.526	14263
895.648	14362
895.769	14389
895.891	14461
896.012	14457
896.134	14514
896.255	14324
896.376	14423
896.498	14389
896.619	14434
896.74	14450
896.861	14370
896.982	14716
897.103	14857
897.224	14746
897.345	14590
897.466	14568
897.587	14739
897.708	14746
897.828	14689
897.949	14716
898.07	14518
898.19	14598
898.311	14807
898.431	14743
898.552	14678
898.672	14823
898.792	14750
898.913	14811
899.033	14727
899.153	14568
899.273	14560
899.393	14632
899.513	14663
899.633	14594
899.753	14667
899.873	14575
899.993	14590
900.113	14545
900.232	14530
900.352	14579
900.472	14530
900.591	14393
900.711	14499
900.83	14419
900.95	14549
901.069	14556
901.189	14484
901.308	14278
901.427	14180
901.546	14103
901.665	14180
901.784	14153
901.904	14077
902.023	13841
902.141	13780
902.26	13719
902.379	13780
902.498	13696
902.617	13624
902.735	13712
902.854	13674
902.973	13632
903.091	13422
903.21	13453
903.328	13350
903.446	13384
903.565	13228
903.683	13278
903.801	13179
903.919	13285
904.038	13255
904.156	13156
904.274	13194
904.392	13080
904.51	13088
904.627	13129
904.745	13171
904.863	13190
904.981	12913
905.098	12821
905.216	12791
905.334	12871
905.451	12814
905.569	12753
905.686	12703
905.803	12844
905.921	12593
906.038	12669
906.155	12627
906.272	12540
906.389	12502
906.506	12205
906.623	12372
906.74	12304
906.857	12140
906.974	12251
907.091	12464
907.208	12490
907.324	12410
907.441	12281
907.557	12228
907.674	12125
907.79	12038
907.907	12091
908.023	12114
908.139	12136
908.256	12140
908.372	12049
908.488	11946
908.604	11889
908.72	11882
908.836	11901
908.952	11771
909.068	11954
909.184	11931
909.3	11828
909.415	11885
909.531	11760
909.647	11710
909.762	11661
909.878	11611
909.993	11615
910.108	11634
910.224	11554
910.339	11668
910.454	11497
910.57	11444
910.685	11524
910.8	11638
910.915	11577
911.03	11493
911.145	11258
911.259	11345
911.374	11410
911.489	11311
911.604	11216
911.718	11102
911.833	11113
911.947	10984
912.062	10850
912.176	11052
912.291	11003
912.405	11079
912.519	11254
912.633	11292
912.748	11136
912.862	11117
912.976	10976
913.09	10877
913.204	10934
913.318	10965
913.431	10987
913.545	10972
913.659	11071
913.772	10915
913.886	10843
914	10805
914.113	10946
914.226	10968
914.34	10995
914.453	10778
914.566	10965
914.68	10763
914.793	10771
914.906	10649
915.019	10599
915.132	10565
915.245	10455
915.358	10489
915.47	10634
915.583	10580
915.696	10611
915.809	10641
915.921	10694
916.034	10535
916.146	10546
916.259	10561
916.371	10580
916.483	10607
916.595	10504
916.708	10531
916.82	10478
916.932	10459
917.044	10455
917.156	10481
917.268	10352
917.38	10424
917.491	10417
917.603	10409
917.715	10428
917.826	10519
917.938	10390
918.049	10299
918.161	10421
918.272	10554
918.384	10607
918.495	10481
918.606	10291
918.717	10242
918.828	10333
918.939	10284
919.05	10207
919.161	10253
919.272	10101
919.383	10211
919.494	10299
919.604	10535
919.715	10325
919.826	10219
919.936	10246
920.047	10417
920.157	10341
920.267	10554
920.378	10257
920.488	10329
920.598	10527
920.708	10664
920.818	10455
920.928	10535
921.038	10653
921.148	10664
921.258	10379
921.368	10291
921.477	10188
921.587	10128
921.697	10090
921.806	10185
921.916	10040
922.025	9930
922.134	9941
922.244	9762
922.353	9918
922.462	9720
922.571	9743
922.68	9561
922.789	9477
922.898	9469
923.007	9500
923.116	9603
923.224	9538
923.333	9557
923.442	9367
923.55	9408
923.659	9443
923.767	9435
923.876	9428
923.984	9500
924.092	9336
924.201	9374
924.309	9408
924.417	9370
924.525	9310
924.633	9397
924.741	10280
924.849	9233
924.956	9408
925.064	9230
925.172	9085
925.279	9127
925.387	9211
925.494	9218
925.602	9382
925.709	9302
925.816	9119
925.924	9230
926.031	9287
926.138	9245
926.245	9245
926.352	9180
926.459	9253
926.566	9348
926.673	9169
926.779	9081
926.886	9028
926.993	8937
927.099	8963
927.206	8910
927.312	8914
927.419	8956
927.525	8883
927.631	9020
927.737	8830
927.843	8800
927.95	8781
928.056	8845
928.162	8823
928.267	8925
928.373	9332
928.479	8990
928.585	8693
928.69	8727
928.796	8864
928.901	8727
929.007	8610
929.112	8754
929.218	8682
929.323	8648
929.428	8621
929.533	8750
929.638	8602
929.743	8670
929.848	8606
929.953	8636
930.058	8465
930.163	8393
930.267	8427
930.372	8602
930.477	8408
930.581	8602
930.685	8457
930.79	8336
930.894	8366
930.998	8370
931.103	8412
931.207	8134
931.311	8126
931.415	7982
931.519	7860
931.623	7826
