Data from test_V78500241_2522.txt Node
Date: Fri Mar 25 14:51:16 CST 2022
User: usil
Spectrometer: V785-0024
Trigger mode: 0
Integration Time (sec): 4.000000E-1
Scans to average: 1
Nonlinearity correction enabled: false
Boxcar width: 0
Storing dark spectrum: false
XAxis mode: Wavelengths
Number of Pixels in Spectrum: 1024
>>>>>Begin Spectral Data<<<<<
801.071	22143
801.214	21994
801.356	21671
801.499	21667
801.641	21466
801.783	21420
801.926	21504
802.068	21435
802.211	21268
802.353	21218
802.496	21024
802.638	21009
802.78	20929
802.923	20819
803.065	20659
803.208	20632
803.35	20785
803.492	20762
803.635	20849
803.777	20765
803.919	20781
804.061	21020
804.204	20887
804.346	20788
804.488	20644
804.63	20819
804.773	20682
804.915	20632
805.057	20765
805.199	20712
805.341	20743
805.483	20800
805.626	20765
805.768	20575
805.91	20777
806.052	20590
806.194	20686
806.336	20804
806.478	20609
806.62	20564
806.762	20674
806.904	20815
807.046	21051
807.188	20937
807.33	21085
807.472	20952
807.614	20895
807.756	20883
807.898	20781
808.04	20663
808.182	20773
808.324	20834
808.465	20807
808.607	20906
808.749	21093
808.891	21043
809.033	21283
809.174	21081
809.316	21001
809.458	20979
809.6	21055
809.741	21081
809.883	21112
810.025	21233
810.166	21184
810.308	21218
810.45	21180
810.591	21081
810.733	20948
810.875	20765
811.016	20796
811.158	20579
811.299	20891
811.441	20857
811.582	20944
811.724	20887
811.865	20792
812.007	20769
812.148	20720
812.29	20727
812.431	20906
812.573	20921
812.714	21233
812.855	21264
812.997	21542
813.138	21450
813.279	21237
813.421	21222
813.562	21230
813.703	21096
813.845	20781
813.986	20796
814.127	20579
814.268	20423
814.41	20355
814.551	20408
814.692	20480
814.833	20263
814.974	20191
815.115	20400
815.256	20187
815.397	20233
815.539	20142
815.68	20115
815.821	20027
815.962	20062
816.103	20096
816.244	19921
816.385	19799
816.526	19871
816.666	19632
816.807	19422
816.948	19597
817.089	19658
817.23	19518
817.371	19449
817.512	19495
817.653	19506
817.793	19518
817.934	19544
818.075	19514
818.216	19552
818.356	19358
818.497	19320
818.638	19236
818.778	19213
818.919	19171
819.06	19343
819.2	19228
819.341	19312
819.481	19388
819.622	19495
819.762	19643
819.903	19476
820.043	19483
820.184	19499
820.324	19449
820.465	19628
820.605	19586
820.746	19430
820.886	19255
821.026	19388
821.167	19343
821.307	19407
821.447	19327
821.588	19225
821.728	19171
821.868	18973
822.008	18901
822.149	18817
822.289	18916
822.429	18597
822.569	18445
822.709	18593
822.849	18391
822.99	18285
823.13	18270
823.27	18441
823.41	18247
823.55	18068
823.69	18220
823.83	18129
823.97	18155
824.11	17961
824.25	17912
824.389	17958
824.529	18003
824.669	17984
824.809	18038
824.949	18026
825.089	17984
825.228	17961
825.368	17790
825.508	17798
825.648	17760
825.787	17779
825.927	17775
826.067	17726
826.206	17672
826.346	17760
826.485	17779
826.625	17630
826.765	17771
826.904	17779
827.044	17528
827.183	17539
827.323	17501
827.462	17467
827.601	17425
827.741	17463
827.88	17459
828.02	17307
828.159	17414
828.298	17433
828.437	17501
828.577	17410
828.716	17566
828.855	17459
828.994	17204
829.134	17174
829.273	17296
829.412	17197
829.551	17098
829.69	17197
829.829	17239
829.968	17299
830.107	17334
830.246	17181
830.385	17140
830.524	17071
830.663	17048
830.802	16869
830.941	16828
831.08	16771
831.219	16892
831.357	16866
831.496	17041
831.635	16866
831.774	16637
831.913	16763
832.051	16656
832.19	16626
832.329	16641
832.467	16630
832.606	16451
832.744	16497
832.883	16447
833.022	16466
833.16	16508
833.299	16516
833.437	16500
833.576	16531
833.714	16603
833.852	16584
833.991	16542
834.129	16599
834.267	16630
834.406	16542
834.544	16653
834.682	16615
834.821	16558
834.959	16694
835.097	16592
835.235	16641
835.373	16538
835.511	16565
835.65	16474
835.788	16516
835.926	16325
836.064	16257
836.202	16333
836.34	16508
836.478	16447
836.615	16493
836.753	16504
836.891	16584
837.029	16546
837.167	16432
837.305	16390
837.443	16329
837.58	16356
837.718	16447
837.856	16268
837.993	16375
838.131	16344
838.269	16310
838.406	16352
838.544	16284
838.681	16090
838.819	16032
838.956	15861
839.094	15865
839.231	15949
839.369	16029
839.506	16306
839.643	16200
839.781	15911
839.918	15800
840.055	15918
840.193	15842
840.33	15903
840.467	16029
840.604	15854
840.742	16101
840.879	15755
841.016	15770
841.153	15816
841.29	16044
841.427	15979
841.564	15987
841.701	15903
841.838	15743
841.975	15869
842.112	15797
842.249	15713
842.385	15606
842.522	15812
842.659	15747
842.796	15679
842.933	15728
843.069	15625
843.206	15633
843.343	15698
843.479	15720
843.616	15591
843.752	15515
843.889	15523
844.025	15610
844.162	15435
844.298	15599
844.435	15473
844.571	15443
844.708	15561
844.844	15705
844.98	15625
845.117	15603
845.253	15344
845.389	15298
845.525	15291
845.661	15325
845.798	15195
845.934	15279
846.07	15211
846.206	15363
846.342	15325
846.478	15283
846.614	14998
846.75	15047
846.886	15036
847.022	15081
847.158	15043
847.294	15017
847.429	15024
847.565	15074
847.701	15218
847.837	14796
847.972	14785
848.108	14902
848.244	14750
848.379	14625
848.515	14568
848.65	14686
848.786	14606
848.921	14708
849.057	14769
849.192	14674
849.328	14636
849.463	14674
849.598	14670
849.734	14552
849.869	14507
850.004	14385
850.14	14473
850.275	14434
850.41	14339
850.545	14412
850.68	14412
850.815	14347
850.95	14370
851.085	14522
851.22	14560
851.355	14427
851.49	14408
851.625	14317
851.76	14400
851.895	14229
852.03	14218
852.165	14370
852.299	14404
852.434	14545
852.569	14370
852.703	14343
852.838	14465
852.973	14526
853.107	14549
853.242	14366
853.376	14290
853.511	14130
853.645	14187
853.78	14396
853.914	14305
854.048	14328
854.183	14240
854.317	14256
854.451	14476
854.585	14294
854.72	14202
854.854	14347
854.988	14183
855.122	14229
855.256	14229
855.39	14419
855.524	14225
855.658	14366
855.792	14332
855.926	14286
856.06	14404
856.194	14385
856.327	14256
856.461	14195
856.595	14103
856.729	14161
856.862	14351
856.996	14275
857.13	14290
857.263	14442
857.397	14427
857.53	14286
857.664	14282
857.797	14339
857.931	14415
858.064	14305
858.197	14343
858.331	14233
858.464	14244
858.597	14237
858.731	14286
858.864	14240
858.997	14282
859.13	14309
859.263	14320
859.396	14374
859.529	14271
859.662	14172
859.795	14210
859.928	14328
860.061	14408
860.194	14412
860.327	14347
860.46	14336
860.592	14313
860.725	14320
860.858	14351
860.99	14259
861.123	14096
861.256	14164
861.388	14233
861.521	14788
861.653	14103
861.786	14065
861.918	14161
862.05	14157
862.183	14252
862.315	14286
862.447	14206
862.58	14248
862.712	14008
862.844	14062
862.976	14077
863.108	14069
863.24	14404
863.372	13986
863.504	14119
863.636	14088
863.768	14043
863.9	14005
864.032	13925
864.164	14031
864.296	14058
864.428	14103
864.559	14134
864.691	14180
864.823	14058
864.954	14111
865.086	14195
865.217	14111
865.349	13909
865.48	13993
865.612	14096
865.743	14214
865.875	13978
866.006	14024
866.137	14016
866.269	14001
866.4	14039
866.531	14039
866.662	13925
866.793	13989
866.924	13970
867.055	13993
867.186	13978
867.317	13982
867.448	13974
867.579	13951
867.71	13925
867.841	13928
867.972	13982
868.103	14062
868.233	14039
868.364	14039
868.495	14081
868.625	14286
868.756	14336
868.886	14195
869.017	14267
869.147	14434
869.278	14408
869.408	14351
869.539	14317
869.669	14290
869.799	14370
869.929	14412
870.06	14305
870.19	14621
870.32	14552
870.45	14621
870.58	14686
870.71	14712
870.84	14838
870.97	14636
871.1	14632
871.23	14891
871.36	14849
871.489	14743
871.619	14686
871.749	14849
871.879	14906
872.008	14941
872.138	14941
872.267	14823
872.397	14788
872.526	14640
872.656	14640
872.785	14746
872.915	14853
873.044	14960
873.173	14811
873.303	14918
873.432	14876
873.561	14982
873.69	14906
873.819	14910
873.948	15005
874.077	14899
874.206	14967
874.335	14941
874.464	15043
874.593	15203
874.722	15230
874.851	15287
874.979	15252
875.108	15252
875.237	15230
875.365	15104
875.494	15245
875.623	15272
875.751	15233
875.88	15233
876.008	15374
876.136	15629
876.265	15656
876.393	15857
876.521	15595
876.65	15690
876.778	15808
876.906	15614
877.034	15610
877.162	15675
877.29	15682
877.418	15625
877.546	15759
877.674	15584
877.802	15709
877.93	15663
878.058	15671
878.185	15561
878.313	15648
878.441	15690
878.568	15496
878.696	15545
878.824	15690
878.951	15732
879.079	15983
879.206	15922
879.333	15827
879.461	15720
879.588	15774
879.715	15762
879.842	15937
879.97	15671
880.097	15469
880.224	15481
880.351	15557
880.478	15523
880.605	15466
880.732	15542
880.859	15751
880.986	15568
881.112	15443
881.239	15382
881.366	15268
881.493	15169
881.619	15222
881.746	15157
881.872	15173
881.999	15138
882.125	15169
882.252	15218
882.378	15195
882.505	15226
882.631	15100
882.757	14986
882.883	15013
883.01	14941
883.136	14979
883.262	14868
883.388	14842
883.514	15051
883.64	14941
883.766	14960
883.892	14716
884.018	14785
884.143	15058
884.269	14963
884.395	14735
884.52	14632
884.646	14701
884.772	14568
884.897	14587
885.023	14682
885.148	14674
885.274	14861
885.399	14830
885.524	14792
885.65	14663
885.775	14625
885.9	14667
886.025	14804
886.15	14788
886.275	14590
886.4	14530
886.525	14632
886.65	14617
886.775	14651
886.9	14750
887.025	14834
887.149	14682
887.274	14579
887.399	14518
887.523	14469
887.648	14590
887.773	14404
887.897	14549
888.021	14537
888.146	14469
888.27	14537
888.395	14689
888.519	14495
888.643	14552
888.767	14610
888.891	14336
889.015	14309
889.139	14465
889.263	14332
889.387	14446
889.511	14629
889.635	14549
889.759	14389
889.883	14366
890.006	14438
890.13	14530
890.254	14244
890.377	14339
890.501	14214
890.624	14195
890.748	14218
890.871	14138
890.995	14157
891.118	14058
891.241	14130
891.364	14119
891.488	14145
891.611	14081
891.734	14073
891.857	14115
891.98	14065
892.103	14225
892.226	14145
892.349	14001
892.471	13887
892.594	14054
892.717	14187
892.839	14005
892.962	14039
893.085	14206
893.207	14073
893.33	14050
893.452	14054
893.575	14191
893.697	13997
893.819	14206
893.941	14313
894.064	14221
894.186	14100
894.308	14001
894.43	14176
894.552	14305
894.674	14221
894.796	14008
894.918	14176
895.04	14134
895.161	14126
895.283	14221
895.405	14138
895.526	14172
895.648	14195
895.769	14161
895.891	14278
896.012	14336
896.134	14305
896.255	14233
896.376	14240
896.498	14225
896.619	14183
896.74	14290
896.861	14301
896.982	14636
897.103	14705
897.224	14541
897.345	14408
897.466	14507
897.587	14537
897.708	14674
897.828	14518
897.949	14457
898.07	14404
898.19	14454
898.311	14648
898.431	14438
898.552	14674
898.672	14701
898.792	14773
898.913	14678
899.033	14495
899.153	14385
899.273	14324
899.393	14476
899.513	14450
899.633	14537
899.753	14518
899.873	14370
899.993	14518
900.113	14415
900.232	14469
900.352	14434
900.472	14343
900.591	14336
900.711	14252
900.83	14267
900.95	14480
901.069	14339
901.189	14263
901.308	13978
901.427	14039
901.546	13993
901.665	14031
901.784	14016
901.904	13852
902.023	13799
902.141	13533
902.26	13525
902.379	13658
902.498	13502
902.617	13445
902.735	13624
902.854	13582
902.973	13445
903.091	13259
903.21	13400
903.328	13209
903.446	13114
903.565	13084
903.683	13065
903.801	12985
903.919	13107
904.038	13034
904.156	12924
904.274	12989
904.392	12901
904.51	12863
904.627	12932
904.745	12924
904.863	12920
904.981	12764
905.098	12646
905.216	12547
905.334	12650
905.451	12673
905.569	12582
905.686	12684
905.803	12631
905.921	12464
906.038	12540
906.155	12486
906.272	12380
906.389	12490
906.506	12228
906.623	12186
906.74	12182
906.857	12110
906.974	12159
907.091	12338
907.208	12292
907.324	12239
907.441	12228
907.557	11988
907.674	11980
907.79	12003
907.907	12034
908.023	12038
908.139	12102
908.256	11988
908.372	11992
908.488	11927
908.604	11840
908.72	11676
908.836	11786
908.952	11802
909.068	11764
909.184	11908
909.3	11771
909.415	11843
909.531	11912
909.647	11558
909.762	11581
909.878	11433
909.993	11516
910.108	11493
910.224	11459
910.339	11471
910.454	11421
910.57	11353
910.685	11353
910.8	11585
910.915	11490
911.03	11452
911.145	11261
911.259	11231
911.374	11242
911.489	11102
911.604	11193
911.718	11090
911.833	11033
911.947	10892
912.062	10786
912.176	10938
912.291	11048
912.405	10934
912.519	11132
912.633	11178
912.748	11003
912.862	10976
912.976	10873
913.09	10835
913.204	10866
913.318	10919
913.431	11018
913.545	10904
913.659	11006
913.772	10850
913.886	10782
914	10721
914.113	10877
914.226	10919
914.34	10850
914.453	10698
914.566	10854
914.68	10767
914.793	10649
914.906	10508
915.019	10466
915.132	10451
915.245	10485
915.358	10500
915.47	10531
915.583	10527
915.696	10550
915.809	10694
915.921	10653
916.034	10459
916.146	10481
916.259	10428
916.371	10535
916.483	10592
916.595	10402
916.708	10470
916.82	10459
916.932	10371
917.044	10504
917.156	10352
917.268	10299
917.38	10417
917.491	10257
917.603	10337
917.715	10455
917.826	10462
917.938	10360
918.049	10219
918.161	10363
918.272	10500
918.384	10348
918.495	10360
918.606	10253
918.717	10166
918.828	10276
918.939	10265
919.05	10078
919.161	10169
919.272	9956
919.383	10071
919.494	10261
919.604	10379
919.715	10227
919.826	10135
919.936	10150
920.047	10303
920.157	10284
920.267	10440
920.378	10295
920.488	10268
920.598	10405
920.708	10637
920.818	10421
920.928	10459
921.038	10592
921.148	10561
921.258	10200
921.368	10234
921.477	10105
921.587	10013
921.697	9998
921.806	10086
921.916	10010
922.025	9816
922.134	9835
922.244	9797
922.353	9842
922.462	9732
922.571	9587
922.68	9526
922.789	9466
922.898	9500
923.007	9428
923.116	9507
923.224	9523
923.333	9389
923.442	9386
923.55	9321
923.659	9317
923.767	9431
923.876	9351
923.984	9447
924.092	9279
924.201	9386
924.309	9355
924.417	9447
924.525	9294
924.633	9344
924.741	10234
924.849	9055
924.956	9408
925.064	9150
925.172	9062
925.279	9116
925.387	9112
925.494	9127
925.602	9283
925.709	9188
925.816	9116
925.924	9119
926.031	9218
926.138	9176
926.245	9199
926.352	9036
926.459	9173
926.566	9211
926.673	9135
926.779	9017
926.886	8994
926.993	8823
927.099	8876
927.206	8918
927.312	8731
927.419	8853
927.525	8910
927.631	8944
927.737	8731
927.843	8762
927.95	8613
928.056	8697
928.162	8727
928.267	8788
928.373	9420
928.479	8883
928.585	8674
928.69	8743
928.796	8746
928.901	8655
929.007	8556
929.112	8731
929.218	8651
929.323	8659
929.428	8473
929.533	8735
929.638	8530
929.743	8560
929.848	8571
929.953	8560
930.058	8484
930.163	8317
930.267	8317
930.372	8518
930.477	8385
930.581	8610
930.685	8400
930.79	8267
930.894	8252
930.998	8271
931.103	8351
931.207	8069
931.311	7959
931.415	8008
931.519	7811
931.623	7776
