Data from test_V78500241_123.txt Node
Date: Fri Mar 25 14:34:34 CST 2022
User: usil
Spectrometer: V785-0024
Trigger mode: 0
Integration Time (sec): 4.000000E-1
Scans to average: 1
Nonlinearity correction enabled: false
Boxcar width: 0
Storing dark spectrum: false
XAxis mode: Wavelengths
Number of Pixels in Spectrum: 1024
>>>>>Begin Spectral Data<<<<<
801.071	30045
801.214	30022
801.356	29729
801.499	29695
801.641	29421
801.783	29341
801.926	29524
802.068	29463
802.211	29341
802.353	29193
802.496	29162
802.638	29132
802.78	29204
802.923	29155
803.065	29086
803.208	29162
803.35	29064
803.492	29140
803.635	29372
803.777	29277
803.919	29395
804.061	29627
804.204	29334
804.346	29448
804.488	29280
804.63	29231
804.773	29303
804.915	29516
805.057	29589
805.199	29562
805.341	29741
805.483	29756
805.626	29840
805.768	29798
805.91	30098
806.052	30163
806.194	30110
806.336	30334
806.478	30361
806.62	30418
806.762	30650
806.904	31027
807.046	31578
807.188	31784
807.33	32077
807.472	32560
807.614	33207
807.756	33751
807.898	34538
808.04	35577
808.182	37202
808.324	38994
808.465	41452
808.607	44016
808.749	46139
808.891	47444
809.033	47509
809.174	46166
809.316	44259
809.458	41307
809.6	38838
809.741	36894
809.883	35307
810.025	34322
810.166	33416
810.308	32861
810.45	32294
810.591	31826
810.733	31552
810.875	31038
811.016	31061
811.158	30829
811.299	30821
811.441	30661
811.582	30658
811.724	30384
811.865	30327
812.007	30258
812.148	30148
812.29	30060
812.431	30216
812.573	30194
812.714	30342
812.855	30308
812.997	30429
813.138	30745
813.279	30346
813.421	30346
813.562	30224
813.703	30064
813.845	29927
813.986	29649
814.127	29360
814.268	29364
814.41	29261
814.551	29124
814.692	29322
814.833	29022
814.974	29170
815.115	29075
815.256	28908
815.397	28942
815.539	28972
815.68	28812
815.821	28664
815.962	28717
816.103	28694
816.244	28478
816.385	28500
816.526	28443
816.666	28280
816.807	28162
816.948	28105
817.089	28158
817.23	28135
817.371	28036
817.512	28006
817.653	28025
817.793	27945
817.934	28036
818.075	28048
818.216	28025
818.356	27861
818.497	27861
818.638	27504
818.778	27671
818.919	27686
819.06	27694
819.2	27873
819.341	27964
819.481	27808
819.622	28048
819.762	28124
819.903	28040
820.043	27975
820.184	28002
820.324	27956
820.465	27819
820.605	27949
820.746	27743
820.886	27660
821.026	27743
821.167	27812
821.307	27800
821.447	27713
821.588	27488
821.728	27378
821.868	27165
822.008	27108
822.149	27074
822.289	27176
822.429	26815
822.569	26716
822.709	26743
822.849	26648
822.99	26423
823.13	26552
823.27	26442
823.41	26275
823.55	26206
823.69	26328
823.83	26366
823.97	26366
824.11	26046
824.25	26031
824.389	26092
824.529	26183
824.669	26225
824.809	26240
824.949	26244
825.089	26096
825.228	26065
825.368	25959
825.508	25883
825.648	25928
825.787	25913
825.927	25871
826.067	25830
826.206	25772
826.346	25955
826.485	25837
826.625	25845
826.765	26016
826.904	25894
827.044	25731
827.183	25594
827.323	25510
827.462	25563
827.601	25483
827.741	25487
827.88	25514
828.02	25156
828.159	25529
828.298	25365
828.437	25628
828.577	25464
828.716	25510
828.855	25445
828.994	25190
829.134	25244
829.273	25259
829.412	25278
829.551	25133
829.69	25190
829.829	25209
829.968	25141
830.107	25168
830.246	25145
830.385	25133
830.524	25114
830.663	24939
830.802	24985
830.941	24719
831.08	24601
831.219	24810
831.357	24970
831.496	25015
831.635	24601
831.774	24631
831.913	24673
832.051	24715
832.19	24593
832.329	24528
832.467	24509
832.606	24467
832.744	24494
832.883	24639
833.022	24612
833.16	24795
833.299	24707
833.437	24814
833.576	24947
833.714	25038
833.852	25331
833.991	25312
834.129	25384
834.267	25335
834.406	25350
834.544	25247
834.682	25168
834.821	25103
834.959	25088
835.097	24684
835.235	24795
835.373	24631
835.511	24738
835.65	24426
835.788	24559
835.926	24232
836.064	24049
836.202	24087
836.34	24209
836.478	24289
836.615	24159
836.753	24174
836.891	24213
837.029	24277
837.167	24155
837.305	24114
837.443	23977
837.58	24007
837.718	23980
837.856	23942
837.993	23961
838.131	23969
838.269	23813
838.406	23958
838.544	23722
838.681	23570
838.819	23524
838.956	23337
839.094	23406
839.231	23433
839.369	23562
839.506	23646
839.643	23619
839.781	23417
839.918	23368
840.055	23311
840.193	23227
840.33	23151
840.467	23269
840.604	23250
840.742	23554
840.879	23102
841.016	23159
841.153	23075
841.29	23292
841.427	23307
841.564	23235
841.701	23318
841.838	23239
841.975	23292
842.112	23189
842.249	23041
842.385	22949
842.522	23136
842.659	23121
842.796	23128
842.933	23029
843.069	23064
843.206	22991
843.343	23109
843.479	23143
843.616	23208
843.752	22911
843.889	22968
844.025	23231
844.162	23044
844.298	23231
844.435	23200
844.571	23520
844.708	23577
844.844	23923
844.98	24327
845.117	24749
845.253	25335
845.389	26800
845.525	29436
845.661	33568
845.798	38811
845.934	42825
846.07	44259
846.206	43308
846.342	39652
846.478	34596
846.614	30114
846.75	27161
846.886	25521
847.022	24414
847.158	23767
847.294	23436
847.429	23132
847.565	22755
847.701	22839
847.837	22417
847.972	22287
848.108	22284
848.244	22185
848.379	22093
848.515	21857
848.65	21937
848.786	21918
848.921	22013
849.057	21949
849.192	21895
849.328	21880
849.463	21949
849.598	21823
849.734	21781
849.869	21694
850.004	21557
850.14	21663
850.275	21595
850.41	21504
850.545	21500
850.68	21526
850.815	21507
850.95	21595
851.085	21629
851.22	21652
851.355	21549
851.49	21526
851.625	21526
851.76	21340
851.895	21370
852.03	21393
852.165	21405
852.299	21473
852.434	21496
852.569	21644
852.703	21553
852.838	21538
852.973	21564
853.107	21572
853.242	21553
853.376	21568
853.511	21348
853.645	21412
853.78	21603
853.914	21542
854.048	21576
854.183	21652
854.317	21694
854.451	21766
854.585	21679
854.72	21526
854.854	21690
854.988	21519
855.122	21500
855.256	21473
855.39	21408
855.524	21561
855.658	21374
855.792	21416
855.926	21382
856.06	21279
856.194	21340
856.327	21218
856.461	21211
856.595	21252
856.729	21317
856.862	21256
856.996	21336
857.13	21355
857.263	21408
857.397	21325
857.53	21222
857.664	21393
857.797	21370
857.931	21283
858.064	21256
858.197	21199
858.331	21142
858.464	21108
858.597	21165
858.731	21032
858.864	21268
858.997	21020
859.13	21195
859.263	21176
859.396	21298
859.529	21161
859.662	21138
859.795	20967
859.928	21089
860.061	21351
860.194	21214
860.327	21085
860.46	21173
860.592	21203
860.725	21211
860.858	21116
860.99	21081
861.123	21032
861.256	20929
861.388	21161
861.521	21747
861.653	21001
861.786	20960
861.918	21047
862.05	21119
862.183	21104
862.315	21104
862.447	21233
862.58	21104
862.712	20891
862.844	20963
862.976	20960
863.108	20906
863.24	21218
863.372	20826
863.504	20765
863.636	20807
863.768	20689
863.9	20849
864.032	20705
864.164	20773
864.296	20853
864.428	20838
864.559	20750
864.691	20857
864.823	20689
864.954	20667
865.086	20777
865.217	20651
865.349	20564
865.48	20712
865.612	20648
865.743	20705
865.875	20727
866.006	20625
866.137	20594
866.269	20655
866.4	20705
866.531	20663
866.662	20632
866.793	20613
866.924	20632
867.055	20720
867.186	20743
867.317	20560
867.448	20480
867.579	20499
867.71	20503
867.841	20450
867.972	20678
868.103	20769
868.233	20579
868.364	20765
868.495	20625
868.625	20918
868.756	20960
868.886	20655
869.017	20773
869.147	20830
869.278	20967
869.408	20815
869.539	20861
869.669	20994
869.799	20963
869.929	20990
870.06	20941
870.19	21169
870.32	21112
870.45	21104
870.58	21348
870.71	21332
870.84	21378
870.97	21291
871.1	21245
871.23	21553
871.36	21469
871.489	21405
871.619	21511
871.749	21473
871.879	21450
872.008	21652
872.138	21606
872.267	21564
872.397	21515
872.526	21351
872.656	21469
872.785	21466
872.915	21797
873.044	21698
873.173	21507
873.303	21724
873.432	21660
873.561	21781
873.69	21781
873.819	21774
873.948	21774
874.077	21880
874.206	21812
874.335	21781
874.464	21949
874.593	22162
874.722	22067
874.851	22192
874.979	22268
875.108	22234
875.237	22268
875.365	22074
875.494	22375
875.623	22344
875.751	22402
875.88	22485
876.008	22485
876.136	22706
876.265	22725
876.393	22980
876.521	22995
876.65	23064
876.778	23239
876.906	23121
877.034	22972
877.162	23235
877.29	23132
877.418	23166
877.546	23406
877.674	23429
877.802	23463
877.93	23566
878.058	23653
878.185	23687
878.313	24015
878.441	24296
878.568	24513
878.696	24913
878.824	25708
878.951	26564
879.079	27751
879.206	29162
879.333	30810
879.461	32050
879.588	32891
879.715	33043
879.842	32282
879.97	30776
880.097	29178
880.224	27880
880.351	27058
880.478	26301
880.605	25955
880.732	25628
880.859	25769
880.986	25240
881.112	25388
881.239	25091
881.366	24863
881.493	24882
881.619	24779
881.746	24886
881.872	24753
881.999	24791
882.125	24833
882.252	25000
882.378	24878
882.505	25080
882.631	24768
882.757	24722
882.883	24844
883.01	24627
883.136	24852
883.262	24635
883.388	24620
883.514	24681
883.64	24833
883.766	24585
883.892	24479
884.018	24353
884.143	24642
884.269	24711
884.395	24559
884.52	24410
884.646	24426
884.772	24395
884.897	24209
885.023	24353
885.148	24433
885.274	24445
885.399	24361
885.524	24152
885.65	24011
885.775	23969
885.9	23855
886.025	23935
886.15	23741
886.275	23653
886.4	23429
886.525	23318
886.65	23159
886.775	23128
886.9	23174
887.025	23345
887.149	22843
887.274	22710
887.399	22557
887.523	22508
887.648	22390
887.773	22234
887.897	22538
888.021	22428
888.146	22280
888.27	22234
888.395	22333
888.519	22215
888.643	22196
888.767	22067
888.891	21960
889.015	21899
889.139	21762
889.263	21812
889.387	21766
889.511	21797
889.635	21610
889.759	21561
889.883	21580
890.006	21572
890.13	21610
890.254	21431
890.377	21325
890.501	21321
890.624	21207
890.748	21184
890.871	21104
890.995	21020
891.118	20990
891.241	20941
891.364	20921
891.488	21039
891.611	20853
891.734	20807
891.857	20975
891.98	20796
892.103	20872
892.226	20823
892.349	20602
892.471	20625
892.594	20644
892.717	20659
892.839	20568
892.962	20670
893.085	20640
893.207	20488
893.33	20419
893.452	20431
893.575	20454
893.697	20404
893.819	20514
893.941	20651
894.064	20488
894.186	20282
894.308	20180
894.43	20381
894.552	20423
894.674	20366
894.796	20282
894.918	20237
895.04	20294
895.161	20244
895.283	20252
895.405	20149
895.526	20145
895.648	20218
895.769	20218
895.891	20221
896.012	20244
896.134	20187
896.255	20134
896.376	20039
896.498	20126
896.619	20153
896.74	20065
896.861	20282
896.982	20404
897.103	20564
897.224	20450
897.345	20366
897.466	20218
897.587	20225
897.708	20389
897.828	20408
897.949	20195
898.07	20065
898.19	20199
898.311	20343
898.431	20317
898.552	20267
898.672	20240
898.792	20259
898.913	20240
899.033	20107
899.153	19963
899.273	19830
899.393	19932
899.513	19978
899.633	20043
899.753	19906
899.873	19841
899.993	19978
900.113	19852
900.232	19921
900.352	19826
900.472	19841
900.591	19742
900.711	19841
900.83	19712
900.95	19868
901.069	19845
901.189	19628
901.308	19350
901.427	19331
901.546	19308
901.665	19320
901.784	19331
901.904	19107
902.023	19031
902.141	18802
902.26	18703
902.379	18798
902.498	18856
902.617	18734
902.735	18886
902.854	18642
902.973	18673
903.091	18486
903.21	18559
903.328	18407
903.446	18323
903.565	18155
903.683	18110
903.801	18060
903.919	18053
904.038	18049
904.156	17889
904.274	17885
904.392	17878
904.51	17798
904.627	17916
904.745	18038
904.863	17961
904.981	17604
905.098	17497
905.216	17539
905.334	17455
905.451	17554
905.569	17539
905.686	17600
905.803	17421
905.921	17292
906.038	17315
906.155	17387
906.272	17136
906.389	17189
906.506	17033
906.623	17003
906.74	17045
906.857	16995
906.974	16930
907.091	17079
907.208	17113
907.324	17033
907.441	16911
907.557	16786
907.674	16691
907.79	16733
907.907	16596
908.023	16672
908.139	16721
908.256	16599
908.372	16558
908.488	16531
908.604	16451
908.72	16333
908.836	16310
908.952	16325
909.068	16409
909.184	16580
909.3	16470
909.415	16299
909.531	16352
909.647	16162
909.762	16044
909.878	16025
909.993	16120
910.108	16101
910.224	15994
910.339	16032
910.454	15873
910.57	15972
910.685	15827
910.8	16044
910.915	16010
911.03	15911
911.145	15770
911.259	15755
911.374	15603
911.489	15561
911.604	15644
911.718	15351
911.833	15538
911.947	15321
912.062	15275
912.176	15363
912.291	15416
912.405	15374
912.519	15542
912.633	15576
912.748	15443
912.862	15386
912.976	15272
913.09	15138
913.204	15173
913.318	15233
913.431	15260
913.545	15310
913.659	15367
913.772	15150
913.886	15051
914	15032
914.113	15112
914.226	15252
914.34	15127
914.453	14986
914.566	15028
914.68	14990
914.793	14895
914.906	14807
915.019	14754
915.132	14762
915.245	14716
915.358	14674
915.47	14724
915.583	14807
915.696	14686
915.809	14716
915.921	14800
916.034	14667
916.146	14587
916.259	14594
916.371	14693
916.483	14686
916.595	14526
916.708	14587
916.82	14686
916.932	14621
917.044	14518
917.156	14503
917.268	14393
917.38	14412
917.491	14317
917.603	14381
917.715	14438
917.826	14408
917.938	14278
918.049	14081
918.161	14290
918.272	14454
918.384	14434
918.495	14317
918.606	14142
918.717	14100
918.828	14157
918.939	14073
919.05	13982
919.161	14046
919.272	13833
919.383	13978
919.494	14065
919.604	14229
919.715	14100
919.826	13776
919.936	14005
920.047	14134
920.157	14035
920.267	14225
920.378	14012
920.488	13875
920.598	14191
920.708	14180
920.818	13997
920.928	14153
921.038	14298
921.148	14240
921.258	13989
921.368	13909
921.477	13772
921.587	13799
921.697	13613
921.806	13818
921.916	13662
922.025	13445
922.134	13392
922.244	13365
922.353	13457
922.462	13266
922.571	13206
922.68	13053
922.789	13008
922.898	13099
923.007	12973
923.116	13072
923.224	12985
923.333	13038
923.442	12856
923.55	12768
923.659	12863
923.767	12894
923.876	12795
923.984	12909
924.092	12825
924.201	12776
924.309	12768
924.417	12741
924.525	12692
924.633	12757
924.741	13567
924.849	12483
924.956	12722
925.064	12467
925.172	12414
925.279	12456
925.387	12593
925.494	12471
925.602	12582
925.709	12593
925.816	12372
925.924	12407
926.031	12555
926.138	12380
926.245	12422
926.352	12209
926.459	12441
926.566	12506
926.673	12342
926.779	12232
926.886	12251
926.993	12102
927.099	12087
927.206	11969
927.312	11954
927.419	12034
927.525	12129
927.631	12034
927.737	11847
927.843	11893
927.95	11783
928.056	11874
928.162	11866
928.267	11973
928.373	12384
928.479	11958
928.585	11771
928.69	11908
928.796	11870
928.901	11722
929.007	11665
929.112	11615
929.218	11695
929.323	11676
929.428	11585
929.533	11684
929.638	11497
929.743	11570
929.848	11672
929.953	11539
930.058	11520
930.163	11284
930.267	11349
930.372	11433
930.477	11216
930.581	11516
930.685	11429
930.79	11181
930.894	11235
930.998	11170
931.103	11277
931.207	10885
931.311	10858
931.415	10740
931.519	10683
931.623	10535
