Data from test_V78500241_2292.txt Node
Date: Fri Mar 25 14:49:40 CST 2022
User: usil
Spectrometer: V785-0024
Trigger mode: 0
Integration Time (sec): 4.000000E-1
Scans to average: 1
Nonlinearity correction enabled: false
Boxcar width: 0
Storing dark spectrum: false
XAxis mode: Wavelengths
Number of Pixels in Spectrum: 1024
>>>>>Begin Spectral Data<<<<<
801.071	22200
801.214	22082
801.356	21888
801.499	21644
801.641	21690
801.783	21523
801.926	21519
802.068	21488
802.211	21477
802.353	21386
802.496	21131
802.638	20998
802.78	21032
802.923	21062
803.065	20906
803.208	20811
803.35	20925
803.492	21055
803.635	21070
803.777	20826
803.919	21005
804.061	21150
804.204	20967
804.346	20746
804.488	20807
804.63	20819
804.773	20693
804.915	20895
805.057	20998
805.199	20781
805.341	20883
805.483	20891
805.626	20815
805.768	20750
805.91	20902
806.052	20899
806.194	20769
806.336	20933
806.478	20838
806.62	20693
806.762	20834
806.904	21062
807.046	21268
807.188	21058
807.33	21176
807.472	21112
807.614	21009
807.756	21074
807.898	20982
808.04	20914
808.182	20906
808.324	20887
808.465	20902
808.607	21024
808.749	21249
808.891	21306
809.033	21447
809.174	21241
809.316	21176
809.458	21150
809.6	21131
809.741	21313
809.883	21256
810.025	21420
810.166	21340
810.308	21481
810.45	21245
810.591	21184
810.733	21184
810.875	20960
811.016	20895
811.158	20876
811.299	21001
811.441	21032
811.582	21131
811.724	20971
811.865	20861
812.007	20883
812.148	20948
812.29	20952
812.431	21138
812.573	21264
812.714	21393
812.855	21477
812.997	21656
813.138	21652
813.279	21580
813.421	21488
813.562	21344
813.703	21161
813.845	21135
813.986	20876
814.127	20640
814.268	20579
814.41	20594
814.551	20537
814.692	20579
814.833	20408
814.974	20518
815.115	20533
815.256	20332
815.397	20404
815.539	20366
815.68	20381
815.821	20138
815.962	20218
816.103	20240
816.244	20008
816.385	19917
816.526	20035
816.666	19769
816.807	19700
816.948	19814
817.089	19811
817.23	19734
817.371	19628
817.512	19670
817.653	19677
817.793	19715
817.934	19601
818.075	19689
818.216	19677
818.356	19685
818.497	19419
818.638	19137
818.778	19206
818.919	19297
819.06	19304
819.2	19400
819.341	19476
819.481	19548
819.622	19575
819.762	19765
819.903	19693
820.043	19628
820.184	19635
820.324	19613
820.465	19780
820.605	19662
820.746	19605
820.886	19464
821.026	19601
821.167	19613
821.307	19693
821.447	19468
821.588	19453
821.728	19320
821.868	19164
822.008	18977
822.149	18962
822.289	19027
822.429	18783
822.569	18677
822.709	18700
822.849	18544
822.99	18448
823.13	18563
823.27	18467
823.41	18266
823.55	18262
823.69	18380
823.83	18388
823.97	18308
824.11	18091
824.25	18064
824.389	18095
824.529	18133
824.669	18266
824.809	18190
824.949	18171
825.089	18095
825.228	18110
825.368	17897
825.508	17798
825.648	17920
825.787	17813
825.927	17939
826.067	17752
826.206	17817
826.346	17920
826.485	17859
826.625	17885
826.765	17878
826.904	17939
827.044	17562
827.183	17436
827.323	17570
827.462	17528
827.601	17596
827.741	17615
827.88	17524
828.02	17322
828.159	17406
828.298	17414
828.437	17577
828.577	17478
828.716	17604
828.855	17414
828.994	17250
829.134	17246
829.273	17406
829.412	17254
829.551	17204
829.69	17269
829.829	17360
829.968	17433
830.107	17383
830.246	17330
830.385	17330
830.524	17246
830.663	17071
830.802	17018
830.941	16976
831.08	16911
831.219	16908
831.357	16927
831.496	17045
831.635	16889
831.774	16858
831.913	16847
832.051	16702
832.19	16649
832.329	16729
832.467	16618
832.606	16459
832.744	16508
832.883	16531
833.022	16554
833.16	16592
833.299	16691
833.437	16691
833.576	16561
833.714	16615
833.852	16717
833.991	16668
834.129	16706
834.267	16679
834.406	16710
834.544	16588
834.682	16748
834.821	16653
834.959	16820
835.097	16607
835.235	16672
835.373	16641
835.511	16664
835.65	16519
835.788	16405
835.926	16360
836.064	16276
836.202	16261
836.34	16668
836.478	16584
836.615	16432
836.753	16523
836.891	16599
837.029	16611
837.167	16504
837.305	16485
837.443	16402
837.58	16314
837.718	16573
837.856	16356
837.993	16386
838.131	16299
838.269	16272
838.406	16291
838.544	16272
838.681	16093
838.819	16071
838.956	15911
839.094	15846
839.231	15979
839.369	15964
839.506	16272
839.643	16154
839.781	15861
839.918	15838
840.055	15903
840.193	15926
840.33	15869
840.467	15873
840.604	15926
840.742	16109
840.879	15823
841.016	15861
841.153	15797
841.29	16021
841.427	16086
841.564	15956
841.701	15934
841.838	15876
841.975	15857
842.112	15739
842.249	15732
842.385	15580
842.522	15941
842.659	15838
842.796	15728
842.933	15762
843.069	15606
843.206	15690
843.343	15819
843.479	15660
843.616	15656
843.752	15526
843.889	15618
844.025	15656
844.162	15355
844.298	15557
844.435	15538
844.571	15443
844.708	15507
844.844	15709
844.98	15603
845.117	15614
845.253	15378
845.389	15382
845.525	15481
845.661	15397
845.798	15218
845.934	15298
846.07	15214
846.206	15195
846.342	15431
846.478	15355
846.614	15188
846.75	14994
846.886	15058
847.022	15207
847.158	15051
847.294	15097
847.429	15085
847.565	14963
847.701	15298
847.837	14830
847.972	14678
848.108	14880
848.244	14849
848.379	14708
848.515	14693
848.65	14568
848.786	14636
848.921	14689
849.057	14773
849.192	14739
849.328	14697
849.463	14670
849.598	14533
849.734	14533
849.869	14507
850.004	14492
850.14	14503
850.275	14476
850.41	14358
850.545	14313
850.68	14431
850.815	14457
850.95	14423
851.085	14648
851.22	14427
851.355	14389
851.49	14381
851.625	14412
851.76	14408
851.895	14275
852.03	14282
852.165	14358
852.299	14419
852.434	14533
852.569	14526
852.703	14465
852.838	14442
852.973	14537
853.107	14499
853.242	14385
853.376	14248
853.511	14153
853.645	14275
853.78	14427
853.914	14240
854.048	14328
854.183	14252
854.317	14282
854.451	14374
854.585	14259
854.72	14252
854.854	14252
854.988	14298
855.122	14256
855.256	14157
855.39	14202
855.524	14309
855.658	14336
855.792	14271
855.926	14385
856.06	14339
856.194	14389
856.327	14347
856.461	14210
856.595	14309
856.729	14256
856.862	14347
856.996	14336
857.13	14366
857.263	14374
857.397	14450
857.53	14328
857.664	14221
857.797	14412
857.931	14476
858.064	14358
858.197	14377
858.331	14225
858.464	14263
858.597	14142
858.731	14157
858.864	14256
858.997	14313
859.13	14347
859.263	14328
859.396	14317
859.529	14271
859.662	14286
859.795	14267
859.928	14180
860.061	14495
860.194	14377
860.327	14362
860.46	14400
860.592	14351
860.725	14370
860.858	14408
860.99	14332
861.123	14244
861.256	14199
861.388	14244
861.521	14773
861.653	14168
861.786	14084
861.918	14050
862.05	14172
862.183	14240
862.315	14294
862.447	14271
862.58	14153
862.712	14058
862.844	13974
862.976	14149
863.108	14054
863.24	14381
863.372	14043
863.504	14016
863.636	14062
863.768	14096
863.9	14126
864.032	14027
864.164	13986
864.296	14107
864.428	14183
864.559	14153
864.691	14180
864.823	14142
864.954	14069
865.086	14039
865.217	14088
865.349	13947
865.48	14065
865.612	14100
865.743	14107
865.875	13970
866.006	13925
866.137	14039
866.269	14001
866.4	13997
866.531	13940
866.662	14043
866.793	14005
866.924	14008
867.055	14050
867.186	14096
867.317	13928
867.448	13887
867.579	13894
867.71	14050
867.841	13963
867.972	14035
868.103	14027
868.233	14020
868.364	14062
868.495	14142
868.625	14320
868.756	14415
868.886	14214
869.017	14355
869.147	14507
869.278	14408
869.408	14374
869.539	14362
869.669	14469
869.799	14339
869.929	14381
870.06	14427
870.19	14701
870.32	14507
870.45	14511
870.58	14625
870.71	14804
870.84	14815
870.97	14621
871.1	14621
871.23	14876
871.36	14864
871.489	14765
871.619	14823
871.749	14891
871.879	14921
872.008	14986
872.138	14921
872.267	14815
872.397	14842
872.526	14640
872.656	14750
872.785	14785
872.915	14902
873.044	14960
873.173	14956
873.303	14960
873.432	15028
873.561	14998
873.69	15013
873.819	15017
873.948	15005
874.077	14952
874.206	14895
874.335	14971
874.464	15043
874.593	15138
874.722	15192
874.851	15272
874.979	15325
875.108	15298
875.237	15199
875.365	15184
875.494	15332
875.623	15313
875.751	15230
875.88	15355
876.008	15443
876.136	15496
876.265	15553
876.393	15831
876.521	15739
876.65	15747
876.778	15724
876.906	15606
877.034	15606
877.162	15709
877.29	15572
877.418	15671
877.546	15656
877.674	15652
877.802	15686
877.93	15667
878.058	15644
878.185	15572
878.313	15679
878.441	15629
878.568	15462
878.696	15595
878.824	15755
878.951	15739
879.079	15770
879.206	15892
879.333	15759
879.461	15728
879.588	15816
879.715	15854
879.842	15968
879.97	15838
880.097	15515
880.224	15466
880.351	15435
880.478	15545
880.605	15523
880.732	15542
880.859	15610
880.986	15462
881.112	15553
881.239	15397
881.366	15306
881.493	15184
881.619	15218
881.746	15093
881.872	15165
881.999	15184
882.125	15192
882.252	15207
882.378	15226
882.505	15325
882.631	15123
882.757	14918
882.883	15024
883.01	15017
883.136	14956
883.262	14918
883.388	14853
883.514	14960
883.64	15043
883.766	14967
883.892	14819
884.018	14853
884.143	14960
884.269	15055
884.395	14792
884.52	14731
884.646	14575
884.772	14648
884.897	14648
885.023	14716
885.148	14792
885.274	14872
885.399	14785
885.524	14750
885.65	14655
885.775	14758
885.9	14739
886.025	14731
886.15	14724
886.275	14621
886.4	14606
886.525	14632
886.65	14579
886.775	14621
886.9	14876
887.025	14967
887.149	14682
887.274	14518
887.399	14457
887.523	14473
887.648	14499
887.773	14393
887.897	14568
888.021	14560
888.146	14522
888.27	14621
888.395	14590
888.519	14579
888.643	14568
888.767	14629
888.891	14381
889.015	14431
889.139	14389
889.263	14431
889.387	14454
889.511	14556
889.635	14480
889.759	14355
889.883	14423
890.006	14492
890.13	14434
890.254	14286
890.377	14313
890.501	14259
890.624	14145
890.748	14286
890.871	14035
890.995	14168
891.118	14046
891.241	14073
891.364	14138
891.488	14221
891.611	14107
891.734	14062
891.857	14145
891.98	14119
892.103	14202
892.226	14149
892.349	14084
892.471	13967
892.594	14008
892.717	14119
892.839	14046
892.962	14069
893.085	14157
893.207	14081
893.33	13909
893.452	14020
893.575	14084
893.697	14073
893.819	14286
893.941	14385
894.064	14218
894.186	14008
894.308	14043
894.43	14157
894.552	14286
894.674	14248
894.796	13997
894.918	14031
895.04	14043
895.161	14305
895.283	14218
895.405	14145
895.526	14157
895.648	14225
895.769	14248
895.891	14210
896.012	14263
896.134	14218
896.255	14267
896.376	14332
896.498	14240
896.619	14336
896.74	14233
896.861	14412
896.982	14621
897.103	14769
897.224	14480
897.345	14404
897.466	14476
897.587	14488
897.708	14659
897.828	14689
897.949	14476
898.07	14423
898.19	14442
898.311	14648
898.431	14564
898.552	14648
898.672	14636
898.792	14670
898.913	14724
899.033	14541
899.153	14427
899.273	14385
899.393	14461
899.513	14492
899.633	14396
899.753	14469
899.873	14469
899.993	14571
900.113	14465
900.232	14545
900.352	14492
900.472	14423
900.591	14172
900.711	14381
900.83	14339
900.95	14362
901.069	14450
901.189	14412
901.308	14096
901.427	14046
901.546	13947
901.665	14062
901.784	14043
901.904	13928
902.023	13864
902.141	13791
902.26	13605
902.379	13719
902.498	13609
902.617	13533
902.735	13571
902.854	13556
902.973	13548
903.091	13369
903.21	13297
903.328	13365
903.446	13217
903.565	13171
903.683	13209
903.801	13057
903.919	13145
904.038	13065
904.156	12985
904.274	13015
904.392	12977
904.51	13008
904.627	12894
904.745	13034
904.863	12951
904.981	12738
905.098	12658
905.216	12688
905.334	12741
905.451	12700
905.569	12639
905.686	12711
905.803	12684
905.921	12448
906.038	12582
906.155	12448
906.272	12357
906.389	12376
906.506	12254
906.623	12220
906.74	12190
906.857	12178
906.974	12125
907.091	12232
907.208	12369
907.324	12243
907.441	12220
907.557	12064
907.674	11996
907.79	11950
907.907	12049
908.023	11969
908.139	12022
908.256	11851
908.372	11961
908.488	11939
908.604	11741
908.72	11790
908.836	11764
908.952	11783
909.068	11745
909.184	11821
909.3	11840
909.415	11809
909.531	11752
909.647	11493
909.762	11482
909.878	11471
909.993	11589
910.108	11478
910.224	11524
910.339	11459
910.454	11383
910.57	11379
910.685	11296
910.8	11611
910.915	11562
911.03	11402
911.145	11284
911.259	11242
911.374	11269
911.489	11162
911.604	11117
911.718	11018
911.833	10923
911.947	10885
912.062	10809
912.176	10965
912.291	10976
912.405	10923
912.519	11090
912.633	11231
912.748	11121
912.862	10984
912.976	10767
913.09	10755
913.204	10816
913.318	10869
913.431	11056
913.545	10866
913.659	10991
913.772	10812
913.886	10687
914	10752
914.113	10778
914.226	10782
914.34	10816
914.453	10698
914.566	10771
914.68	10755
914.793	10706
914.906	10580
915.019	10500
915.132	10474
915.245	10459
915.358	10459
915.47	10527
915.583	10531
915.696	10558
915.809	10668
915.921	10653
916.034	10485
916.146	10382
916.259	10451
916.371	10561
916.483	10527
916.595	10421
916.708	10398
916.82	10337
916.932	10455
917.044	10382
917.156	10413
917.268	10402
917.38	10329
917.491	10318
917.603	10386
917.715	10375
917.826	10363
917.938	10325
918.049	10207
918.161	10344
918.272	10432
918.384	10451
918.495	10318
918.606	10158
918.717	10147
918.828	10230
918.939	10249
919.05	10078
919.161	10166
919.272	10013
919.383	10105
919.494	10295
919.604	10402
919.715	10257
919.826	10078
919.936	10196
920.047	10325
920.157	10253
920.267	10462
920.378	10211
920.488	10242
920.598	10367
920.708	10573
920.818	10386
920.928	10405
921.038	10527
921.148	10481
921.258	10291
921.368	10211
921.477	10078
921.587	10082
921.697	9968
921.806	10120
921.916	9972
922.025	9895
922.134	9717
922.244	9728
922.353	9812
922.462	9660
922.571	9572
922.68	9454
922.789	9344
922.898	9477
923.007	9473
923.116	9389
923.224	9507
923.333	9466
923.442	9363
923.55	9389
923.659	9351
923.767	9454
923.876	9344
923.984	9401
924.092	9218
924.201	9298
924.309	9359
924.417	9283
924.525	9218
924.633	9264
924.741	10166
924.849	9108
924.956	9203
925.064	9108
925.172	9028
925.279	9017
925.387	9058
925.494	9119
925.602	9233
925.709	9161
925.816	9081
925.924	9116
926.031	9203
926.138	9116
926.245	9188
926.352	9123
926.459	9157
926.566	9203
926.673	9070
926.779	8979
926.886	8994
926.993	8823
927.099	8895
927.206	8720
927.312	8788
927.419	8887
927.525	8849
927.631	8864
927.737	8769
927.843	8693
927.95	8621
928.056	8621
928.162	8735
928.267	8861
928.373	9313
928.479	8842
928.585	8541
928.69	8651
928.796	8788
928.901	8659
929.007	8484
929.112	8617
929.218	8613
929.323	8575
929.428	8526
929.533	8762
929.638	8541
929.743	8522
929.848	8556
929.953	8530
930.058	8457
930.163	8298
930.267	8343
930.372	8442
930.477	8324
930.581	8552
930.685	8423
930.79	8290
930.894	8336
930.998	8271
931.103	8442
931.207	8001
931.311	7970
931.415	7974
931.519	7792
931.623	7788
