Data from test_V78500241_3323.txt Node
Date: Fri Mar 25 14:56:51 CST 2022
User: usil
Spectrometer: V785-0024
Trigger mode: 0
Integration Time (sec): 4.000000E-1
Scans to average: 1
Nonlinearity correction enabled: false
Boxcar width: 0
Storing dark spectrum: false
XAxis mode: Wavelengths
Number of Pixels in Spectrum: 1024
>>>>>Begin Spectral Data<<<<<
801.071	21865
801.214	21774
801.356	21454
801.499	21462
801.641	21256
801.783	21416
801.926	21321
802.068	21161
802.211	21359
802.353	21146
802.496	20842
802.638	20750
802.78	20750
802.923	20670
803.065	20606
803.208	20617
803.35	20705
803.492	20655
803.635	20807
803.777	20530
803.919	20670
804.061	20914
804.204	20667
804.346	20457
804.488	20533
804.63	20545
804.773	20545
804.915	20530
805.057	20754
805.199	20393
805.341	20568
805.483	20667
805.626	20629
805.768	20495
805.91	20556
806.052	20552
806.194	20552
806.336	20621
806.478	20602
806.62	20552
806.762	20678
806.904	20720
807.046	20864
807.188	20842
807.33	20834
807.472	20914
807.614	20815
807.756	20785
807.898	20598
808.04	20571
808.182	20613
808.324	20621
808.465	20727
808.607	20785
808.749	20861
808.891	21043
809.033	21047
809.174	21020
809.316	20785
809.458	20887
809.6	20853
809.741	21028
809.883	20876
810.025	21161
810.166	21001
810.308	21055
810.45	20918
810.591	20876
810.733	20773
810.875	20663
811.016	20682
811.158	20552
811.299	20796
811.441	20895
811.582	20758
811.724	20632
811.865	20549
812.007	20674
812.148	20606
812.29	20716
812.431	20880
812.573	20914
812.714	21039
812.855	21066
812.997	21211
813.138	21374
813.279	21192
813.421	21104
813.562	21013
813.703	20902
813.845	20708
813.986	20495
814.127	20355
814.268	20351
814.41	20161
814.551	20282
814.692	20157
814.833	20077
814.974	20092
815.115	20191
815.256	20058
815.397	20058
815.539	20161
815.68	19944
815.821	19936
815.962	19970
816.103	19890
816.244	19818
816.385	19620
816.526	19578
816.666	19510
816.807	19369
816.948	19499
817.089	19445
817.23	19430
817.371	19377
817.512	19343
817.653	19247
817.793	19278
817.934	19460
818.075	19335
818.216	19259
818.356	19285
818.497	19129
818.638	19042
818.778	18932
818.919	18989
819.06	19023
819.2	19179
819.341	19228
819.481	19198
819.622	19350
819.762	19510
819.903	19476
820.043	19460
820.184	19400
820.324	19236
820.465	19392
820.605	19324
820.746	19301
820.886	19168
821.026	19278
821.167	19198
821.307	19331
821.447	19217
821.588	19206
821.728	18973
821.868	18848
822.008	18749
822.149	18661
822.289	18635
822.429	18456
822.569	18384
822.709	18395
822.849	18483
822.99	18102
823.13	18152
823.27	18114
823.41	18007
823.55	18076
823.69	18015
823.83	18011
823.97	17901
824.11	17870
824.25	17779
824.389	17752
824.529	17908
824.669	17836
824.809	17950
824.949	17958
825.089	17889
825.228	17828
825.368	17562
825.508	17608
825.648	17653
825.787	17638
825.927	17642
826.067	17543
826.206	17630
826.346	17619
826.485	17646
826.625	17562
826.765	17729
826.904	17611
827.044	17315
827.183	17376
827.323	17288
827.462	17330
827.601	17250
827.741	17239
827.88	17368
828.02	17121
828.159	17337
828.298	17242
828.437	17258
828.577	17193
828.716	17261
828.855	17166
828.994	17090
829.134	17037
829.273	17079
829.412	16923
829.551	16919
829.69	16984
829.829	17155
829.968	17170
830.107	17121
830.246	17037
830.385	17105
830.524	16938
830.663	16824
830.802	16793
830.941	16683
831.08	16630
831.219	16710
831.357	16755
831.496	16896
831.635	16637
831.774	16599
831.913	16527
832.051	16409
832.19	16489
832.329	16500
832.467	16310
832.606	16413
832.744	16409
832.883	16398
833.022	16363
833.16	16306
833.299	16417
833.437	16329
833.576	16413
833.714	16413
833.852	16443
833.991	16561
834.129	16481
834.267	16462
834.406	16398
834.544	16394
834.682	16455
834.821	16470
834.959	16641
835.097	16386
835.235	16421
835.373	16424
835.511	16493
835.65	16215
835.788	16318
835.926	16306
836.064	16196
836.202	16101
836.34	16348
836.478	16421
836.615	16291
836.753	16291
836.891	16386
837.029	16276
837.167	16337
837.305	16295
837.443	16257
837.58	16257
837.718	16265
837.856	16207
837.993	16207
838.131	16249
838.269	16128
838.406	16135
838.544	16040
838.681	15934
838.819	15857
838.956	15781
839.094	15739
839.231	15781
839.369	15895
839.506	16200
839.643	15956
839.781	15751
839.918	15701
840.055	15751
840.193	15797
840.33	15622
840.467	15739
840.604	15793
840.742	15998
840.879	15545
841.016	15629
841.153	15690
841.29	15755
841.427	15713
841.564	15808
841.701	15755
841.838	15675
841.975	15610
842.112	15713
842.249	15557
842.385	15420
842.522	15797
842.659	15519
842.796	15469
842.933	15530
843.069	15454
843.206	15443
843.343	15557
843.479	15561
843.616	15610
843.752	15374
843.889	15348
844.025	15496
844.162	15252
844.298	15393
844.435	15344
844.571	15279
844.708	15386
844.844	15466
844.98	15496
845.117	15424
845.253	15294
845.389	15184
845.525	15211
845.661	15302
845.798	15100
845.934	15188
846.07	15085
846.206	15150
846.342	15294
846.478	15108
846.614	14967
846.75	14883
846.886	14876
847.022	14948
847.158	14975
847.294	14883
847.429	15001
847.565	14853
847.701	15017
847.837	14587
847.972	14655
848.108	14701
848.244	14682
848.379	14522
848.515	14545
848.65	14336
848.786	14457
848.921	14446
849.057	14583
849.192	14594
849.328	14492
849.463	14457
849.598	14564
849.734	14434
849.869	14343
850.004	14347
850.14	14366
850.275	14256
850.41	14210
850.545	14317
850.68	14233
850.815	14336
850.95	14195
851.085	14469
851.22	14389
851.355	14221
851.49	14290
851.625	14305
851.76	14145
851.895	14202
852.03	14096
852.165	14248
852.299	14305
852.434	14389
852.569	14282
852.703	14328
852.838	14396
852.973	14404
853.107	14355
853.242	14267
853.376	14107
853.511	13959
853.645	14058
853.78	14256
853.914	14180
854.048	14111
854.183	14100
854.317	14191
854.451	14252
854.585	14145
854.72	14100
854.854	14256
854.988	14096
855.122	14115
855.256	14031
855.39	14126
855.524	14138
855.658	14271
855.792	14149
855.926	14237
856.06	14229
856.194	14214
856.327	14145
856.461	14092
856.595	14088
856.729	14031
856.862	14206
856.996	14145
857.13	14347
857.263	14301
857.397	14237
857.53	14164
857.664	14126
857.797	14195
857.931	14240
858.064	14050
858.197	14267
858.331	14164
858.464	14081
858.597	14065
858.731	14142
858.864	14145
858.997	14058
859.13	14138
859.263	14123
859.396	14225
859.529	14039
859.662	14092
859.795	14001
859.928	14161
860.061	14240
860.194	14298
860.327	14259
860.46	14119
860.592	14271
860.725	14313
860.858	14267
860.99	14134
861.123	14039
861.256	14092
861.388	14206
861.521	14914
861.653	13932
861.786	13951
861.918	14069
862.05	14062
862.183	14001
862.315	14157
862.447	14221
862.58	14054
862.712	13906
862.844	13902
862.976	14035
863.108	13978
863.24	14324
863.372	13803
863.504	13871
863.636	13890
863.768	13925
863.9	13932
864.032	13788
864.164	13864
864.296	14024
864.428	14039
864.559	13967
864.691	14005
864.823	14046
864.954	13963
865.086	13967
865.217	13917
865.349	13868
865.48	13913
865.612	13997
865.743	14050
865.875	13890
866.006	13921
866.137	13917
866.269	13951
866.4	13932
866.531	13871
866.662	13799
866.793	13955
866.924	13814
867.055	13909
867.186	13970
867.317	13795
867.448	13803
867.579	13845
867.71	13795
867.841	13902
867.972	13947
868.103	13997
868.233	13970
868.364	13944
868.495	14001
868.625	14161
868.756	14172
868.886	14058
869.017	14088
869.147	14324
869.278	14309
869.408	14187
869.539	14130
869.669	14298
869.799	14153
869.929	14328
870.06	14126
870.19	14324
870.32	14480
870.45	14454
870.58	14610
870.71	14667
870.84	14701
870.97	14560
871.1	14549
871.23	14746
871.36	14777
871.489	14731
871.619	14781
871.749	14807
871.879	14861
872.008	14937
872.138	14807
872.267	14705
872.397	14583
872.526	14503
872.656	14610
872.785	14636
872.915	14682
873.044	14842
873.173	14735
873.303	14883
873.432	14842
873.561	14910
873.69	14845
873.819	14811
873.948	14864
874.077	14880
874.206	14800
874.335	14807
874.464	14906
874.593	15146
874.722	15097
874.851	15165
874.979	15161
875.108	15176
875.237	15070
875.365	15024
875.494	15077
875.623	15211
875.751	15104
875.88	15195
876.008	15310
876.136	15370
876.265	15553
876.393	15720
876.521	15648
876.65	15625
876.778	15610
876.906	15515
877.034	15428
877.162	15534
877.29	15595
877.418	15530
877.546	15557
877.674	15549
877.802	15553
877.93	15637
878.058	15496
878.185	15382
878.313	15454
878.441	15568
878.568	15370
878.696	15393
878.824	15561
878.951	15739
879.079	15747
879.206	15823
879.333	15698
879.461	15637
879.588	15717
879.715	15759
879.842	15911
879.97	15625
880.097	15523
880.224	15462
880.351	15538
880.478	15450
880.605	15405
880.732	15363
880.859	15637
880.986	15450
881.112	15504
881.239	15260
881.366	15188
881.493	15066
881.619	15058
881.746	15119
881.872	15081
881.999	15066
882.125	15097
882.252	15058
882.378	15070
882.505	15192
882.631	15066
882.757	14811
882.883	15020
883.01	14868
883.136	14739
883.262	14720
883.388	14743
883.514	14963
883.64	14914
883.766	14815
883.892	14651
884.018	14743
884.143	14853
884.269	14937
884.395	14625
884.52	14549
884.646	14568
884.772	14511
884.897	14518
885.023	14655
885.148	14773
885.274	14781
885.399	14716
885.524	14579
885.65	14610
885.775	14602
885.9	14613
886.025	14648
886.15	14670
886.275	14575
886.4	14503
886.525	14583
886.65	14461
886.775	14533
886.9	14758
887.025	14861
887.149	14590
887.274	14480
887.399	14396
887.523	14377
887.648	14328
887.773	14385
887.897	14507
888.021	14480
888.146	14362
888.27	14552
888.395	14560
888.519	14552
888.643	14480
888.767	14514
888.891	14351
889.015	14320
889.139	14221
889.263	14252
889.387	14400
889.511	14461
889.635	14518
889.759	14259
889.883	14233
890.006	14355
890.13	14415
890.254	14240
890.377	14229
890.501	14088
890.624	14031
890.748	14233
890.871	14065
890.995	13978
891.118	13822
891.241	13986
891.364	13974
891.488	14088
891.611	13997
891.734	14096
891.857	14081
891.98	14046
892.103	14039
892.226	14020
892.349	13963
892.471	13925
892.594	13955
892.717	14008
892.839	14012
892.962	14050
893.085	14020
893.207	13959
893.33	13814
893.452	13898
893.575	13978
893.697	13887
893.819	14191
893.941	14153
894.064	14149
894.186	13936
894.308	13936
894.43	14111
894.552	14096
894.674	14092
894.796	13906
894.918	13959
895.04	13997
895.161	14161
895.283	14103
895.405	14134
895.526	14130
895.648	14081
895.769	14199
895.891	14149
896.012	14172
896.134	14180
896.255	14218
896.376	14126
896.498	14111
896.619	14237
896.74	14206
896.861	14225
896.982	14564
897.103	14667
897.224	14469
897.345	14393
897.466	14336
897.587	14503
897.708	14533
897.828	14419
897.949	14389
898.07	14309
898.19	14374
898.311	14522
898.431	14415
898.552	14469
898.672	14587
898.792	14571
898.913	14606
899.033	14469
899.153	14412
899.273	14286
899.393	14336
899.513	14442
899.633	14317
899.753	14336
899.873	14336
899.993	14400
900.113	14366
900.232	14419
900.352	14328
900.472	14233
900.591	14138
900.711	14168
900.83	14199
900.95	14377
901.069	14431
901.189	14138
901.308	13921
901.427	13780
901.546	13906
901.665	13932
901.784	13894
901.904	13696
902.023	13674
902.141	13518
902.26	13434
902.379	13559
902.498	13453
902.617	13415
902.735	13514
902.854	13457
902.973	13392
903.091	13266
903.21	13194
903.328	13206
903.446	13084
903.565	13088
903.683	13038
903.801	12951
903.919	13065
904.038	12935
904.156	12837
904.274	12951
904.392	12905
904.51	12783
904.627	12875
904.745	12901
904.863	12966
904.981	12711
905.098	12521
905.216	12589
905.334	12665
905.451	12597
905.569	12540
905.686	12601
905.803	12684
905.921	12388
906.038	12467
906.155	12506
906.272	12224
906.389	12357
906.506	12133
906.623	12197
906.74	12129
906.857	12102
906.974	12083
907.091	12266
907.208	12319
907.324	12300
907.441	12091
907.557	11980
907.674	11874
907.79	11935
907.907	11965
908.023	11942
908.139	11904
908.256	11927
908.372	11878
908.488	11847
908.604	11737
908.72	11699
908.836	11661
908.952	11684
909.068	11680
909.184	11874
909.3	11634
909.415	11779
909.531	11726
909.647	11425
909.762	11421
909.878	11421
909.993	11528
910.108	11467
910.224	11433
910.339	11486
910.454	11383
910.57	11292
910.685	11311
910.8	11474
910.915	11524
911.03	11360
911.145	11223
911.259	11128
911.374	11155
911.489	11052
911.604	11041
911.718	10927
911.833	10904
911.947	10866
912.062	10736
912.176	10892
912.291	10927
912.405	11037
912.519	11079
912.633	11170
912.748	11083
912.862	11029
912.976	10866
913.09	10733
913.204	10774
913.318	10797
913.431	10839
913.545	10938
913.659	10885
913.772	10839
913.886	10691
914	10672
914.113	10828
914.226	10786
914.34	10736
914.453	10714
914.566	10752
914.68	10588
914.793	10626
914.906	10485
915.019	10440
915.132	10272
915.245	10413
915.358	10470
915.47	10352
915.583	10470
915.696	10451
915.809	10577
915.921	10569
916.034	10352
916.146	10394
916.259	10375
916.371	10561
916.483	10428
916.595	10432
916.708	10455
916.82	10436
916.932	10371
917.044	10360
917.156	10371
917.268	10253
917.38	10215
917.491	10268
917.603	10322
917.715	10352
917.826	10329
917.938	10363
918.049	10139
918.161	10261
918.272	10398
918.384	10394
918.495	10386
918.606	10173
918.717	10051
918.828	10169
918.939	10215
919.05	10032
919.161	10196
919.272	9918
919.383	9987
919.494	10181
919.604	10405
919.715	10131
919.826	10002
919.936	10192
920.047	10246
920.157	10116
920.267	10413
920.378	10169
920.488	10177
920.598	10424
920.708	10485
920.818	10394
920.928	10382
921.038	10550
921.148	10550
921.258	10234
921.368	10135
921.477	10010
921.587	9930
921.697	9903
921.806	10063
921.916	9846
922.025	9774
922.134	9759
922.244	9625
922.353	9774
922.462	9694
922.571	9606
922.68	9435
922.789	9317
922.898	9469
923.007	9447
923.116	9462
923.224	9485
923.333	9378
923.442	9302
923.55	9253
923.659	9294
923.767	9389
923.876	9367
923.984	9389
924.092	9230
924.201	9279
924.309	9287
924.417	9313
924.525	9207
924.633	9241
924.741	10246
924.849	9097
924.956	9264
925.064	9081
925.172	8975
925.279	9081
925.387	9074
925.494	9097
925.602	9230
925.709	9150
925.816	9043
925.924	9039
926.031	9135
926.138	9085
926.245	9199
926.352	9051
926.459	9195
926.566	9169
926.673	9085
926.779	8975
926.886	8963
926.993	8826
927.099	8823
927.206	8788
927.312	8697
927.419	8895
927.525	8830
927.631	8796
927.737	8754
927.843	8701
927.95	8644
928.056	8735
928.162	8663
928.267	8750
928.373	9439
928.479	8720
928.585	8530
928.69	8708
928.796	8777
928.901	8625
929.007	8514
929.112	8606
929.218	8606
929.323	8549
929.428	8541
929.533	8644
929.638	8495
929.743	8434
929.848	8575
929.953	8488
930.058	8473
930.163	8282
930.267	8305
930.372	8438
930.477	8263
930.581	8511
930.685	8408
930.79	8202
930.894	8248
930.998	8218
931.103	8442
931.207	8043
931.311	7951
931.415	7913
931.519	7780
931.623	7712
