Data from test_V78500241_3228.txt Node
Date: Fri Mar 25 14:56:11 CST 2022
User: usil
Spectrometer: V785-0024
Trigger mode: 0
Integration Time (sec): 4.000000E-1
Scans to average: 1
Nonlinearity correction enabled: false
Boxcar width: 0
Storing dark spectrum: false
XAxis mode: Wavelengths
Number of Pixels in Spectrum: 1024
>>>>>Begin Spectral Data<<<<<
801.071	22006
801.214	21930
801.356	21625
801.499	21568
801.641	21481
801.783	21374
801.926	21405
802.068	21310
802.211	21332
802.353	21131
802.496	20910
802.638	20853
802.78	20781
802.923	20781
803.065	20663
803.208	20602
803.35	20667
803.492	20731
803.635	20785
803.777	20750
803.919	20800
804.061	21066
804.204	20758
804.346	20613
804.488	20629
804.63	20697
804.773	20590
804.915	20644
805.057	20693
805.199	20431
805.341	20697
805.483	20632
805.626	20587
805.768	20377
805.91	20609
806.052	20556
806.194	20552
806.336	20705
806.478	20667
806.62	20568
806.762	20754
806.904	20838
807.046	20948
807.188	20925
807.33	20853
807.472	20990
807.614	20758
807.756	20788
807.898	20705
808.04	20651
808.182	20731
808.324	20754
808.465	20792
808.607	20849
808.749	20937
808.891	21013
809.033	21112
809.174	21135
809.316	20963
809.458	20899
809.6	20872
809.741	21039
809.883	20960
810.025	21093
810.166	21138
810.308	21127
810.45	21093
810.591	21020
810.733	20876
810.875	20788
811.016	20640
811.158	20594
811.299	20746
811.441	20883
811.582	20887
811.724	20655
811.865	20644
812.007	20727
812.148	20746
812.29	20769
812.431	20823
812.573	21005
812.714	21180
812.855	21093
812.997	21310
813.138	21439
813.279	21283
813.421	21268
813.562	21058
813.703	20956
813.845	20838
813.986	20602
814.127	20476
814.268	20294
814.41	20328
814.551	20324
814.692	20351
814.833	20191
814.974	20298
815.115	20290
815.256	20058
815.397	20157
815.539	20046
815.68	20088
815.821	19833
815.962	20069
816.103	19868
816.244	19776
816.385	19731
816.526	19662
816.666	19521
816.807	19415
816.948	19502
817.089	19476
817.23	19384
817.371	19396
817.512	19377
817.653	19396
817.793	19460
817.934	19316
818.075	19449
818.216	19369
818.356	19483
818.497	19122
818.638	19148
818.778	19027
818.919	19107
819.06	19042
819.2	19152
819.341	19164
819.481	19289
819.622	19472
819.762	19578
819.903	19476
820.043	19514
820.184	19304
820.324	19407
820.465	19499
820.605	19419
820.746	19320
820.886	19251
821.026	19324
821.167	19312
821.307	19426
821.447	19331
821.588	19289
821.728	19069
821.868	18859
822.008	18814
822.149	18840
822.289	18757
822.429	18506
822.569	18570
822.709	18494
822.849	18323
822.99	18190
823.13	18357
823.27	18171
823.41	18060
823.55	18060
823.69	18106
823.83	18159
823.97	18110
824.11	17824
824.25	17786
824.389	17950
824.529	17916
824.669	17821
824.809	17904
824.949	17920
825.089	17783
825.228	17889
825.368	17615
825.508	17661
825.648	17581
825.787	17703
825.927	17676
826.067	17592
826.206	17680
826.346	17676
826.485	17642
826.625	17611
826.765	17585
826.904	17798
827.044	17318
827.183	17349
827.323	17296
827.462	17440
827.601	17284
827.741	17368
827.88	17322
828.02	17185
828.159	17372
828.298	17250
828.437	17349
828.577	17372
828.716	17463
828.855	17303
828.994	17109
829.134	17151
829.273	17166
829.412	16972
829.551	17162
829.69	17029
829.829	17014
829.968	17208
830.107	17235
830.246	17155
830.385	17033
830.524	16980
830.663	16923
830.802	16763
830.941	16759
831.08	16733
831.219	16782
831.357	16763
831.496	16965
831.635	16668
831.774	16656
831.913	16573
832.051	16561
832.19	16470
832.329	16592
832.467	16512
832.606	16382
832.744	16424
832.883	16337
833.022	16424
833.16	16443
833.299	16402
833.437	16394
833.576	16527
833.714	16462
833.852	16478
833.991	16481
834.129	16580
834.267	16497
834.406	16485
834.544	16580
834.682	16573
834.821	16379
834.959	16622
835.097	16554
835.235	16546
835.373	16542
835.511	16584
835.65	16432
835.788	16360
835.926	16306
836.064	16268
836.202	16200
836.34	16375
836.478	16478
836.615	16360
836.753	16363
836.891	16470
837.029	16443
837.167	16379
837.305	16242
837.443	16276
837.58	16246
837.718	16379
837.856	16204
837.993	16200
838.131	16086
838.269	16166
838.406	16230
838.544	16143
838.681	16021
838.819	15956
838.956	15755
839.094	15857
839.231	15838
839.369	15880
839.506	16261
839.643	16067
839.781	15888
839.918	15895
840.055	15842
840.193	15778
840.33	15846
840.467	15838
840.604	15895
840.742	16055
840.879	15785
841.016	15622
841.153	15736
841.29	15949
841.427	15739
841.564	15857
841.701	15869
841.838	15766
841.975	15682
842.112	15762
842.249	15572
842.385	15538
842.522	15762
842.659	15667
842.796	15515
842.933	15561
843.069	15557
843.206	15523
843.343	15709
843.479	15549
843.616	15637
843.752	15370
843.889	15382
844.025	15428
844.162	15275
844.298	15500
844.435	15344
844.571	15317
844.708	15397
844.844	15549
844.98	15450
845.117	15447
845.253	15294
845.389	15329
845.525	15313
845.661	15207
845.798	15161
845.934	15256
846.07	15199
846.206	15203
846.342	15336
846.478	15207
846.614	14979
846.75	14868
846.886	14975
847.022	15028
847.158	14975
847.294	14979
847.429	14941
847.565	14906
847.701	15173
847.837	14804
847.972	14667
848.108	14788
848.244	14716
848.379	14682
848.515	14511
848.65	14556
848.786	14503
848.921	14594
849.057	14667
849.192	14629
849.328	14549
849.463	14526
849.598	14400
849.734	14484
849.869	14419
850.004	14278
850.14	14434
850.275	14355
850.41	14259
850.545	14301
850.68	14267
850.815	14298
850.95	14248
851.085	14503
851.22	14457
851.355	14294
851.49	14183
851.625	14339
851.76	14244
851.895	14123
852.03	14187
852.165	14256
852.299	14282
852.434	14347
852.569	14267
852.703	14393
852.838	14423
852.973	14450
853.107	14533
853.242	14320
853.376	14218
853.511	14016
853.645	14229
853.78	14278
853.914	14180
854.048	14161
854.183	14142
854.317	14313
854.451	14336
854.585	14035
854.72	14164
854.854	14180
854.988	14084
855.122	14195
855.256	14092
855.39	14115
855.524	14225
855.658	14221
855.792	14218
855.926	14126
856.06	14202
856.194	14309
856.327	14180
856.461	14142
856.595	14149
856.729	14084
856.862	14267
856.996	14199
857.13	14275
857.263	14317
857.397	14358
857.53	14298
857.664	14339
857.797	14328
857.931	14328
858.064	14240
858.197	14252
858.331	14233
858.464	14214
858.597	14081
858.731	14134
858.864	14164
858.997	14191
859.13	14252
859.263	14153
859.396	14259
859.529	14115
859.662	14103
859.795	14138
859.928	14199
860.061	14320
860.194	14355
860.327	14172
860.46	14164
860.592	14309
860.725	14275
860.858	14275
860.99	14191
861.123	14081
861.256	14130
861.388	14168
861.521	14929
861.653	14065
861.786	14065
861.918	13944
862.05	14088
862.183	14142
862.315	14168
862.447	14282
862.58	14012
862.712	13986
862.844	13959
862.976	14081
863.108	14084
863.24	14377
863.372	13898
863.504	13993
863.636	13871
863.768	13936
863.9	13986
864.032	13887
864.164	13970
864.296	13883
864.428	14199
864.559	14130
864.691	14069
864.823	14005
864.954	13982
865.086	13909
865.217	13928
865.349	13871
865.48	13868
865.612	14012
865.743	14046
865.875	13993
866.006	13944
866.137	14020
866.269	13936
866.4	13913
866.531	13822
866.662	13909
866.793	13856
866.924	13909
867.055	13856
867.186	13963
867.317	13833
867.448	13833
867.579	13947
867.71	13807
867.841	13788
867.972	13871
868.103	13879
868.233	13997
868.364	13986
868.495	14016
868.625	14172
868.756	14259
868.886	14149
869.017	14202
869.147	14328
869.278	14309
869.408	14244
869.539	14153
869.669	14294
869.799	14263
869.929	14320
870.06	14339
870.19	14526
870.32	14450
870.45	14526
870.58	14564
870.71	14716
870.84	14708
870.97	14579
871.1	14499
871.23	14800
871.36	14902
871.489	14701
871.619	14739
871.749	14796
871.879	14796
872.008	14902
872.138	14834
872.267	14781
872.397	14727
872.526	14727
872.656	14640
872.785	14701
872.915	14804
873.044	14880
873.173	14807
873.303	14853
873.432	14937
873.561	14956
873.69	14914
873.819	14842
873.948	14872
874.077	14785
874.206	14849
874.335	14944
874.464	14986
874.593	15146
874.722	15077
874.851	15176
874.979	15108
875.108	15214
875.237	15146
875.365	15127
875.494	15211
875.623	15195
875.751	15081
875.88	15241
876.008	15321
876.136	15336
876.265	15625
876.393	15698
876.521	15591
876.65	15663
876.778	15614
876.906	15606
877.034	15511
877.162	15549
877.29	15416
877.418	15625
877.546	15595
877.674	15580
877.802	15515
877.93	15545
878.058	15686
878.185	15557
878.313	15435
878.441	15682
878.568	15454
878.696	15428
878.824	15542
878.951	15667
879.079	15709
879.206	15960
879.333	15701
879.461	15633
879.588	15660
879.715	15865
879.842	15857
879.97	15705
880.097	15530
880.224	15374
880.351	15504
880.478	15511
880.605	15405
880.732	15382
880.859	15584
880.986	15450
881.112	15401
881.239	15298
881.366	15211
881.493	15264
881.619	15142
881.746	15074
881.872	15089
881.999	15104
882.125	14998
882.252	15051
882.378	15146
882.505	15157
882.631	15036
882.757	14902
882.883	14998
883.01	14895
883.136	14849
883.262	14769
883.388	14811
883.514	14956
883.64	14963
883.766	14819
883.892	14731
884.018	14769
884.143	14830
884.269	15028
884.395	14674
884.52	14610
884.646	14533
884.772	14568
884.897	14480
885.023	14678
885.148	14697
885.274	14743
885.399	14697
885.524	14590
885.65	14560
885.775	14705
885.9	14583
886.025	14720
886.15	14655
886.275	14583
886.4	14488
886.525	14629
886.65	14545
886.775	14545
886.9	14682
887.025	14921
887.149	14625
887.274	14476
887.399	14427
887.523	14427
887.648	14400
887.773	14465
887.897	14465
888.021	14541
888.146	14347
888.27	14659
888.395	14644
888.519	14503
888.643	14480
888.767	14465
888.891	14339
889.015	14278
889.139	14389
889.263	14267
889.387	14358
889.511	14495
889.635	14495
889.759	14271
889.883	14271
890.006	14301
890.13	14454
890.254	14252
890.377	14320
890.501	14111
890.624	14138
890.748	14081
890.871	13993
890.995	13909
891.118	13856
891.241	13955
891.364	13932
891.488	14035
891.611	13955
891.734	13963
891.857	14092
891.98	14001
892.103	14058
892.226	14035
892.349	13890
892.471	13849
892.594	13879
892.717	14073
892.839	13993
892.962	14020
893.085	14062
893.207	14024
893.33	13906
893.452	13917
893.575	13978
893.697	14035
893.819	14233
893.941	14187
894.064	14149
894.186	13978
894.308	13993
894.43	14172
894.552	14183
894.674	14126
894.796	14035
894.918	14043
895.04	14084
895.161	14210
895.283	14103
895.405	13997
895.526	14134
895.648	14077
895.769	14134
895.891	14206
896.012	14225
896.134	14145
896.255	14210
896.376	14111
896.498	14176
896.619	14214
896.74	14199
896.861	14332
896.982	14495
897.103	14708
897.224	14404
897.345	14473
897.466	14324
897.587	14511
897.708	14556
897.828	14454
897.949	14492
898.07	14358
898.19	14408
898.311	14579
898.431	14564
898.552	14499
898.672	14625
898.792	14598
898.913	14552
899.033	14465
899.153	14309
899.273	14237
899.393	14294
899.513	14412
899.633	14442
899.753	14427
899.873	14370
899.993	14461
900.113	14469
900.232	14431
900.352	14431
900.472	14259
900.591	14244
900.711	14271
900.83	14100
900.95	14393
901.069	14423
901.189	14210
901.308	13974
901.427	13898
901.546	13955
901.665	14027
901.784	13940
901.904	13856
902.023	13772
902.141	13544
902.26	13521
902.379	13616
902.498	13544
902.617	13514
902.735	13472
902.854	13571
902.973	13422
903.091	13274
903.21	13179
903.328	13187
903.446	13183
903.565	13080
903.683	13053
903.801	12996
903.919	13057
904.038	12989
904.156	12958
904.274	13038
904.392	12829
904.51	12867
904.627	12871
904.745	12859
904.863	13038
904.981	12715
905.098	12570
905.216	12608
905.334	12627
905.451	12601
905.569	12578
905.686	12654
905.803	12585
905.921	12407
906.038	12498
906.155	12452
906.272	12376
906.389	12353
906.506	12201
906.623	12232
906.74	12243
906.857	12133
906.974	12030
907.091	12273
907.208	12399
907.324	12281
907.441	12083
907.557	11904
907.674	11939
907.79	11920
907.907	11847
908.023	12079
908.139	11999
908.256	11912
908.372	11817
908.488	11901
908.604	11722
908.72	11737
908.836	11767
908.952	11646
909.068	11741
909.184	11745
909.3	11718
909.415	11794
909.531	11665
909.647	11551
909.762	11478
909.878	11402
909.993	11478
910.108	11497
910.224	11417
910.339	11539
910.454	11440
910.57	11398
910.685	11227
910.8	11638
910.915	11551
911.03	11303
911.145	11277
911.259	11117
911.374	11132
911.489	11109
911.604	11090
911.718	10908
911.833	10885
911.947	10877
912.062	10694
912.176	10930
912.291	10911
912.405	10953
912.519	11185
912.633	11086
912.748	11003
912.862	10911
912.976	10809
913.09	10767
913.204	10717
913.318	10786
913.431	10972
913.545	10942
913.659	10984
913.772	10809
913.886	10645
914	10679
914.113	10805
914.226	10820
914.34	10828
914.453	10611
914.566	10805
914.68	10664
914.793	10637
914.906	10542
915.019	10432
915.132	10291
915.245	10443
915.358	10481
915.47	10432
915.583	10447
915.696	10478
915.809	10550
915.921	10561
916.034	10356
916.146	10367
916.259	10390
916.371	10424
916.483	10443
916.595	10272
916.708	10493
916.82	10337
916.932	10337
917.044	10367
917.156	10306
917.268	10284
917.38	10341
917.491	10249
917.603	10306
917.715	10417
917.826	10341
917.938	10223
918.049	10177
918.161	10280
918.272	10382
918.384	10413
918.495	10325
918.606	10169
918.717	10105
918.828	10128
918.939	10200
919.05	10032
919.161	10112
919.272	9964
919.383	10002
919.494	10215
919.604	10367
919.715	10173
919.826	10116
919.936	10082
920.047	10249
920.157	10158
920.267	10344
920.378	10207
920.488	10169
920.598	10333
920.708	10519
920.818	10352
920.928	10352
921.038	10615
921.148	10432
921.258	10211
921.368	10143
921.477	10010
921.587	10051
921.697	9922
921.806	10074
921.916	9922
922.025	9759
922.134	9717
922.244	9667
922.353	9770
922.462	9633
922.571	9591
922.68	9462
922.789	9511
922.898	9420
923.007	9355
923.116	9507
923.224	9454
923.333	9393
923.442	9344
923.55	9279
923.659	9370
923.767	9378
923.876	9222
923.984	9481
924.092	9241
924.201	9336
924.309	9348
924.417	9393
924.525	9253
924.633	9302
924.741	10238
924.849	9135
924.956	9218
925.064	9127
925.172	9036
925.279	9074
925.387	9116
925.494	9161
925.602	9256
925.709	9119
925.816	9024
925.924	9020
926.031	9230
926.138	9047
926.245	9169
926.352	9047
926.459	9100
926.566	9253
926.673	9074
926.779	9028
926.886	8941
926.993	8796
927.099	8800
927.206	8724
927.312	8811
927.419	8883
927.525	8811
927.631	8883
927.737	8705
927.843	8678
927.95	8560
928.056	8716
928.162	8636
928.267	8731
928.373	9313
928.479	8807
928.585	8644
928.69	8667
928.796	8743
928.901	8644
929.007	8446
929.112	8575
929.218	8606
929.323	8533
929.428	8522
929.533	8667
929.638	8423
929.743	8442
929.848	8564
929.953	8530
930.058	8461
930.163	8294
930.267	8317
930.372	8454
930.477	8240
930.581	8492
930.685	8423
930.79	8256
930.894	8336
930.998	8168
931.103	8408
931.207	7997
931.311	8005
931.415	7921
931.519	7795
931.623	7731
