Data from test_V78500241_743.txt Node
Date: Fri Mar 25 14:38:53 CST 2022
User: usil
Spectrometer: V785-0024
Trigger mode: 0
Integration Time (sec): 4.000000E-1
Scans to average: 1
Nonlinearity correction enabled: false
Boxcar width: 0
Storing dark spectrum: false
XAxis mode: Wavelengths
Number of Pixels in Spectrum: 1024
>>>>>Begin Spectral Data<<<<<
801.071	27367
801.214	27138
801.356	26826
801.499	26750
801.641	26838
801.783	26609
801.926	26583
802.068	26568
802.211	26290
802.353	26229
802.496	26050
802.638	26122
802.78	26145
802.923	25997
803.065	26065
803.208	25955
803.35	26065
803.492	26092
803.635	26183
803.777	26153
803.919	26172
804.061	26571
804.204	26237
804.346	26172
804.488	26278
804.63	26286
804.773	26290
804.915	26419
805.057	26446
805.199	26412
805.341	26575
805.483	26887
805.626	26754
805.768	26823
805.91	26902
806.052	27066
806.194	27142
806.336	27458
806.478	27591
806.62	27842
806.762	28029
806.904	28379
807.046	29155
807.188	29273
807.33	29722
807.472	30464
807.614	30977
807.756	32073
807.898	33116
808.04	34740
808.182	36905
808.324	39557
808.465	42768
808.607	46135
808.749	49183
808.891	50921
809.033	51131
809.174	49460
809.316	46500
809.458	42897
809.6	39329
809.741	36414
809.883	34257
810.025	32511
810.166	31529
810.308	30589
810.45	29927
810.591	29239
810.733	28835
810.875	28485
811.016	28173
811.158	27850
811.299	27766
811.441	27545
811.582	27439
811.724	27245
811.865	27032
812.007	27005
812.148	27047
812.29	26918
812.431	27013
812.573	27112
812.714	27036
812.855	27055
812.997	27279
813.138	27310
813.279	27070
813.421	27036
813.562	26921
813.703	26796
813.845	26419
813.986	26275
814.127	25986
814.268	25947
814.41	25795
814.551	25856
814.692	25795
814.833	25613
814.974	25597
815.115	25807
815.256	25533
815.397	25346
815.539	25502
815.68	25400
815.821	25202
815.962	25346
816.103	25129
816.244	25050
816.385	24772
816.526	24882
816.666	24608
816.807	24574
816.948	24574
817.089	24635
817.23	24646
817.371	24547
817.512	24467
817.653	24528
817.793	24460
817.934	24544
818.075	24555
818.216	24498
818.356	24418
818.497	24289
818.638	24251
818.778	24159
818.919	24239
819.06	24251
819.2	24235
819.341	24357
819.481	24270
819.622	24475
819.762	24608
819.903	24585
820.043	24532
820.184	24350
820.324	24330
820.465	24407
820.605	24277
820.746	24350
820.886	24125
821.026	24361
821.167	24346
821.307	24190
821.447	24171
821.588	24045
821.728	23961
821.868	23710
822.008	23562
822.149	23570
822.289	23471
822.429	23391
822.569	23204
822.709	23162
822.849	22984
822.99	23079
823.13	22957
823.27	22942
823.41	22805
823.55	22786
823.69	22805
823.83	22919
823.97	22733
824.11	22645
824.25	22489
824.389	22554
824.529	22531
824.669	22546
824.809	22592
824.949	22713
825.089	22607
825.228	22512
825.368	22382
825.508	22329
825.648	22379
825.787	22341
825.927	22386
826.067	22207
826.206	22261
826.346	22299
826.485	22310
826.625	22242
826.765	22398
826.904	22421
827.044	22055
827.183	21972
827.323	21998
827.462	21956
827.601	21953
827.741	22032
827.88	22139
828.02	21880
828.159	21972
828.298	21968
828.437	22006
828.577	21888
828.716	21983
828.855	21899
828.994	21728
829.134	21705
829.273	21774
829.412	21675
829.551	21534
829.69	21542
829.829	21694
829.968	21614
830.107	21736
830.246	21778
830.385	21595
830.524	21538
830.663	21500
830.802	21431
830.941	21302
831.08	21169
831.219	21363
831.357	21302
831.496	21416
831.635	21340
831.774	21279
831.913	21207
832.051	21142
832.19	21081
832.329	21279
832.467	21199
832.606	21180
832.744	21169
832.883	21329
833.022	21275
833.16	21348
833.299	21641
833.437	21667
833.576	21915
833.714	21850
833.852	21953
833.991	22291
834.129	22333
834.267	22200
834.406	22257
834.544	22207
834.682	22059
834.821	21972
834.959	21876
835.097	21511
835.235	21564
835.373	21500
835.511	21359
835.65	21230
835.788	21096
835.926	20960
836.064	20762
836.202	20845
836.34	20960
836.478	20948
836.615	20796
836.753	20788
836.891	21013
837.029	20773
837.167	20785
837.305	20674
837.443	20754
837.58	20598
837.718	20746
837.856	20659
837.993	20560
838.131	20587
838.269	20480
838.406	20552
838.544	20377
838.681	20298
838.819	20275
838.956	20180
839.094	19997
839.231	20115
839.369	20263
839.506	20492
839.643	20187
839.781	20043
839.918	20020
840.055	20069
840.193	20084
840.33	20054
840.467	20084
840.604	20054
840.742	20313
840.879	19818
841.016	20069
841.153	19947
841.29	20157
841.427	19986
841.564	20092
841.701	20054
841.838	20027
841.975	19902
842.112	19978
842.249	19822
842.385	19772
842.522	20142
842.659	19890
842.796	19803
842.933	19913
843.069	19814
843.206	19845
843.343	20050
843.479	20039
843.616	19963
843.752	19860
843.889	20005
844.025	20130
844.162	20001
844.298	20336
844.435	20301
844.571	20514
844.708	20731
844.844	21367
844.98	21713
845.117	22379
845.253	23383
845.389	25354
845.525	29239
845.661	35258
845.798	42521
845.934	47764
846.07	49696
846.206	48178
846.342	43217
846.478	36007
846.614	29954
846.75	25928
846.886	23467
847.022	22082
847.158	21249
847.294	20648
847.429	20199
847.565	19970
847.701	20100
847.837	19480
847.972	19327
848.108	19426
848.244	19137
848.379	18977
848.515	19019
848.65	18920
848.786	18882
848.921	18810
849.057	18924
849.192	18913
849.328	18837
849.463	18749
849.598	18753
849.734	18776
849.869	18631
850.004	18494
850.14	18623
850.275	18597
850.41	18334
850.545	18407
850.68	18414
850.815	18506
850.95	18467
851.085	18585
851.22	18593
851.355	18475
851.49	18566
851.625	18460
851.76	18509
851.895	18414
852.03	18410
852.165	18369
852.299	18498
852.434	18528
852.569	18582
852.703	18536
852.838	18623
852.973	18650
853.107	18757
853.242	18642
853.376	18540
853.511	18437
853.645	18585
853.78	18768
853.914	18722
854.048	18608
854.183	18764
854.317	18802
854.451	18932
854.585	18764
854.72	18779
854.854	18711
854.988	18570
855.122	18642
855.256	18483
855.39	18490
855.524	18528
855.658	18410
855.792	18494
855.926	18357
856.06	18388
856.194	18498
856.327	18369
856.461	18254
856.595	18258
856.729	18296
856.862	18315
856.996	18395
857.13	18330
857.263	18410
857.397	18361
857.53	18216
857.664	18281
857.797	18456
857.931	18365
858.064	18209
858.197	18365
858.331	18300
858.464	18205
858.597	18030
858.731	18174
858.864	18178
858.997	18190
859.13	18205
859.263	18216
859.396	18239
859.529	17996
859.662	18083
859.795	18102
859.928	18155
860.061	18277
860.194	18190
860.327	18163
860.46	18114
860.592	18232
860.725	18049
860.858	18251
860.99	18083
861.123	18049
861.256	18064
861.388	18136
861.521	18791
861.653	17999
861.786	17882
861.918	17912
862.05	18095
862.183	17927
862.315	18007
862.447	18125
862.58	18045
862.712	17794
862.844	17703
862.976	17824
863.108	17901
863.24	18216
863.372	17668
863.504	17722
863.636	17745
863.768	17840
863.9	17843
864.032	17707
864.164	17722
864.296	17714
864.428	17817
864.559	17828
864.691	17840
864.823	17802
864.954	17817
865.086	17718
865.217	17748
865.349	17646
865.48	17695
865.612	17554
865.743	17889
865.875	17737
866.006	17657
866.137	17691
866.269	17737
866.4	17589
866.531	17649
866.662	17611
866.793	17611
866.924	17676
867.055	17691
867.186	17581
867.317	17638
867.448	17539
867.579	17638
867.71	17532
867.841	17676
867.972	17657
868.103	17589
868.233	17718
868.364	17729
868.495	17733
868.625	17901
868.756	17889
868.886	17878
869.017	17977
869.147	18034
869.278	18057
869.408	17954
869.539	18045
869.669	18038
869.799	17969
869.929	18034
870.06	18136
870.19	18224
870.32	18273
870.45	18311
870.58	18342
870.71	18456
870.84	18525
870.97	18403
871.1	18483
871.23	18566
871.36	18559
871.489	18502
871.619	18688
871.749	18570
871.879	18692
872.008	18681
872.138	18715
872.267	18768
872.397	18646
872.526	18551
872.656	18635
872.785	18578
872.915	18814
873.044	18909
873.173	18875
873.303	18871
873.432	18981
873.561	19008
873.69	18825
873.819	18928
873.948	19103
874.077	19088
874.206	19069
874.335	19137
874.464	19152
874.593	19415
874.722	19339
874.851	19365
874.979	19449
875.108	19544
875.237	19483
875.365	19407
875.494	19594
875.623	19662
875.751	19655
875.88	19731
876.008	19932
876.136	19955
876.265	20225
876.393	20552
876.521	20434
876.65	20533
876.778	20530
876.906	20461
877.034	20571
877.162	20655
877.29	20678
877.418	20918
877.546	20975
877.674	21009
877.802	21173
877.93	21268
878.058	21447
878.185	21599
878.313	21888
878.441	22249
878.568	22687
878.696	23337
878.824	24220
878.951	25327
879.079	26975
879.206	29124
879.333	31274
879.461	33070
879.588	34215
879.715	34124
879.842	33279
879.97	31350
880.097	29113
880.224	27450
880.351	26233
880.478	25263
880.605	24593
880.732	24213
880.859	24136
880.986	23775
881.112	23661
881.239	23414
881.366	23368
881.493	23121
881.619	23254
881.746	23284
881.872	23239
881.999	23220
882.125	23353
882.252	23455
882.378	23364
882.505	23604
882.631	23436
882.757	23356
882.883	23372
883.01	23360
883.136	23299
883.262	23159
883.388	23075
883.514	23178
883.64	23326
883.766	23109
883.892	23044
884.018	23025
884.143	23261
884.269	23341
884.395	23083
884.52	23006
884.646	23140
884.772	22953
884.897	22946
885.023	23022
885.148	23079
885.274	23060
885.399	22987
885.524	22694
885.65	22786
885.775	22481
885.9	22303
886.025	22284
886.15	22097
886.275	21884
886.4	21686
886.525	21561
886.65	21557
886.775	21325
886.9	21370
887.025	21351
887.149	21020
887.274	20880
887.399	20651
887.523	20537
887.648	20438
887.773	20271
887.897	20343
888.021	20256
888.146	20103
888.27	20180
888.395	20111
888.519	20073
888.643	19993
888.767	19993
888.891	19731
889.015	19647
889.139	19674
889.263	19510
889.387	19616
889.511	19814
889.635	19719
889.759	19460
889.883	19365
890.006	19388
890.13	19441
890.254	19175
890.377	19156
890.501	18996
890.624	19023
890.748	19053
890.871	18833
890.995	18817
891.118	18540
891.241	18665
891.364	18559
891.488	18696
891.611	18570
891.734	18620
891.857	18585
891.98	18639
892.103	18521
892.226	18437
892.349	18502
892.471	18296
892.594	18247
892.717	18380
892.839	18296
892.962	18251
893.085	18353
893.207	18197
893.33	18079
893.452	18045
893.575	18140
893.697	18083
893.819	18251
893.941	18174
894.064	18087
894.186	18038
894.308	17935
894.43	18038
894.552	18106
894.674	17977
894.796	17832
894.918	17840
895.04	17836
895.161	17942
895.283	17802
895.405	17771
895.526	17855
895.648	17859
895.769	17786
895.891	17745
896.012	17851
896.134	17798
896.255	17832
896.376	17745
896.498	17718
896.619	17821
896.74	17592
896.861	17859
896.982	18136
897.103	18159
897.224	17980
897.345	17889
897.466	17840
897.587	17779
897.708	17973
897.828	17935
897.949	17840
898.07	17691
898.19	17851
898.311	18045
898.431	17794
898.552	17920
898.672	17973
898.792	17950
898.913	17935
899.033	17809
899.153	17714
899.273	17566
899.393	17638
899.513	17691
899.633	17661
899.753	17657
899.873	17619
899.993	17672
900.113	17703
900.232	17680
900.352	17596
900.472	17539
900.591	17532
900.711	17497
900.83	17459
900.95	17551
901.069	17490
901.189	17376
901.308	17151
901.427	17124
901.546	17147
901.665	17098
901.784	17064
901.904	16949
902.023	16885
902.141	16565
902.26	16546
902.379	16565
902.498	16580
902.617	16360
902.735	16607
902.854	16459
902.973	16413
903.091	16150
903.21	16147
903.328	16120
903.446	15987
903.565	16032
903.683	15949
903.801	15846
903.919	15888
904.038	15934
904.156	15641
904.274	15770
904.392	15587
904.51	15648
904.627	15633
904.745	15831
904.863	15660
904.981	15507
905.098	15355
905.216	15302
905.334	15340
905.451	15340
905.569	15272
905.686	15386
905.803	15245
905.921	15032
906.038	15214
906.155	15051
906.272	15020
906.389	15020
906.506	15005
906.623	14830
906.74	14914
906.857	14644
906.974	14804
907.091	14883
907.208	14941
907.324	14960
907.441	14758
907.557	14587
907.674	14640
907.79	14575
907.907	14488
908.023	14503
908.139	14503
908.256	14533
908.372	14419
908.488	14454
908.604	14366
908.72	14225
908.836	14275
908.952	14256
909.068	14210
909.184	14381
909.3	14271
909.415	14351
909.531	14267
909.647	14065
909.762	14039
909.878	13993
909.993	14111
910.108	13898
910.224	13974
910.339	14088
910.454	14027
910.57	13879
910.685	13723
910.8	14088
910.915	14005
911.03	13898
911.145	13666
911.259	13731
911.374	13723
911.489	13662
911.604	13624
911.718	13445
911.833	13434
911.947	13350
912.062	13255
912.176	13407
912.291	13392
912.405	13419
912.519	13556
912.633	13601
912.748	13430
912.862	13400
912.976	13247
913.09	13221
913.204	13236
913.318	13346
913.431	13308
913.545	13396
913.659	13426
913.772	13278
913.886	13088
914	13141
914.113	13187
914.226	13263
914.34	13175
914.453	13031
914.566	13118
914.68	13072
914.793	12993
914.906	12894
915.019	12894
915.132	12776
915.245	12871
915.358	12867
915.47	12886
915.583	12863
915.696	12890
915.809	13000
915.921	13061
916.034	12817
916.146	12894
916.259	12772
916.371	12867
916.483	12825
916.595	12745
916.708	12791
916.82	12783
916.932	12730
917.044	12726
917.156	12791
917.268	12544
917.38	12616
917.491	12620
917.603	12532
917.715	12730
917.826	12662
917.938	12528
918.049	12330
918.161	12540
918.272	12703
918.384	12585
918.495	12559
918.606	12308
918.717	12330
918.828	12350
918.939	12353
919.05	12254
919.161	12342
919.272	12148
919.383	12239
919.494	12410
919.604	12642
919.715	12361
919.826	12232
919.936	12296
920.047	12361
920.157	12357
920.267	12509
920.378	12350
920.488	12327
920.598	12506
920.708	12730
920.818	12437
920.928	12414
921.038	12597
921.148	12604
921.258	12426
921.368	12213
921.477	12110
921.587	12144
921.697	11988
921.806	12152
921.916	12011
922.025	11878
922.134	11798
922.244	11741
922.353	11794
922.462	11699
922.571	11592
922.68	11410
922.789	11455
922.898	11478
923.007	11425
923.116	11486
923.224	11383
923.333	11360
923.442	11353
923.55	11174
923.659	11284
923.767	11360
923.876	11277
923.984	11315
924.092	11208
924.201	11288
924.309	11235
924.417	11280
924.525	11109
924.633	11223
924.741	11980
924.849	10980
924.956	11136
925.064	10934
925.172	10930
925.279	10923
925.387	11033
925.494	10930
925.602	11094
925.709	11029
925.816	10892
925.924	10885
926.031	11037
926.138	10961
926.245	11003
926.352	10820
926.459	10934
926.566	11064
926.673	10847
926.779	10771
926.886	10771
926.993	10660
927.099	10622
927.206	10523
927.312	10481
927.419	10675
927.525	10577
927.631	10577
927.737	10428
927.843	10531
927.95	10379
928.056	10500
928.162	10504
928.267	10504
928.373	11178
928.479	10542
928.585	10238
928.69	10485
928.796	10481
928.901	10337
929.007	10238
929.112	10360
929.218	10284
929.323	10246
929.428	10360
929.533	10348
929.638	10173
929.743	10207
929.848	10291
929.953	10257
930.058	10135
930.163	9907
930.267	10010
930.372	10067
930.477	10025
930.581	10200
930.685	9998
930.79	9960
930.894	9964
930.998	9850
931.103	10002
931.207	9648
931.311	9614
931.415	9542
931.519	9340
931.623	9329
