Data from test_V78500241_3382.txt Node
Date: Fri Mar 25 14:57:15 CST 2022
User: usil
Spectrometer: V785-0024
Trigger mode: 0
Integration Time (sec): 4.000000E-1
Scans to average: 1
Nonlinearity correction enabled: false
Boxcar width: 0
Storing dark spectrum: false
XAxis mode: Wavelengths
Number of Pixels in Spectrum: 1024
>>>>>Begin Spectral Data<<<<<
801.071	21922
801.214	21835
801.356	21553
801.499	21564
801.641	21408
801.783	21214
801.926	21310
802.068	21199
802.211	21222
802.353	21108
802.496	20914
802.638	20857
802.78	20777
802.923	20826
803.065	20720
803.208	20537
803.35	20670
803.492	20838
803.635	20845
803.777	20594
803.919	20815
804.061	21081
804.204	20823
804.346	20693
804.488	20511
804.63	20659
804.773	20530
804.915	20575
805.057	20545
805.199	20560
805.341	20613
805.483	20826
805.626	20590
805.768	20632
805.91	20587
806.052	20609
806.194	20454
806.336	20609
806.478	20602
806.62	20545
806.762	20640
806.904	20845
807.046	20941
807.188	20842
807.33	20880
807.472	21005
807.614	20902
807.756	20815
807.898	20640
808.04	20636
808.182	20606
808.324	20579
808.465	20651
808.607	20811
808.749	20731
808.891	21017
809.033	20971
809.174	20906
809.316	20952
809.458	20914
809.6	20819
809.741	20902
809.883	20895
810.025	20982
810.166	21024
810.308	21070
810.45	20998
810.591	20963
810.733	20811
810.875	20613
811.016	20526
811.158	20636
811.299	20659
811.441	20769
811.582	20765
811.724	20689
811.865	20663
812.007	20693
812.148	20560
812.29	20632
812.431	20872
812.573	21028
812.714	20994
812.855	21077
812.997	21226
813.138	21249
813.279	21287
813.421	21157
813.562	21039
813.703	20941
813.845	20845
813.986	20492
814.127	20332
814.268	20225
814.41	20286
814.551	20176
814.692	20259
814.833	20218
814.974	20069
815.115	20244
815.256	19944
815.397	20084
815.539	20050
815.68	20024
815.821	19833
815.962	19936
816.103	19788
816.244	19795
816.385	19704
816.526	19666
816.666	19556
816.807	19324
816.948	19457
817.089	19365
817.23	19495
817.371	19217
817.512	19263
817.653	19346
817.793	19285
817.934	19346
818.075	19369
818.216	19445
818.356	19259
818.497	19183
818.638	19004
818.778	19027
818.919	18973
819.06	19141
819.2	19168
819.341	19285
819.481	19183
819.622	19369
819.762	19597
819.903	19381
820.043	19441
820.184	19289
820.324	19320
820.465	19335
820.605	19324
820.746	19187
820.886	19107
821.026	19324
821.167	19183
821.307	19346
821.447	19202
821.588	19137
821.728	18993
821.868	18783
822.008	18791
822.149	18741
822.289	18692
822.429	18540
822.569	18346
822.709	18346
822.849	18228
822.99	18334
823.13	18171
823.27	18155
823.41	17939
823.55	18015
823.69	18038
823.83	17946
823.97	18045
824.11	17794
824.25	17798
824.389	17722
824.529	17771
824.669	17608
824.809	17935
824.949	17874
825.089	17901
825.228	17843
825.368	17501
825.508	17581
825.648	17585
825.787	17665
825.927	17615
826.067	17490
826.206	17581
826.346	17592
826.485	17543
826.625	17482
826.765	17649
826.904	17623
827.044	17406
827.183	17315
827.323	17254
827.462	17436
827.601	17315
827.741	17200
827.88	17250
828.02	17200
828.159	17250
828.298	17311
828.437	17364
828.577	17242
828.716	17395
828.855	17204
828.994	17025
829.134	17029
829.273	17029
829.412	16984
829.551	16995
829.69	17029
829.829	17022
829.968	17067
830.107	17185
830.246	16991
830.385	16987
830.524	16862
830.663	16805
830.802	16816
830.941	16687
831.08	16500
831.219	16729
831.357	16698
831.496	16824
831.635	16679
831.774	16588
831.913	16592
832.051	16459
832.19	16386
832.329	16451
832.467	16356
832.606	16261
832.744	16363
832.883	16390
833.022	16371
833.16	16459
833.299	16329
833.437	16367
833.576	16436
833.714	16394
833.852	16497
833.991	16462
834.129	16493
834.267	16485
834.406	16306
834.544	16462
834.682	16474
834.821	16440
834.959	16596
835.097	16413
835.235	16447
835.373	16417
835.511	16440
835.65	16390
835.788	16299
835.926	16071
836.064	16139
836.202	16173
836.34	16306
836.478	16421
836.615	16356
836.753	16303
836.891	16428
837.029	16386
837.167	16287
837.305	16249
837.443	16166
837.58	16242
837.718	16268
837.856	16310
837.993	16093
838.131	16230
838.269	16188
838.406	16074
838.544	15994
838.681	15960
838.819	15922
838.956	15755
839.094	15778
839.231	15880
839.369	15937
839.506	16112
839.643	16059
839.781	15789
839.918	15785
840.055	15808
840.193	15800
840.33	15690
840.467	15732
840.604	15766
840.742	15903
840.879	15686
841.016	15751
841.153	15542
841.29	15854
841.427	15831
841.564	15728
841.701	15899
841.838	15717
841.975	15644
842.112	15732
842.249	15557
842.385	15507
842.522	15637
842.659	15515
842.796	15618
842.933	15466
843.069	15462
843.206	15473
843.343	15618
843.479	15557
843.616	15500
843.752	15378
843.889	15389
844.025	15424
844.162	15393
844.298	15473
844.435	15344
844.571	15325
844.708	15492
844.844	15526
844.98	15507
845.117	15454
845.253	15272
845.389	15268
845.525	15291
845.661	15230
845.798	15100
845.934	15222
846.07	15081
846.206	15184
846.342	15192
846.478	15066
846.614	14937
846.75	15009
846.886	14872
847.022	14990
847.158	14880
847.294	15024
847.429	15005
847.565	14823
847.701	15051
847.837	14670
847.972	14621
848.108	14758
848.244	14659
848.379	14610
848.515	14575
848.65	14476
848.786	14530
848.921	14530
849.057	14564
849.192	14537
849.328	14533
849.463	14503
849.598	14514
849.734	14484
849.869	14389
850.004	14339
850.14	14374
850.275	14267
850.41	14259
850.545	14240
850.68	14324
850.815	14298
850.95	14305
851.085	14347
851.22	14389
851.355	14290
851.49	14202
851.625	14240
851.76	14252
851.895	14187
852.03	14176
852.165	14191
852.299	14244
852.434	14423
852.569	14294
852.703	14351
852.838	14404
852.973	14408
853.107	14396
853.242	14240
853.376	14111
853.511	13970
853.645	14096
853.78	14267
853.914	14103
854.048	14134
854.183	14062
854.317	14084
854.451	14381
854.585	14138
854.72	14130
854.854	14111
854.988	13986
855.122	14039
855.256	13944
855.39	14096
855.524	14206
855.658	14221
855.792	14214
855.926	14176
856.06	14100
856.194	14309
856.327	14142
856.461	14142
856.595	14081
856.729	14062
856.862	14210
856.996	14172
857.13	14168
857.263	14252
857.397	14278
857.53	14221
857.664	14202
857.797	14214
857.931	14317
858.064	14271
858.197	14176
858.331	14168
858.464	14054
858.597	13967
858.731	14138
858.864	14130
858.997	14142
859.13	14187
859.263	14084
859.396	14195
859.529	14031
859.662	14073
859.795	14100
859.928	14126
860.061	14248
860.194	14393
860.327	14187
860.46	14176
860.592	14343
860.725	14309
860.858	14195
860.99	14130
861.123	14100
861.256	14073
861.388	14164
861.521	14933
861.653	14073
861.786	13993
861.918	14005
862.05	14084
862.183	14065
862.315	14145
862.447	14043
862.58	14168
862.712	13967
862.844	13788
862.976	14027
863.108	13932
863.24	14309
863.372	13856
863.504	13902
863.636	13898
863.768	14073
863.9	13864
864.032	13849
864.164	13875
864.296	13871
864.428	13989
864.559	13997
864.691	14088
864.823	14001
864.954	13951
865.086	13974
865.217	13906
865.349	13906
865.48	13879
865.612	13890
865.743	14054
865.875	13932
866.006	13826
866.137	13925
866.269	13860
866.4	13856
866.531	13868
866.662	13746
866.793	13841
866.924	13932
867.055	13917
867.186	13951
867.317	13947
867.448	13852
867.579	13833
867.71	13765
867.841	13826
867.972	13967
868.103	13852
868.233	13993
868.364	13936
868.495	13974
868.625	14145
868.756	14294
868.886	14084
869.017	14164
869.147	14221
869.278	14282
869.408	14142
869.539	14073
869.669	14301
869.799	14161
869.929	14267
870.06	14317
870.19	14518
870.32	14355
870.45	14526
870.58	14533
870.71	14613
870.84	14629
870.97	14545
871.1	14571
871.23	14686
871.36	14716
871.489	14750
871.619	14689
871.749	14720
871.879	14815
872.008	14872
872.138	14853
872.267	14773
872.397	14659
872.526	14518
872.656	14564
872.785	14682
872.915	14762
873.044	14788
873.173	14830
873.303	14845
873.432	14849
873.561	14880
873.69	14819
873.819	14716
873.948	14857
874.077	14872
874.206	14788
874.335	14800
874.464	14975
874.593	15104
874.722	15169
874.851	15123
874.979	15188
875.108	15230
875.237	15013
875.365	15028
875.494	15055
875.623	15199
875.751	15043
875.88	15135
876.008	15317
876.136	15374
876.265	15545
876.393	15671
876.521	15747
876.65	15618
876.778	15519
876.906	15488
877.034	15481
877.162	15557
877.29	15519
877.418	15443
877.546	15447
877.674	15580
877.802	15450
877.93	15572
878.058	15561
878.185	15542
878.313	15534
878.441	15641
878.568	15408
878.696	15485
878.824	15496
878.951	15667
879.079	15679
879.206	15808
879.333	15717
879.461	15686
879.588	15648
879.715	15804
879.842	15819
879.97	15694
880.097	15340
880.224	15367
880.351	15488
880.478	15386
880.605	15393
880.732	15367
880.859	15576
880.986	15420
881.112	15534
881.239	15359
881.366	15173
881.493	15085
881.619	14994
881.746	14944
881.872	15127
881.999	15047
882.125	15127
882.252	15150
882.378	15169
882.505	15154
882.631	14994
882.757	14823
882.883	14811
883.01	14853
883.136	14872
883.262	14659
883.388	14667
883.514	14895
883.64	14826
883.766	14834
883.892	14697
884.018	14758
884.143	14838
884.269	14914
884.395	14659
884.52	14568
884.646	14526
884.772	14431
884.897	14507
885.023	14598
885.148	14651
885.274	14762
885.399	14636
885.524	14526
885.65	14579
885.775	14598
885.9	14648
886.025	14716
886.15	14705
886.275	14560
886.4	14473
886.525	14507
886.65	14511
886.775	14617
886.9	14743
887.025	14883
887.149	14606
887.274	14511
887.399	14438
887.523	14385
887.648	14336
887.773	14351
887.897	14484
888.021	14503
888.146	14347
888.27	14545
888.395	14632
888.519	14530
888.643	14431
888.767	14541
888.891	14320
889.015	14286
889.139	14294
889.263	14275
889.387	14328
889.511	14476
889.635	14362
889.759	14286
889.883	14218
890.006	14328
890.13	14503
890.254	14206
890.377	14218
890.501	14020
890.624	14138
890.748	14142
890.871	13940
890.995	13944
891.118	13860
891.241	13947
891.364	14012
891.488	14024
891.611	13978
891.734	14024
891.857	14043
891.98	13967
892.103	14107
892.226	13963
892.349	13978
892.471	13845
892.594	13974
892.717	14031
892.839	13951
892.962	13982
893.085	14035
893.207	14008
893.33	13883
893.452	13883
893.575	14088
893.697	14012
893.819	14092
893.941	14123
894.064	14134
894.186	13868
894.308	13936
894.43	14142
894.552	14145
894.674	14142
894.796	13986
894.918	14073
895.04	14035
895.161	14096
895.283	14161
895.405	14008
895.526	14096
895.648	14096
895.769	14005
895.891	14176
896.012	14214
896.134	14149
896.255	14225
896.376	14081
896.498	14278
896.619	14275
896.74	14157
896.861	14199
896.982	14533
897.103	14708
897.224	14415
897.345	14427
897.466	14404
897.587	14431
897.708	14530
897.828	14552
897.949	14457
898.07	14351
898.19	14374
898.311	14545
898.431	14431
898.552	14533
898.672	14667
898.792	14610
898.913	14598
899.033	14450
899.153	14358
899.273	14362
899.393	14362
899.513	14419
899.633	14385
899.753	14381
899.873	14271
899.993	14351
900.113	14393
900.232	14385
900.352	14358
900.472	14290
900.591	14161
900.711	14214
900.83	14218
900.95	14396
901.069	14404
901.189	14142
901.308	13986
901.427	13845
901.546	13913
901.665	13955
901.784	13917
901.904	13666
902.023	13746
902.141	13476
902.26	13419
902.379	13544
902.498	13556
902.617	13350
902.735	13438
902.854	13533
902.973	13415
903.091	13232
903.21	13171
903.328	13168
903.446	13061
903.565	13080
903.683	13034
903.801	12981
903.919	13042
904.038	13008
904.156	12833
904.274	12920
904.392	12905
904.51	12852
904.627	12867
904.745	12935
904.863	12905
904.981	12620
905.098	12513
905.216	12559
905.334	12623
905.451	12570
905.569	12532
905.686	12574
905.803	12604
905.921	12399
906.038	12471
906.155	12414
906.272	12350
906.389	12232
906.506	12270
906.623	12167
906.74	12136
906.857	12041
906.974	12022
907.091	12194
907.208	12372
907.324	12171
907.441	12136
907.557	11939
907.674	11832
907.79	11874
907.907	11851
908.023	11942
908.139	11939
908.256	11874
908.372	11798
908.488	11821
908.604	11627
908.72	11619
908.836	11558
908.952	11619
909.068	11733
909.184	11802
909.3	11714
909.415	11707
909.531	11634
909.647	11452
909.762	11444
909.878	11391
909.993	11463
910.108	11459
910.224	11425
910.339	11360
910.454	11368
910.57	11334
910.685	11216
910.8	11467
910.915	11440
911.03	11315
911.145	11086
911.259	11086
911.374	11178
911.489	11090
911.604	11025
911.718	10923
911.833	10923
911.947	10782
912.062	10771
912.176	10843
912.291	10938
912.405	10919
912.519	10987
912.633	11033
912.748	10938
912.862	10843
912.976	10729
913.09	10706
913.204	10702
913.318	10816
913.431	10812
913.545	10733
913.659	10980
913.772	10763
913.886	10664
914	10580
914.113	10717
914.226	10767
914.34	10748
914.453	10542
914.566	10683
914.68	10641
914.793	10584
914.906	10421
915.019	10379
915.132	10341
915.245	10367
915.358	10432
915.47	10428
915.583	10428
915.696	10440
915.809	10527
915.921	10569
916.034	10379
916.146	10356
916.259	10386
916.371	10493
916.483	10413
916.595	10337
916.708	10405
916.82	10375
916.932	10322
917.044	10242
917.156	10314
917.268	10207
917.38	10227
917.491	10253
917.603	10204
917.715	10348
917.826	10371
917.938	10207
918.049	10074
918.161	10280
918.272	10379
918.384	10447
918.495	10238
918.606	10116
918.717	10063
918.828	10162
918.939	10223
919.05	10071
919.161	10101
919.272	9975
919.383	10002
919.494	10169
919.604	10371
919.715	10169
919.826	10086
919.936	10093
920.047	10150
920.157	10196
920.267	10352
920.378	10215
920.488	10124
920.598	10424
920.708	10516
920.818	10268
920.928	10352
921.038	10531
921.148	10500
921.258	10204
921.368	10116
921.477	10059
921.587	9987
921.697	9835
921.806	10105
921.916	9934
922.025	9785
922.134	9781
922.244	9667
922.353	9808
922.462	9553
922.571	9599
922.68	9435
922.789	9389
922.898	9393
923.007	9416
923.116	9458
923.224	9439
923.333	9389
923.442	9256
923.55	9203
923.659	9283
923.767	9283
923.876	9275
923.984	9351
924.092	9157
924.201	9230
924.309	9329
924.417	9253
924.525	9211
924.633	9264
924.741	10143
924.849	9062
924.956	9192
925.064	9001
925.172	8975
925.279	8979
925.387	9055
925.494	9058
925.602	9169
925.709	9131
925.816	9020
925.924	9066
926.031	9150
926.138	9013
926.245	9123
926.352	8960
926.459	9138
926.566	9218
926.673	9017
926.779	8998
926.886	8960
926.993	8811
927.099	8834
927.206	8743
927.312	8674
927.419	8792
927.525	8796
927.631	8830
927.737	8731
927.843	8644
927.95	8541
928.056	8667
928.162	8613
928.267	8708
928.373	9275
928.479	8769
928.585	8518
928.69	8610
928.796	8682
928.901	8610
929.007	8438
929.112	8552
929.218	8499
929.323	8499
929.428	8427
929.533	8613
929.638	8412
929.743	8476
929.848	8518
929.953	8484
930.058	8324
930.163	8267
930.267	8313
930.372	8427
930.477	8214
930.581	8488
930.685	8309
930.79	8153
930.894	8294
930.998	8195
931.103	8332
931.207	7989
931.311	7875
931.415	7887
931.519	7750
931.623	7727
