Data from test_V78500241_1920.txt Node
Date: Fri Mar 25 14:47:04 CST 2022
User: usil
Spectrometer: V785-0024
Trigger mode: 0
Integration Time (sec): 4.000000E-1
Scans to average: 1
Nonlinearity correction enabled: false
Boxcar width: 0
Storing dark spectrum: false
XAxis mode: Wavelengths
Number of Pixels in Spectrum: 1024
>>>>>Begin Spectral Data<<<<<
801.071	22070
801.214	21934
801.356	21682
801.499	21671
801.641	21534
801.783	21519
801.926	21462
802.068	21450
802.211	21252
802.353	21260
802.496	21112
802.638	20883
802.78	20754
802.923	20910
803.065	20701
803.208	20804
803.35	20868
803.492	20796
803.635	20906
803.777	20815
803.919	20933
804.061	21188
804.204	20891
804.346	20788
804.488	20667
804.63	20785
804.773	20556
804.915	20697
805.057	20762
805.199	20625
805.341	20762
805.483	20796
805.626	20750
805.768	20705
805.91	20678
806.052	20648
806.194	20594
806.336	20773
806.478	20617
806.62	20655
806.762	20872
806.904	20876
807.046	20906
807.188	20982
807.33	21108
807.472	21001
807.614	20952
807.756	20891
807.898	20834
808.04	20788
808.182	20739
808.324	20716
808.465	20880
808.607	20967
808.749	20963
808.891	21081
809.033	21192
809.174	21100
809.316	21001
809.458	21039
809.6	21066
809.741	21165
809.883	21127
810.025	21199
810.166	21344
810.308	21218
810.45	21138
810.591	20910
810.733	20994
810.875	20975
811.016	20800
811.158	20708
811.299	20819
811.441	20963
811.582	20998
811.724	20773
811.865	20906
812.007	20891
812.148	20769
812.29	20872
812.431	20941
812.573	21096
812.714	21336
812.855	21199
812.997	21386
813.138	21625
813.279	21401
813.421	21313
813.562	21150
813.703	21123
813.845	20925
813.986	20788
814.127	20530
814.268	20412
814.41	20438
814.551	20412
814.692	20415
814.833	20294
814.974	20267
815.115	20271
815.256	20172
815.397	20202
815.539	20134
815.68	20183
815.821	19921
815.962	20081
816.103	20027
816.244	19868
816.385	19700
816.526	19814
816.666	19765
816.807	19506
816.948	19609
817.089	19620
817.23	19590
817.371	19480
817.512	19491
817.653	19510
817.793	19343
817.934	19514
818.075	19529
818.216	19460
818.356	19343
818.497	19312
818.638	19244
818.778	19164
818.919	19179
819.06	19244
819.2	19263
819.341	19358
819.481	19339
819.622	19445
819.762	19700
819.903	19559
820.043	19533
820.184	19480
820.324	19506
820.465	19533
820.605	19438
820.746	19441
820.886	19278
821.026	19502
821.167	19335
821.307	19537
821.447	19487
821.588	19312
821.728	19171
821.868	19027
822.008	18901
822.149	18954
822.289	18909
822.429	18612
822.569	18589
822.709	18506
822.849	18547
822.99	18308
823.13	18330
823.27	18403
823.41	18243
823.55	18125
823.69	18254
823.83	18254
823.97	18057
824.11	17942
824.25	17954
824.389	18022
824.529	18049
824.669	17958
824.809	17999
824.949	18076
825.089	17999
825.228	17893
825.368	17680
825.508	17756
825.648	17828
825.787	17794
825.927	17863
826.067	17634
826.206	17767
826.346	17726
826.485	17767
826.625	17756
826.765	17786
826.904	17809
827.044	17562
827.183	17573
827.323	17455
827.462	17630
827.601	17425
827.741	17379
827.88	17467
828.02	17280
828.159	17455
828.298	17501
828.437	17505
828.577	17379
828.716	17543
828.855	17429
828.994	17303
829.134	17216
829.273	17189
829.412	17151
829.551	17132
829.69	17197
829.829	17337
829.968	17315
830.107	17284
830.246	17212
830.385	17147
830.524	17166
830.663	17037
830.802	16908
830.941	16862
831.08	16759
831.219	16953
831.357	16908
831.496	17029
831.635	16839
831.774	16786
831.913	16672
832.051	16634
832.19	16729
832.329	16698
832.467	16504
832.606	16516
832.744	16462
832.883	16519
833.022	16470
833.16	16508
833.299	16558
833.437	16599
833.576	16527
833.714	16565
833.852	16584
833.991	16615
834.129	16656
834.267	16603
834.406	16599
834.544	16546
834.682	16561
834.821	16580
834.959	16740
835.097	16645
835.235	16538
835.373	16675
835.511	16611
835.65	16466
835.788	16451
835.926	16474
836.064	16280
836.202	16402
836.34	16493
836.478	16554
836.615	16508
836.753	16558
836.891	16569
837.029	16679
837.167	16519
837.305	16542
837.443	16341
837.58	16398
837.718	16386
837.856	16451
837.993	16242
838.131	16367
838.269	16109
838.406	16363
838.544	16265
838.681	15983
838.819	16105
838.956	15972
839.094	15918
839.231	15975
839.369	16017
839.506	16382
839.643	16093
839.781	15922
839.918	15915
840.055	15907
840.193	15949
840.33	15823
840.467	15903
840.604	15945
840.742	16071
840.879	15800
841.016	15857
841.153	15720
841.29	16128
841.427	15907
841.564	15960
841.701	15968
841.838	15876
841.975	15865
842.112	15816
842.249	15766
842.385	15709
842.522	15922
842.659	15698
842.796	15698
842.933	15709
843.069	15641
843.206	15587
843.343	15918
843.479	15743
843.616	15675
843.752	15431
843.889	15564
844.025	15587
844.162	15412
844.298	15660
844.435	15561
844.571	15443
844.708	15534
844.844	15682
844.98	15614
845.117	15633
845.253	15416
845.389	15363
845.525	15344
845.661	15439
845.798	15275
845.934	15355
846.07	15363
846.206	15332
846.342	15450
846.478	15325
846.614	15097
846.75	15097
846.886	14963
847.022	15116
847.158	15123
847.294	15032
847.429	15028
847.565	15089
847.701	15344
847.837	14826
847.972	14788
848.108	14887
848.244	14967
848.379	14743
848.515	14712
848.65	14560
848.786	14625
848.921	14693
849.057	14739
849.192	14811
849.328	14769
849.463	14830
849.598	14590
849.734	14579
849.869	14545
850.004	14541
850.14	14450
850.275	14404
850.41	14358
850.545	14434
850.68	14438
850.815	14404
850.95	14332
851.085	14556
851.22	14518
851.355	14484
851.49	14492
851.625	14427
851.76	14408
851.895	14400
852.03	14259
852.165	14396
852.299	14518
852.434	14495
852.569	14545
852.703	14530
852.838	14545
852.973	14640
853.107	14632
853.242	14400
853.376	14294
853.511	14294
853.645	14332
853.78	14461
853.914	14278
854.048	14347
854.183	14248
854.317	14351
854.451	14461
854.585	14393
854.72	14278
854.854	14393
854.988	14275
855.122	14225
855.256	14157
855.39	14259
855.524	14412
855.658	14374
855.792	14259
855.926	14362
856.06	14396
856.194	14400
856.327	14320
856.461	14362
856.595	14244
856.729	14286
856.862	14419
856.996	14415
857.13	14408
857.263	14415
857.397	14374
857.53	14309
857.664	14362
857.797	14374
857.931	14351
858.064	14343
858.197	14537
858.331	14324
858.464	14336
858.597	14206
858.731	14286
858.864	14332
858.997	14320
859.13	14419
859.263	14400
859.396	14393
859.529	14237
859.662	14237
859.795	14248
859.928	14294
860.061	14431
860.194	14438
860.327	14320
860.46	14294
860.592	14465
860.725	14545
860.858	14332
860.99	14286
861.123	14263
861.256	14351
861.388	14256
861.521	15123
861.653	14244
861.786	14111
861.918	14176
862.05	14278
862.183	14278
862.315	14256
862.447	14275
862.58	14267
862.712	14092
862.844	14039
862.976	14111
863.108	14058
863.24	14434
863.372	14016
863.504	14039
863.636	14172
863.768	14088
863.9	14008
864.032	14035
864.164	14077
864.296	14180
864.428	14309
864.559	14214
864.691	14149
864.823	14149
864.954	14111
865.086	14084
865.217	14050
865.349	14020
865.48	14043
865.612	14100
865.743	14309
865.875	14123
866.006	14062
866.137	14092
866.269	14069
866.4	14035
866.531	14081
866.662	13932
866.793	14077
866.924	14062
867.055	14176
867.186	14046
867.317	14027
867.448	13967
867.579	13993
867.71	14111
867.841	13921
867.972	14077
868.103	14138
868.233	14096
868.364	14149
868.495	14081
868.625	14339
868.756	14427
868.886	14214
869.017	14286
869.147	14347
869.278	14442
869.408	14400
869.539	14263
869.669	14362
869.799	14423
869.929	14419
870.06	14442
870.19	14575
870.32	14602
870.45	14644
870.58	14697
870.71	14815
870.84	14918
870.97	14792
871.1	14720
871.23	14891
871.36	14925
871.489	14781
871.619	14967
871.749	14990
871.879	14948
872.008	15043
872.138	14853
872.267	14937
872.397	14842
872.526	14804
872.656	14800
872.785	14868
872.915	15047
873.044	14979
873.173	14960
873.303	14990
873.432	14990
873.561	15104
873.69	14990
873.819	15024
873.948	15020
874.077	15051
874.206	14921
874.335	14994
874.464	15085
874.593	15180
874.722	15230
874.851	15344
874.979	15348
875.108	15283
875.237	15252
875.365	15241
875.494	15222
875.623	15351
875.751	15241
875.88	15302
876.008	15485
876.136	15557
876.265	15660
876.393	15941
876.521	15785
876.65	15736
876.778	15774
876.906	15797
877.034	15648
877.162	15808
877.29	15671
877.418	15709
877.546	15732
877.674	15694
877.802	15766
877.93	15686
878.058	15622
878.185	15622
878.313	15682
878.441	15770
878.568	15584
878.696	15675
878.824	15739
878.951	15694
879.079	15945
879.206	15960
879.333	15873
879.461	15785
879.588	15850
879.715	15888
879.842	16025
879.97	15797
880.097	15504
880.224	15599
880.351	15564
880.478	15591
880.605	15504
880.732	15595
880.859	15854
880.986	15576
881.112	15507
881.239	15534
881.366	15363
881.493	15188
881.619	15169
881.746	15279
881.872	15222
881.999	15230
882.125	15116
882.252	15169
882.378	15241
882.505	15420
882.631	15184
882.757	15009
882.883	15066
883.01	15032
883.136	14967
883.262	14864
883.388	14963
883.514	15039
883.64	15157
883.766	14998
883.892	14830
884.018	14887
884.143	15104
884.269	15097
884.395	14811
884.52	14819
884.646	14731
884.772	14693
884.897	14651
885.023	14651
885.148	14792
885.274	14864
885.399	14910
885.524	14686
885.65	14853
885.775	14804
885.9	14667
886.025	14876
886.15	14724
886.275	14807
886.4	14590
886.525	14689
886.65	14613
886.775	14701
886.9	14883
887.025	14929
887.149	14644
887.274	14556
887.399	14541
887.523	14629
887.648	14564
887.773	14450
887.897	14655
888.021	14701
888.146	14568
888.27	14743
888.395	14735
888.519	14663
888.643	14674
888.767	14602
888.891	14579
889.015	14412
889.139	14533
889.263	14336
889.387	14526
889.511	14724
889.635	14499
889.759	14351
889.883	14328
890.006	14366
890.13	14507
890.254	14366
890.377	14438
890.501	14168
890.624	14119
890.748	14320
890.871	14149
890.995	14138
891.118	13997
891.241	14107
891.364	14115
891.488	14370
891.611	14092
891.734	14111
891.857	14176
891.98	14123
892.103	14237
892.226	14199
892.349	14107
892.471	13993
892.594	14123
892.717	14115
892.839	13997
892.962	14092
893.085	14206
893.207	14145
893.33	14031
893.452	14111
893.575	14180
893.697	14168
893.819	14336
893.941	14355
894.064	14240
894.186	14123
894.308	14058
894.43	14278
894.552	14370
894.674	14278
894.796	14153
894.918	14149
895.04	14161
895.161	14206
895.283	14259
895.405	14199
895.526	14256
895.648	14187
895.769	14275
895.891	14313
896.012	14377
896.134	14256
896.255	14237
896.376	14229
896.498	14355
896.619	14286
896.74	14237
896.861	14313
896.982	14693
897.103	14826
897.224	14648
897.345	14587
897.466	14469
897.587	14423
897.708	14708
897.828	14518
897.949	14606
898.07	14423
898.19	14511
898.311	14727
898.431	14480
898.552	14686
898.672	14712
898.792	14724
898.913	14659
899.033	14579
899.153	14526
899.273	14442
899.393	14541
899.513	14480
899.633	14495
899.753	14511
899.873	14450
899.993	14434
900.113	14389
900.232	14511
900.352	14396
900.472	14438
900.591	14278
900.711	14427
900.83	14263
900.95	14450
901.069	14366
901.189	14267
901.308	14096
901.427	13967
901.546	14115
901.665	14027
901.784	14088
901.904	13883
902.023	13890
902.141	13655
902.26	13563
902.379	13605
902.498	13639
902.617	13540
902.735	13620
902.854	13632
902.973	13590
903.091	13240
903.21	13308
903.328	13331
903.446	13327
903.565	13175
903.683	13255
903.801	13050
903.919	13194
904.038	13168
904.156	12966
904.274	13046
904.392	13004
904.51	12977
904.627	12973
904.745	13046
904.863	13080
904.981	12814
905.098	12681
905.216	12741
905.334	12749
905.451	12715
905.569	12711
905.686	12730
905.803	12722
905.921	12547
906.038	12597
906.155	12589
906.272	12357
906.389	12448
906.506	12353
906.623	12228
906.74	12262
906.857	12209
906.974	12213
907.091	12399
907.208	12456
907.324	12327
907.441	12239
907.557	12152
907.674	12098
907.79	11904
907.907	12064
908.023	12068
908.139	12026
908.256	11958
908.372	11988
908.488	11908
908.604	11802
908.72	11821
908.836	11726
908.952	11756
909.068	11790
909.184	11908
909.3	11824
909.415	11866
909.531	11882
909.647	11581
909.762	11539
909.878	11532
909.993	11554
910.108	11562
910.224	11623
910.339	11619
910.454	11490
910.57	11387
910.685	11311
910.8	11554
910.915	11551
911.03	11490
911.145	11227
911.259	11212
911.374	11307
911.489	11124
911.604	11185
911.718	11071
911.833	10991
911.947	10892
912.062	10904
912.176	11006
912.291	10953
912.405	11048
912.519	11162
912.633	11299
912.748	11094
912.862	11045
912.976	10889
913.09	10797
913.204	10820
913.318	10938
913.431	11029
913.545	10968
913.659	10965
913.772	10904
913.886	10763
914	10710
914.113	10900
914.226	10889
914.34	10889
914.453	10672
914.566	10885
914.68	10664
914.793	10653
914.906	10542
915.019	10481
915.132	10337
915.245	10535
915.358	10500
915.47	10554
915.583	10542
915.696	10565
915.809	10687
915.921	10607
916.034	10527
916.146	10580
916.259	10489
916.371	10554
916.483	10500
916.595	10481
916.708	10462
916.82	10455
916.932	10394
917.044	10428
917.156	10390
917.268	10352
917.38	10379
917.491	10379
917.603	10348
917.715	10367
917.826	10462
917.938	10386
918.049	10207
918.161	10367
918.272	10386
918.384	10428
918.495	10413
918.606	10238
918.717	10207
918.828	10238
918.939	10303
919.05	10135
919.161	10215
919.272	10067
919.383	10162
919.494	10257
919.604	10371
919.715	10215
919.826	10082
919.936	10276
920.047	10356
920.157	10287
920.267	10432
920.378	10341
920.488	10246
920.598	10398
920.708	10607
920.818	10363
920.928	10493
921.038	10573
921.148	10550
921.258	10253
921.368	10204
921.477	10158
921.587	10086
921.697	9911
921.806	10166
921.916	9926
922.025	9827
922.134	9793
922.244	9751
922.353	9816
922.462	9728
922.571	9549
922.68	9473
922.789	9523
922.898	9481
923.007	9405
923.116	9557
923.224	9534
923.333	9492
923.442	9344
923.55	9313
923.659	9389
923.767	9382
923.876	9340
923.984	9424
924.092	9325
924.201	9313
924.309	9355
924.417	9302
924.525	9348
924.633	9306
924.741	10265
924.849	9089
924.956	9256
925.064	9104
925.172	9028
925.279	9123
925.387	9112
925.494	9192
925.602	9260
925.709	9260
925.816	9051
925.924	9161
926.031	9233
926.138	9214
926.245	9150
926.352	9039
926.459	9233
926.566	9291
926.673	9089
926.779	9017
926.886	8952
926.993	8925
927.099	8895
927.206	8792
927.312	8781
927.419	8906
927.525	8910
927.631	8925
927.737	8693
927.843	8807
927.95	8602
928.056	8724
928.162	8720
928.267	8746
928.373	9454
928.479	8819
928.585	8693
928.69	8731
928.796	8788
928.901	8602
929.007	8537
929.112	8708
929.218	8625
929.323	8617
929.428	8587
929.533	8712
929.638	8511
929.743	8488
929.848	8629
929.953	8560
930.058	8438
930.163	8313
930.267	8271
930.372	8473
930.477	8328
930.581	8594
930.685	8434
930.79	8301
930.894	8275
930.998	8275
931.103	8355
931.207	8123
931.311	8046
931.415	8016
931.519	7795
931.623	7795
