Data from test_V78500241_2692.txt Node
Date: Fri Mar 25 14:52:27 CST 2022
User: usil
Spectrometer: V785-0024
Trigger mode: 0
Integration Time (sec): 4.000000E-1
Scans to average: 1
Nonlinearity correction enabled: false
Boxcar width: 0
Storing dark spectrum: false
XAxis mode: Wavelengths
Number of Pixels in Spectrum: 1024
>>>>>Begin Spectral Data<<<<<
801.071	22017
801.214	21918
801.356	21686
801.499	21644
801.641	21431
801.783	21351
801.926	21370
802.068	21272
802.211	21291
802.353	21131
802.496	21074
802.638	20834
802.78	20788
802.923	20724
803.065	20739
803.208	20594
803.35	20701
803.492	20895
803.635	20834
803.777	20708
803.919	20785
804.061	21043
804.204	20842
804.346	20655
804.488	20556
804.63	20720
804.773	20530
804.915	20746
805.057	20720
805.199	20625
805.341	20663
805.483	20739
805.626	20765
805.768	20522
805.91	20750
806.052	20682
806.194	20499
806.336	20819
806.478	20598
806.62	20560
806.762	20632
806.904	20849
807.046	21005
807.188	20990
807.33	20971
807.472	20872
807.614	20838
807.756	20895
807.898	20811
808.04	20651
808.182	20617
808.324	20705
808.465	20724
808.607	20777
808.749	21085
808.891	21074
809.033	21207
809.174	21112
809.316	20895
809.458	21058
809.6	20952
809.741	20990
809.883	21062
810.025	21043
810.166	21211
810.308	21173
810.45	21119
810.591	20971
810.733	20842
810.875	20941
811.016	20651
811.158	20541
811.299	20804
811.441	20979
811.582	20868
811.724	20864
811.865	20746
812.007	20754
812.148	20750
812.29	20815
812.431	20899
812.573	21028
812.714	21116
812.855	21306
812.997	21291
813.138	21576
813.279	21363
813.421	21241
813.562	21081
813.703	21138
813.845	20864
813.986	20575
814.127	20457
814.268	20427
814.41	20313
814.551	20317
814.692	20389
814.833	20275
814.974	20233
815.115	20267
815.256	20199
815.397	20142
815.539	20168
815.68	20088
815.821	19967
815.962	20081
816.103	20024
816.244	19807
816.385	19845
816.526	19731
816.666	19624
816.807	19460
816.948	19556
817.089	19601
817.23	19453
817.371	19521
817.512	19552
817.653	19449
817.793	19403
817.934	19362
818.075	19426
818.216	19552
818.356	19468
818.497	19316
818.638	19091
818.778	19179
818.919	19095
819.06	19072
819.2	19156
819.341	19343
819.481	19365
819.622	19540
819.762	19651
819.903	19491
820.043	19567
820.184	19369
820.324	19430
820.465	19449
820.605	19457
820.746	19377
820.886	19285
821.026	19354
821.167	19415
821.307	19495
821.447	19339
821.588	19232
821.728	19076
821.868	18973
822.008	18783
822.149	18817
822.289	18886
822.429	18555
822.569	18559
822.709	18532
822.849	18399
822.99	18323
823.13	18197
823.27	18376
823.41	18174
823.55	18095
823.69	18133
823.83	18106
823.97	18098
824.11	17893
824.25	17767
824.389	17916
824.529	17927
824.669	17832
824.809	17977
824.949	17927
825.089	17885
825.228	17984
825.368	17718
825.508	17672
825.648	17733
825.787	17668
825.927	17722
826.067	17646
826.206	17668
826.346	17695
826.485	17756
826.625	17604
826.765	17832
826.904	17532
827.044	17376
827.183	17376
827.323	17387
827.462	17467
827.601	17315
827.741	17254
827.88	17349
828.02	17254
828.159	17250
828.298	17368
828.437	17436
828.577	17311
828.716	17505
828.855	17254
828.994	17162
829.134	17136
829.273	17261
829.412	17098
829.551	17086
829.69	17109
829.829	17178
829.968	17258
830.107	17155
830.246	17064
830.385	17159
830.524	16946
830.663	16972
830.802	16889
830.941	16740
831.08	16740
831.219	16778
831.357	16835
831.496	16957
831.635	16736
831.774	16649
831.913	16675
832.051	16580
832.19	16573
832.329	16596
832.467	16554
832.606	16344
832.744	16447
832.883	16432
833.022	16417
833.16	16455
833.299	16485
833.437	16558
833.576	16531
833.714	16459
833.852	16417
833.991	16561
834.129	16535
834.267	16656
834.406	16504
834.544	16550
834.682	16466
834.821	16561
834.959	16679
835.097	16451
835.235	16592
835.373	16409
835.511	16580
835.65	16284
835.788	16352
835.926	16329
836.064	16131
836.202	16230
836.34	16371
836.478	16497
836.615	16474
836.753	16493
836.891	16424
837.029	16508
837.167	16436
837.305	16390
837.443	16173
837.58	16265
837.718	16371
837.856	16284
837.993	16310
838.131	16348
838.269	16223
838.406	16192
838.544	16177
838.681	16017
838.819	15968
838.956	15861
839.094	15884
839.231	15926
839.369	16040
839.506	16173
839.643	16059
839.781	15793
839.918	15827
840.055	15819
840.193	15732
840.33	15762
840.467	15895
840.604	15865
840.742	16055
840.879	15766
841.016	15759
841.153	15762
841.29	15945
841.427	15915
841.564	15857
841.701	15808
841.838	15755
841.975	15622
842.112	15717
842.249	15675
842.385	15561
842.522	15823
842.659	15557
842.796	15584
842.933	15644
843.069	15504
843.206	15622
843.343	15690
843.479	15724
843.616	15686
843.752	15466
843.889	15340
844.025	15576
844.162	15382
844.298	15580
844.435	15454
844.571	15317
844.708	15412
844.844	15591
844.98	15485
845.117	15462
845.253	15393
845.389	15351
845.525	15386
845.661	15332
845.798	15188
845.934	15260
846.07	15184
846.206	15332
846.342	15370
846.478	15226
846.614	15001
846.75	14929
846.886	14948
847.022	15005
847.158	14963
847.294	14921
847.429	14956
847.565	14914
847.701	15252
847.837	14735
847.972	14689
848.108	14861
848.244	14781
848.379	14651
848.515	14617
848.65	14575
848.786	14602
848.921	14625
849.057	14583
849.192	14686
849.328	14522
849.463	14651
849.598	14579
849.734	14556
849.869	14457
850.004	14495
850.14	14366
850.275	14389
850.41	14259
850.545	14298
850.68	14252
850.815	14396
850.95	14320
851.085	14583
851.22	14415
851.355	14370
851.49	14290
851.625	14351
851.76	14362
851.895	14248
852.03	14225
852.165	14332
852.299	14423
852.434	14461
852.569	14374
852.703	14320
852.838	14419
852.973	14541
853.107	14503
853.242	14298
853.376	14298
853.511	14145
853.645	14206
853.78	14328
853.914	14282
854.048	14275
854.183	14119
854.317	14233
854.451	14374
854.585	14221
854.72	14225
854.854	14305
854.988	14191
855.122	14206
855.256	14073
855.39	14263
855.524	14301
855.658	14248
855.792	14328
855.926	14275
856.06	14286
856.194	14286
856.327	14256
856.461	14100
856.595	14183
856.729	14161
856.862	14370
856.996	14187
857.13	14320
857.263	14347
857.397	14343
857.53	14229
857.664	14240
857.797	14377
857.931	14400
858.064	14210
858.197	14278
858.331	14202
858.464	14172
858.597	14103
858.731	14195
858.864	14206
858.997	14161
859.13	14282
859.263	14278
859.396	14389
859.529	14206
859.662	14221
859.795	14199
859.928	14290
860.061	14412
860.194	14442
860.327	14259
860.46	14229
860.592	14408
860.725	14263
860.858	14263
860.99	14282
861.123	14123
861.256	14233
861.388	14294
861.521	14781
861.653	14062
861.786	14031
861.918	14062
862.05	14199
862.183	14115
862.315	14149
862.447	14271
862.58	14210
862.712	13974
862.844	13963
862.976	14062
863.108	14107
863.24	14343
863.372	13932
863.504	13986
863.636	13963
863.768	14103
863.9	14107
864.032	13890
864.164	13955
864.296	13997
864.428	14153
864.559	14180
864.691	14100
864.823	14043
864.954	13978
865.086	14035
865.217	13993
865.349	13837
865.48	14035
865.612	13997
865.743	14168
865.875	14001
866.006	14005
866.137	13940
866.269	14012
866.4	13913
866.531	13951
866.662	13887
866.793	13898
866.924	13913
867.055	13947
867.186	14012
867.317	14008
867.448	13864
867.579	13967
867.71	13890
867.841	13917
867.972	14005
868.103	13955
868.233	14103
868.364	14001
868.495	14142
868.625	14317
868.756	14298
868.886	14172
869.017	14206
869.147	14381
869.278	14332
869.408	14317
869.539	14320
869.669	14259
869.799	14362
869.929	14393
870.06	14419
870.19	14545
870.32	14549
870.45	14537
870.58	14693
870.71	14811
870.84	14800
870.97	14556
871.1	14587
871.23	14667
871.36	14819
871.489	14788
871.619	14792
871.749	14804
871.879	14944
872.008	14925
872.138	14868
872.267	14823
872.397	14678
872.526	14735
872.656	14705
872.785	14693
872.915	14853
873.044	14910
873.173	14948
873.303	14883
873.432	15032
873.561	14933
873.69	14891
873.819	14918
873.948	15028
874.077	14906
874.206	14982
874.335	14921
874.464	15017
874.593	15199
874.722	15119
874.851	15275
874.979	15222
875.108	15249
875.237	15169
875.365	15116
875.494	15226
875.623	15222
875.751	15169
875.88	15306
876.008	15283
876.136	15488
876.265	15610
876.393	15789
876.521	15709
876.65	15682
876.778	15637
876.906	15584
877.034	15652
877.162	15580
877.29	15534
877.418	15667
877.546	15618
877.674	15686
877.802	15545
877.93	15595
878.058	15603
878.185	15538
878.313	15671
878.441	15682
878.568	15485
878.696	15542
878.824	15542
878.951	15755
879.079	15762
879.206	15907
879.333	15785
879.461	15652
879.588	15717
879.715	15785
879.842	15888
879.97	15690
880.097	15473
880.224	15332
880.351	15511
880.478	15545
880.605	15389
880.732	15496
880.859	15675
880.986	15488
881.112	15530
881.239	15408
881.366	15275
881.493	15252
881.619	15131
881.746	15184
881.872	15108
881.999	15043
882.125	15032
882.252	15173
882.378	15165
882.505	15291
882.631	15108
882.757	15028
882.883	15055
883.01	15028
883.136	14895
883.262	14834
883.388	14838
883.514	14906
883.64	15070
883.766	14990
883.892	14762
884.018	14830
884.143	14921
884.269	15112
884.395	14750
884.52	14644
884.646	14720
884.772	14522
884.897	14590
885.023	14613
885.148	14689
885.274	14712
885.399	14693
885.524	14682
885.65	14697
885.775	14701
885.9	14659
886.025	14826
886.15	14773
886.275	14549
886.4	14545
886.525	14602
886.65	14598
886.775	14629
886.9	14819
887.025	14880
887.149	14754
887.274	14549
887.399	14377
887.523	14503
887.648	14427
887.773	14408
887.897	14598
888.021	14571
888.146	14442
888.27	14545
888.395	14636
888.519	14560
888.643	14541
888.767	14686
888.891	14476
889.015	14446
889.139	14476
889.263	14309
889.387	14454
889.511	14583
889.635	14461
889.759	14290
889.883	14362
890.006	14385
890.13	14434
890.254	14320
890.377	14309
890.501	14172
890.624	14176
890.748	14180
890.871	14119
890.995	14027
891.118	13986
891.241	14027
891.364	14008
891.488	14187
891.611	13974
891.734	14062
891.857	14024
891.98	14065
892.103	14187
892.226	14035
892.349	14081
892.471	13807
892.594	14035
892.717	14001
892.839	14016
892.962	14088
893.085	14081
893.207	14024
893.33	13906
893.452	13970
893.575	14084
893.697	14031
893.819	14240
893.941	14221
894.064	14187
894.186	13978
894.308	14039
894.43	14199
894.552	14305
894.674	14233
894.796	13963
894.918	14081
895.04	14031
895.161	14259
895.283	14073
895.405	14119
895.526	14115
895.648	14126
895.769	14252
895.891	14263
896.012	14320
896.134	14267
896.255	14172
896.376	14195
896.498	14107
896.619	14240
896.74	14210
896.861	14233
896.982	14701
897.103	14708
897.224	14590
897.345	14499
897.466	14381
897.587	14492
897.708	14663
897.828	14579
897.949	14541
898.07	14434
898.19	14503
898.311	14617
898.431	14522
898.552	14556
898.672	14670
898.792	14708
898.913	14571
899.033	14590
899.153	14362
899.273	14336
899.393	14396
899.513	14442
899.633	14450
899.753	14507
899.873	14434
899.993	14419
900.113	14385
900.232	14434
900.352	14347
900.472	14377
900.591	14256
900.711	14347
900.83	14233
900.95	14332
901.069	14419
901.189	14218
901.308	14016
901.427	13936
901.546	13967
901.665	14024
901.784	14065
901.904	13879
902.023	13727
902.141	13594
902.26	13529
902.379	13597
902.498	13578
902.617	13483
902.735	13571
902.854	13525
902.973	13422
903.091	13289
903.21	13221
903.328	13247
903.446	13107
903.565	13065
903.683	13133
903.801	13053
903.919	13091
904.038	13000
904.156	12848
904.274	12973
904.392	12886
904.51	13000
904.627	12924
904.745	12966
904.863	12973
904.981	12738
905.098	12585
905.216	12715
905.334	12669
905.451	12650
905.569	12601
905.686	12650
905.803	12597
905.921	12456
906.038	12521
906.155	12407
906.272	12391
906.389	12376
906.506	12163
906.623	12308
906.74	12216
906.857	12110
906.974	12136
907.091	12239
907.208	12330
907.324	12171
907.441	12102
907.557	12053
907.674	11961
907.79	11813
907.907	11954
908.023	12015
908.139	11942
908.256	11897
908.372	11912
908.488	11897
908.604	11752
908.72	11779
908.836	11741
908.952	11722
909.068	11741
909.184	11752
909.3	11771
909.415	11756
909.531	11764
909.647	11505
909.762	11566
909.878	11433
909.993	11478
910.108	11471
910.224	11421
910.339	11493
910.454	11406
910.57	11307
910.685	11284
910.8	11528
910.915	11566
911.03	11303
911.145	11147
911.259	11117
911.374	11193
911.489	11098
911.604	11090
911.718	10919
911.833	10965
911.947	10763
912.062	10752
912.176	10961
912.291	11003
912.405	10972
912.519	11056
912.633	11155
912.748	11010
912.862	10908
912.976	10831
913.09	10702
913.204	10816
913.318	10877
913.431	10949
913.545	10892
913.659	10946
913.772	10854
913.886	10714
914	10641
914.113	10801
914.226	10771
914.34	10809
914.453	10588
914.566	10793
914.68	10664
914.793	10679
914.906	10421
915.019	10443
915.132	10367
915.245	10436
915.358	10474
915.47	10504
915.583	10481
915.696	10470
915.809	10592
915.921	10577
916.034	10459
916.146	10367
916.259	10375
916.371	10512
916.483	10455
916.595	10356
916.708	10402
916.82	10402
916.932	10386
917.044	10417
917.156	10268
917.268	10299
917.38	10246
917.491	10291
917.603	10253
917.715	10367
917.826	10440
917.938	10268
918.049	10139
918.161	10325
918.272	10386
918.384	10447
918.495	10341
918.606	10196
918.717	10131
918.828	10227
918.939	10116
919.05	10147
919.161	10158
919.272	9911
919.383	10082
919.494	10181
919.604	10424
919.715	10272
919.826	10097
919.936	10185
920.047	10227
920.157	10295
920.267	10375
920.378	10234
920.488	10169
920.598	10489
920.708	10516
920.818	10325
920.928	10398
921.038	10542
921.148	10535
921.258	10211
921.368	10135
921.477	10067
921.587	10040
921.697	9979
921.806	10120
921.916	9945
922.025	9831
922.134	9835
922.244	9622
922.353	9774
922.462	9690
922.571	9614
922.68	9523
922.789	9450
922.898	9488
923.007	9389
923.116	9519
923.224	9450
923.333	9515
923.442	9378
923.55	9291
923.659	9367
923.767	9431
923.876	9321
923.984	9405
924.092	9256
924.201	9405
924.309	9348
924.417	9329
924.525	9336
924.633	9313
924.741	9998
924.849	9097
924.956	9294
925.064	9146
925.172	9058
925.279	9131
925.387	9188
925.494	9157
925.602	9283
925.709	9142
925.816	9116
925.924	9074
926.031	9233
926.138	9173
926.245	9233
926.352	9051
926.459	9214
926.566	9268
926.673	9112
926.779	9009
926.886	8998
926.993	8899
927.099	8826
927.206	8785
927.312	8826
927.419	8895
927.525	8887
927.631	8895
927.737	8731
927.843	8750
927.95	8632
928.056	8769
928.162	8746
928.267	8807
928.373	9412
928.479	8800
928.585	8655
928.69	8686
928.796	8739
928.901	8613
929.007	8518
929.112	8598
929.218	8670
929.323	8602
929.428	8480
929.533	8693
929.638	8507
929.743	8537
929.848	8590
929.953	8552
930.058	8476
930.163	8324
930.267	8351
930.372	8446
930.477	8339
930.581	8522
930.685	8393
930.79	8282
930.894	8317
930.998	8263
931.103	8347
931.207	8123
931.311	8039
931.415	7944
931.519	7761
931.623	7784
