Data from test_V78500241_552.txt Node
Date: Fri Mar 25 14:37:33 CST 2022
User: usil
Spectrometer: V785-0024
Trigger mode: 0
Integration Time (sec): 4.000000E-1
Scans to average: 1
Nonlinearity correction enabled: false
Boxcar width: 0
Storing dark spectrum: false
XAxis mode: Wavelengths
Number of Pixels in Spectrum: 1024
>>>>>Begin Spectral Data<<<<<
801.071	27629
801.214	27386
801.356	27154
801.499	27096
801.641	27017
801.783	26891
801.926	27039
802.068	26940
802.211	26773
802.353	26575
802.496	26625
802.638	26587
802.78	26514
802.923	26625
803.065	26385
803.208	26404
803.35	26518
803.492	26484
803.635	26575
803.777	26377
803.919	26689
804.061	26819
804.204	26556
804.346	26556
804.488	26526
804.63	26693
804.773	26453
804.915	26693
805.057	26765
805.199	26667
805.341	26804
805.483	26693
805.626	26819
805.768	26655
805.91	26708
806.052	26986
806.194	26895
806.336	27100
806.478	27005
806.62	27123
806.762	27420
806.904	27717
807.046	27956
807.188	28055
807.33	28348
807.472	28462
807.614	28904
807.756	29223
807.898	29615
808.04	30163
808.182	31126
808.324	32317
808.465	33599
808.607	35265
808.749	36521
808.891	37316
809.033	37354
809.174	36410
809.316	35025
809.458	33682
809.6	32069
809.741	31053
809.883	30022
810.025	29566
810.166	29109
810.308	28706
810.45	28451
810.591	28291
810.733	27922
810.875	27671
811.016	27397
811.158	27317
811.299	27298
811.441	27427
811.582	27450
811.724	27173
811.865	27001
812.007	27028
812.148	27017
812.29	27089
812.431	27123
812.573	27203
812.714	27386
812.855	27359
812.997	27439
813.138	27739
813.279	27462
813.421	27264
813.562	27249
813.703	27138
813.845	26880
813.986	26606
814.127	26617
814.268	26423
814.41	26370
814.551	26263
814.692	26362
814.833	26157
814.974	26138
815.115	26282
815.256	26183
815.397	25944
815.539	26191
815.68	25936
815.821	25868
815.962	25982
816.103	25898
816.244	25704
816.385	25632
816.526	25495
816.666	25449
816.807	25282
816.948	25335
817.089	25392
817.23	25411
817.371	25266
817.512	25187
817.653	25194
817.793	25122
817.934	25240
818.075	25190
818.216	25168
818.356	25084
818.497	25145
818.638	24932
818.778	24962
818.919	24848
819.06	24958
819.2	25091
819.341	24977
819.481	25263
819.622	25179
819.762	25308
819.903	25434
820.043	25263
820.184	25187
820.324	25194
820.465	25232
820.605	25160
820.746	25126
820.886	25107
821.026	25118
821.167	25042
821.307	25160
821.447	25137
821.588	24905
821.728	24825
821.868	24601
822.008	24304
822.149	24441
822.289	24448
822.429	24049
822.569	23992
822.709	24026
822.849	23843
822.99	23802
823.13	23832
823.27	23832
823.41	23615
823.55	23627
823.69	23828
823.83	23726
823.97	23726
824.11	23490
824.25	23364
824.389	23459
824.529	23570
824.669	23341
824.809	23505
824.949	23455
825.089	23429
825.228	23406
825.368	23296
825.508	23220
825.648	23200
825.787	23311
825.927	23200
826.067	23105
826.206	23143
826.346	23185
826.485	23315
826.625	23200
826.765	23315
826.904	23193
827.044	22881
827.183	22953
827.323	22812
827.462	22976
827.601	22850
827.741	22843
827.88	22904
828.02	22698
828.159	22721
828.298	22816
828.437	22805
828.577	22675
828.716	22877
828.855	22672
828.994	22546
829.134	22599
829.273	22675
829.412	22466
829.551	22459
829.69	22523
829.829	22447
829.968	22603
830.107	22569
830.246	22451
830.385	22379
830.524	22440
830.663	22226
830.802	22303
830.941	22006
831.08	22116
831.219	22150
831.357	22246
831.496	22196
831.635	22177
831.774	22135
831.913	22124
832.051	21991
832.19	21975
832.329	22002
832.467	21861
832.606	21797
832.744	21861
832.883	21835
833.022	21979
833.16	22093
833.299	21930
833.437	22128
833.576	22192
833.714	22371
833.852	22318
833.991	22379
834.129	22310
834.267	22344
834.406	22344
834.544	22128
834.682	22318
834.821	22196
834.959	22360
835.097	21994
835.235	22017
835.373	21960
835.511	21903
835.65	21816
835.788	21679
835.926	21561
836.064	21519
836.202	21553
836.34	21660
836.478	21713
836.615	21625
836.753	21637
836.891	21698
837.029	21728
837.167	21534
837.305	21523
837.443	21488
837.58	21428
837.718	21458
837.856	21519
837.993	21317
838.131	21568
838.269	21344
838.406	21389
838.544	21298
838.681	21001
838.819	21036
838.956	20902
839.094	20826
839.231	20853
839.369	20986
839.506	21165
839.643	20887
839.781	20712
839.918	20735
840.055	20796
840.193	20705
840.33	20682
840.467	20834
840.604	20845
840.742	21074
840.879	20613
841.016	20781
841.153	20705
841.29	20842
841.427	20743
841.564	20792
841.701	20720
841.838	20708
841.975	20750
842.112	20746
842.249	20568
842.385	20514
842.522	20899
842.659	20526
842.796	20552
842.933	20484
843.069	20434
843.206	20465
843.343	20602
843.479	20625
843.616	20590
843.752	20415
843.889	20442
844.025	20499
844.162	20427
844.298	20594
844.435	20507
844.571	20518
844.708	20750
844.844	20891
844.98	21298
845.117	21523
845.253	21762
845.389	22577
845.525	23969
845.661	26339
845.798	29318
845.934	31810
846.07	32784
846.206	32347
846.342	30502
846.478	27310
846.614	24715
846.75	22820
846.886	21823
847.022	21154
847.158	20590
847.294	20488
847.429	20271
847.565	20096
847.701	20195
847.837	19704
847.972	19647
848.108	19670
848.244	19685
848.379	19369
848.515	19445
848.65	19396
848.786	19468
848.921	19510
849.057	19480
849.192	19502
849.328	19419
849.463	19369
849.598	19343
849.734	19285
849.869	19175
850.004	19099
850.14	19080
850.275	19110
850.41	19031
850.545	19076
850.68	19019
850.815	19095
850.95	19095
851.085	19388
851.22	19072
851.355	19095
851.49	19061
851.625	19072
851.76	19023
851.895	18977
852.03	18897
852.165	19053
852.299	18954
852.434	19285
852.569	19141
852.703	19175
852.838	19038
852.973	19240
853.107	19145
853.242	19027
853.376	19008
853.511	18928
853.645	18962
853.78	19171
853.914	18966
854.048	19008
854.183	18901
854.317	19050
854.451	19278
854.585	19107
854.72	19110
854.854	19126
854.988	18966
855.122	18993
855.256	18935
855.39	18985
855.524	19034
855.658	19053
855.792	19065
855.926	19031
856.06	18932
856.194	18993
856.327	18954
856.461	18878
856.595	18878
856.729	18875
856.862	19046
856.996	18932
857.13	18947
857.263	18947
857.397	19038
857.53	18848
857.664	18909
857.797	18863
857.931	19015
858.064	18939
858.197	18954
858.331	18749
858.464	18859
858.597	18741
858.731	18878
858.864	18913
858.997	18791
859.13	18878
859.263	18897
859.396	18966
859.529	18741
859.662	18882
859.795	18802
859.928	18768
860.061	18951
860.194	18894
860.327	18856
860.46	18722
860.592	18867
860.725	18859
860.858	18859
860.99	18745
861.123	18791
861.256	18768
861.388	18772
861.521	19400
861.653	18719
861.786	18639
861.918	18654
862.05	18749
862.183	18719
862.315	18783
862.447	18875
862.58	18703
862.712	18601
862.844	18445
862.976	18642
863.108	18555
863.24	18867
863.372	18479
863.504	18490
863.636	18460
863.768	18498
863.9	18483
864.032	18384
864.164	18540
864.296	18513
864.428	18551
864.559	18517
864.691	18578
864.823	18494
864.954	18452
865.086	18296
865.217	18338
865.349	18437
865.48	18521
865.612	18509
865.743	18441
865.875	18410
866.006	18289
866.137	18380
866.269	18483
866.4	18369
866.531	18342
866.662	18376
866.793	18353
866.924	18429
867.055	18342
867.186	18399
867.317	18388
867.448	18323
867.579	18426
867.71	18365
867.841	18251
867.972	18448
868.103	18395
868.233	18483
868.364	18395
868.495	18509
868.625	18506
868.756	18757
868.886	18589
869.017	18700
869.147	18757
869.278	18677
869.408	18620
869.539	18570
869.669	18612
869.799	18631
869.929	18669
870.06	18749
870.19	18913
870.32	18943
870.45	18951
870.58	19095
870.71	19095
870.84	19137
870.97	19080
871.1	19004
871.23	19263
871.36	19202
871.489	19236
871.619	19206
871.749	19285
871.879	19240
872.008	19365
872.138	19331
872.267	19285
872.397	19194
872.526	19164
872.656	19065
872.785	19065
872.915	19324
873.044	19419
873.173	19411
873.303	19384
873.432	19453
873.561	19457
873.69	19529
873.819	19430
873.948	19476
874.077	19464
874.206	19472
874.335	19453
874.464	19548
874.593	19662
874.722	19715
874.851	19769
874.979	19742
875.108	19856
875.237	19742
875.365	19685
875.494	19917
875.623	19887
875.751	19811
875.88	19921
876.008	20058
876.136	20157
876.265	20404
876.393	20476
876.521	20438
876.65	20450
876.778	20438
876.906	20530
877.034	20480
877.162	20598
877.29	20594
877.418	20587
877.546	20644
877.674	20511
877.802	20693
877.93	20724
878.058	20918
878.185	20773
878.313	20975
878.441	21252
878.568	21268
878.696	21553
878.824	21907
878.951	22409
879.079	23284
879.206	24186
879.333	25000
879.461	25746
879.588	26244
879.715	26328
879.842	26039
879.97	25069
880.097	23961
880.224	23246
880.351	22725
880.478	22318
880.605	21983
880.732	21892
880.859	21949
880.986	21660
881.112	21622
881.239	21538
881.366	21344
881.493	21336
881.619	21245
881.746	21157
881.872	21370
881.999	21321
882.125	21260
882.252	21245
882.378	21260
882.505	21523
882.631	21150
882.757	21211
882.883	21237
883.01	21207
883.136	21123
883.262	20929
883.388	21020
883.514	21055
883.64	21020
883.766	21062
883.892	20868
884.018	20902
884.143	21032
884.269	21176
884.395	20937
884.52	20838
884.646	20739
884.772	20762
884.897	20602
885.023	20800
885.148	20956
885.274	20861
885.399	20777
885.524	20712
885.65	20552
885.775	20739
885.9	20488
886.025	20526
886.15	20454
886.275	20225
886.4	19993
886.525	20168
886.65	20062
886.775	19955
886.9	20107
887.025	20202
887.149	19940
887.274	19742
887.399	19597
887.523	19674
887.648	19559
887.773	19495
887.897	19693
888.021	19537
888.146	19434
888.27	19590
888.395	19487
888.519	19441
888.643	19441
888.767	19388
888.891	19183
889.015	19080
889.139	19259
889.263	19133
889.387	19270
889.511	19320
889.635	19160
889.759	19080
889.883	19072
890.006	19027
890.13	19126
890.254	18882
890.377	18909
890.501	18783
890.624	18734
890.748	18924
890.871	18681
890.995	18502
891.118	18528
891.241	18456
891.364	18597
891.488	18639
891.611	18551
891.734	18437
891.857	18513
891.98	18464
892.103	18563
892.226	18471
892.349	18357
892.471	18235
892.594	18315
892.717	18361
892.839	18232
892.962	18353
893.085	18388
893.207	18251
893.33	18106
893.452	18148
893.575	18399
893.697	18205
893.819	18418
893.941	18323
894.064	18323
894.186	18053
894.308	18079
894.43	18342
894.552	18281
894.674	18296
894.796	18079
894.918	18098
895.04	18079
895.161	18289
895.283	18213
895.405	18015
895.526	18205
895.648	18148
895.769	18045
895.891	18216
896.012	18190
896.134	18266
896.255	18163
896.376	18117
896.498	18091
896.619	18174
896.74	18220
896.861	18232
896.982	18513
897.103	18623
897.224	18471
897.345	18285
897.466	18258
897.587	18281
897.708	18410
897.828	18330
897.949	18102
898.07	18152
898.19	18414
898.311	18479
898.431	18311
898.552	18380
898.672	18376
898.792	18418
898.913	18254
899.033	18197
899.153	18106
899.273	18091
899.393	18102
899.513	18091
899.633	18114
899.753	18060
899.873	18083
899.993	18140
900.113	18148
900.232	18178
900.352	18068
900.472	18079
900.591	17935
900.711	17980
900.83	17813
900.95	18155
901.069	18095
901.189	17836
901.308	17703
901.427	17627
901.546	17611
901.665	17596
901.784	17684
901.904	17391
902.023	17227
902.141	17105
902.26	17143
902.379	17132
902.498	16911
902.617	16934
902.735	17022
902.854	16987
902.973	16889
903.091	16687
903.21	16683
903.328	16778
903.446	16489
903.565	16508
903.683	16546
903.801	16344
903.919	16538
904.038	16398
904.156	16322
904.274	16318
904.392	16234
904.51	16181
904.627	16242
904.745	16207
904.863	16272
904.981	16055
905.098	15804
905.216	15941
905.334	15994
905.451	15850
905.569	15918
905.686	15873
905.803	15873
905.921	15660
906.038	15835
906.155	15736
906.272	15599
906.389	15591
906.506	15389
906.623	15386
906.74	15412
906.857	15340
906.974	15325
907.091	15511
907.208	15568
907.324	15420
907.441	15294
907.557	15173
907.674	15135
907.79	15138
907.907	15116
908.023	15131
908.139	15089
908.256	15062
908.372	15009
908.488	14998
908.604	14815
908.72	14708
908.836	14807
908.952	14731
909.068	14758
909.184	14853
909.3	14785
909.415	14796
909.531	14769
909.647	14568
909.762	14419
909.878	14617
909.993	14492
910.108	14522
910.224	14446
910.339	14503
910.454	14446
910.57	14324
910.685	14229
910.8	14583
910.915	14476
911.03	14229
911.145	14199
911.259	14119
911.374	14123
911.489	14039
911.604	14008
911.718	13788
911.833	13822
911.947	13818
912.062	13772
912.176	13883
912.291	13837
912.405	13818
912.519	14081
912.633	14123
912.748	13951
912.862	13837
912.976	13757
913.09	13605
913.204	13704
913.318	13731
913.431	13696
913.545	13731
913.659	13830
913.772	13643
913.886	13499
914	13559
914.113	13639
914.226	13597
914.34	13670
914.453	13533
914.566	13662
914.68	13529
914.793	13559
914.906	13228
915.019	13244
915.132	13141
915.245	13236
915.358	13304
915.47	13266
915.583	13202
915.696	13270
915.809	13343
915.921	13422
916.034	13168
916.146	13118
916.259	13152
916.371	13270
916.483	13263
916.595	13137
916.708	13145
916.82	13164
916.932	13103
917.044	13133
917.156	13171
917.268	12897
917.38	13084
917.491	12867
917.603	12985
917.715	13046
917.826	13107
917.938	12943
918.049	12814
918.161	12844
918.272	13027
918.384	13129
918.495	12962
918.606	12787
918.717	12707
918.828	12738
918.939	12764
919.05	12768
919.161	12681
919.272	12528
919.383	12559
919.494	12734
919.604	12973
919.715	12726
919.826	12650
919.936	12669
920.047	12715
920.157	12768
920.267	12905
920.378	12620
920.488	12662
920.598	12821
920.708	12943
920.818	12852
920.928	12806
921.038	12970
921.148	13057
921.258	12593
921.368	12627
921.477	12532
921.587	12418
921.697	12235
921.806	12506
921.916	12399
922.025	12216
922.134	12152
922.244	12053
922.353	12205
922.462	12098
922.571	11954
922.68	11851
922.789	11870
922.898	11836
923.007	11726
923.116	11836
923.224	11821
923.333	11817
923.442	11668
923.55	11668
923.659	11726
923.767	11767
923.876	11653
923.984	11688
924.092	11619
924.201	11592
924.309	11668
924.417	11653
924.525	11577
924.633	11623
924.741	12399
924.849	11379
924.956	11444
925.064	11398
925.172	11261
925.279	11315
925.387	11391
925.494	11425
925.602	11414
925.709	11429
925.816	11265
925.924	11273
926.031	11448
926.138	11341
926.245	11334
926.352	11223
926.459	11372
926.566	11421
926.673	11261
926.779	11094
926.886	11121
926.993	11025
927.099	10980
927.206	10889
927.312	10949
927.419	11048
927.525	11003
927.631	10949
927.737	10809
927.843	10873
927.95	10714
928.056	10778
928.162	10793
928.267	10858
928.373	11429
928.479	10961
928.585	10641
928.69	10835
928.796	10793
928.901	10649
929.007	10561
929.112	10668
929.218	10660
929.323	10607
929.428	10546
929.533	10694
929.638	10554
929.743	10588
929.848	10508
929.953	10493
930.058	10424
930.163	10238
930.267	10348
930.372	10436
930.477	10242
930.581	10504
930.685	10329
930.79	10204
930.894	10287
930.998	10143
931.103	10360
931.207	9934
931.311	9922
931.415	9827
931.519	9633
931.623	9622
