Data from test_V78500241_1449.txt Node
Date: Fri Mar 25 14:43:48 CST 2022
User: usil
Spectrometer: V785-0024
Trigger mode: 0
Integration Time (sec): 4.000000E-1
Scans to average: 1
Nonlinearity correction enabled: false
Boxcar width: 0
Storing dark spectrum: false
XAxis mode: Wavelengths
Number of Pixels in Spectrum: 1024
>>>>>Begin Spectral Data<<<<<
801.071	22459
801.214	22375
801.356	22116
801.499	22032
801.641	21846
801.783	21778
801.926	21831
802.068	21770
802.211	21644
802.353	21564
802.496	21389
802.638	21268
802.78	21241
802.923	21195
803.065	21211
803.208	21028
803.35	21116
803.492	21268
803.635	21302
803.777	21119
803.919	21245
804.061	21507
804.204	21184
804.346	20975
804.488	20906
804.63	20963
804.773	21066
804.915	20975
805.057	21237
805.199	20975
805.341	21104
805.483	21169
805.626	21127
805.768	21066
805.91	20941
806.052	21146
806.194	20971
806.336	21146
806.478	21062
806.62	21024
806.762	21089
806.904	21161
807.046	21496
807.188	21435
807.33	21386
807.472	21515
807.614	21397
807.756	21260
807.898	21344
808.04	21188
808.182	21298
808.324	21302
808.465	21420
808.607	21610
808.749	21633
808.891	21789
809.033	21888
809.174	21770
809.316	21564
809.458	21572
809.6	21496
809.741	21583
809.883	21553
810.025	21728
810.166	21629
810.308	21622
810.45	21583
810.591	21481
810.733	21382
810.875	21211
811.016	21195
811.158	21161
811.299	21340
811.441	21344
811.582	21382
811.724	21310
811.865	21157
812.007	21260
812.148	21222
812.29	21245
812.431	21344
812.573	21576
812.714	21625
812.855	21827
812.997	21774
813.138	21991
813.279	21705
813.421	21622
813.562	21751
813.703	21504
813.845	21443
813.986	21169
814.127	20948
814.268	20944
814.41	20838
814.551	20864
814.692	20864
814.833	20785
814.974	20815
815.115	20705
815.256	20541
815.397	20670
815.539	20663
815.68	20495
815.821	20438
815.962	20602
816.103	20484
816.244	20362
816.385	20290
816.526	20214
816.666	20031
816.807	20024
816.948	20001
817.089	20054
817.23	20020
817.371	20008
817.512	19826
817.653	19879
817.793	19871
817.934	19852
818.075	19890
818.216	19902
818.356	19818
818.497	19719
818.638	19632
818.778	19712
818.919	19655
819.06	19616
819.2	19753
819.341	19761
819.481	19734
819.622	19879
819.762	20130
819.903	20039
820.043	19997
820.184	19955
820.324	19856
820.465	19978
820.605	19811
820.746	19898
820.886	19849
821.026	19841
821.167	19875
821.307	19875
821.447	19887
821.588	19772
821.728	19487
821.868	19419
822.008	19445
822.149	19202
822.289	19217
822.429	19110
822.569	18867
822.709	19046
822.849	18764
822.99	18821
823.13	18764
823.27	18741
823.41	18620
823.55	18563
823.69	18566
823.83	18563
823.97	18532
824.11	18372
824.25	18372
824.389	18384
824.529	18445
824.669	18365
824.809	18471
824.949	18467
825.089	18479
825.228	18308
825.368	18125
825.508	18125
825.648	18144
825.787	18243
825.927	18323
826.067	18026
826.206	18060
826.346	18247
826.485	18228
826.625	18133
826.765	18304
826.904	18159
827.044	17832
827.183	18034
827.323	17817
827.462	17859
827.601	17836
827.741	17836
827.88	17802
828.02	17790
828.159	17832
828.298	17843
828.437	17908
828.577	17794
828.716	17984
828.855	17855
828.994	17646
829.134	17585
829.273	17653
829.412	17554
829.551	17501
829.69	17573
829.829	17573
829.968	17714
830.107	17668
830.246	17600
830.385	17417
830.524	17490
830.663	17406
830.802	17284
830.941	17269
831.08	17311
831.219	17223
831.357	17231
831.496	17436
831.635	17113
831.774	17090
831.913	17155
832.051	16968
832.19	16930
832.329	16911
832.467	16980
832.606	16831
832.744	16847
832.883	16930
833.022	16824
833.16	16938
833.299	16904
833.437	16873
833.576	16976
833.714	16942
833.852	17010
833.991	16927
834.129	17022
834.267	17048
834.406	16957
834.544	17071
834.682	16961
834.821	16900
834.959	17140
835.097	16866
835.235	17121
835.373	16995
835.511	16919
835.65	16778
835.788	16778
835.926	16824
836.064	16675
836.202	16729
836.34	16847
836.478	16961
836.615	16771
836.753	16759
836.891	16965
837.029	16938
837.167	16767
837.305	16736
837.443	16679
837.58	16649
837.718	16824
837.856	16649
837.993	16626
838.131	16854
838.269	16679
838.406	16565
838.544	16615
838.681	16394
838.819	16363
838.956	16280
839.094	16158
839.231	16310
839.369	16402
839.506	16584
839.643	16497
839.781	16177
839.918	16219
840.055	16265
840.193	16261
840.33	16207
840.467	16261
840.604	16181
840.742	16550
840.879	16112
841.016	16131
841.153	16135
841.29	16348
841.427	16325
841.564	16253
841.701	16272
841.838	16124
841.975	16181
842.112	16150
842.249	16139
842.385	16055
842.522	16276
842.659	16013
842.796	15956
842.933	16131
843.069	15998
843.206	15972
843.343	16002
843.479	16090
843.616	16044
843.752	15804
843.889	15793
844.025	15915
844.162	15663
844.298	16002
844.435	15785
844.571	15797
844.708	15846
844.844	15888
844.98	15994
845.117	15861
845.253	15762
845.389	15789
845.525	15850
845.661	15842
845.798	15819
845.934	15899
846.07	15975
846.206	15937
846.342	15972
846.478	15812
846.614	15504
846.75	15397
846.886	15397
847.022	15454
847.158	15435
847.294	15378
847.429	15351
847.565	15469
847.701	15637
847.837	15097
847.972	15112
848.108	15272
848.244	15131
848.379	15051
848.515	14975
848.65	14956
848.786	14990
848.921	15001
849.057	15009
849.192	15127
849.328	15013
849.463	15066
849.598	14910
849.734	14804
849.869	14849
850.004	14807
850.14	14739
850.275	14701
850.41	14724
850.545	14708
850.68	14792
850.815	14758
850.95	14716
851.085	14845
851.22	14807
851.355	14731
851.49	14765
851.625	14575
851.76	14705
851.895	14564
852.03	14648
852.165	14815
852.299	14807
852.434	14807
852.569	14804
852.703	14708
852.838	14838
852.973	14910
853.107	14883
853.242	14712
853.376	14636
853.511	14476
853.645	14503
853.78	14826
853.914	14617
854.048	14625
854.183	14594
854.317	14606
854.451	14724
854.585	14625
854.72	14549
854.854	14598
854.988	14503
855.122	14590
855.256	14518
855.39	14644
855.524	14754
855.658	14727
855.792	14644
855.926	14724
856.06	14629
856.194	14693
856.327	14610
856.461	14552
856.595	14556
856.729	14530
856.862	14701
856.996	14644
857.13	14636
857.263	14762
857.397	14682
857.53	14587
857.664	14686
857.797	14575
857.931	14705
858.064	14602
858.197	14689
858.331	14556
858.464	14492
858.597	14450
858.731	14640
858.864	14651
858.997	14575
859.13	14667
859.263	14587
859.396	14667
859.529	14568
859.662	14549
859.795	14480
859.928	14708
860.061	14712
860.194	14716
860.327	14670
860.46	14552
860.592	14697
860.725	14792
860.858	14667
860.99	14594
861.123	14499
861.256	14583
861.388	14708
861.521	15291
861.653	14469
861.786	14461
861.918	14442
862.05	14492
862.183	14461
862.315	14575
862.447	14621
862.58	14495
862.712	14393
862.844	14202
862.976	14393
863.108	14366
863.24	14842
863.372	14298
863.504	14343
863.636	14366
863.768	14309
863.9	14324
864.032	14309
864.164	14351
864.296	14381
864.428	14511
864.559	14457
864.691	14480
864.823	14454
864.954	14358
865.086	14438
865.217	14351
865.349	14240
865.48	14271
865.612	14339
865.743	14446
865.875	14339
866.006	14423
866.137	14442
866.269	14366
866.4	14355
866.531	14320
866.662	14301
866.793	14313
866.924	14347
867.055	14427
867.186	14400
867.317	14347
867.448	14172
867.579	14278
867.71	14301
867.841	14286
867.972	14362
868.103	14400
868.233	14271
868.364	14282
868.495	14499
868.625	14541
868.756	14724
868.886	14469
869.017	14636
869.147	14617
869.278	14697
869.408	14724
869.539	14602
869.669	14648
869.799	14594
869.929	14655
870.06	14663
870.19	14891
870.32	14891
870.45	14921
870.58	14921
870.71	15085
870.84	15173
870.97	14975
871.1	14944
871.23	15233
871.36	15173
871.489	15116
871.619	15237
871.749	15150
871.879	15283
872.008	15283
872.138	15310
872.267	15131
872.397	15039
872.526	14982
872.656	15074
872.785	14998
872.915	15173
873.044	15386
873.173	15116
873.303	15233
873.432	15302
873.561	15249
873.69	15291
873.819	15283
873.948	15363
874.077	15237
874.206	15150
874.335	15332
874.464	15374
874.593	15511
874.722	15523
874.851	15534
874.979	15549
875.108	15644
875.237	15568
875.365	15401
875.494	15545
875.623	15641
875.751	15492
875.88	15561
876.008	15595
876.136	15869
876.265	16063
876.393	16044
876.521	16006
876.65	16128
876.778	15941
876.906	15968
877.034	15850
877.162	16021
877.29	15922
877.418	15793
877.546	16017
877.674	15991
877.802	16002
877.93	15975
878.058	15888
878.185	15899
878.313	15922
878.441	15975
878.568	15770
878.696	15968
878.824	16029
878.951	16097
879.079	16261
879.206	16382
879.333	16173
879.461	16044
879.588	16230
879.715	16166
879.842	16424
879.97	16086
880.097	15964
880.224	15842
880.351	15979
880.478	15835
880.605	15838
880.732	15816
880.859	16059
880.986	15934
881.112	15884
881.239	15682
881.366	15663
881.493	15507
881.619	15542
881.746	15469
881.872	15553
881.999	15420
882.125	15481
882.252	15595
882.378	15515
882.505	15599
882.631	15439
882.757	15359
882.883	15378
883.01	15397
883.136	15283
883.262	15135
883.388	15032
883.514	15291
883.64	15313
883.766	15336
883.892	15138
884.018	15104
884.143	15325
884.269	15515
884.395	15085
884.52	15036
884.646	14948
884.772	14986
884.897	14883
885.023	15055
885.148	15207
885.274	15176
885.399	15203
885.524	15081
885.65	15055
885.775	15100
885.9	14948
886.025	15093
886.15	15013
886.275	14963
886.4	14960
886.525	14937
886.65	14971
886.775	14982
886.9	15306
887.025	15207
887.149	14986
887.274	14857
887.399	14796
887.523	14849
887.648	14743
887.773	14777
887.897	14895
888.021	14925
888.146	14785
888.27	14876
888.395	14906
888.519	14842
888.643	14845
888.767	14944
888.891	14629
889.015	14632
889.139	14720
889.263	14693
889.387	14640
889.511	14773
889.635	14708
889.759	14686
889.883	14648
890.006	14765
890.13	14765
890.254	14655
890.377	14541
890.501	14571
890.624	14465
890.748	14575
890.871	14377
890.995	14317
891.118	14286
891.241	14396
891.364	14305
891.488	14530
891.611	14317
891.734	14290
891.857	14400
891.98	14431
892.103	14476
892.226	14332
892.349	14385
892.471	14176
892.594	14328
892.717	14366
892.839	14446
892.962	14438
893.085	14404
893.207	14332
893.33	14282
893.452	14259
893.575	14427
893.697	14271
893.819	14518
893.941	14632
894.064	14530
894.186	14385
894.308	14225
894.43	14415
894.552	14454
894.674	14434
894.796	14301
894.918	14358
895.04	14488
895.161	14454
895.283	14465
895.405	14431
895.526	14507
895.648	14469
895.769	14526
895.891	14461
896.012	14476
896.134	14480
896.255	14461
896.376	14469
896.498	14533
896.619	14617
896.74	14579
896.861	14545
896.982	14910
897.103	15009
897.224	14777
897.345	14792
897.466	14800
897.587	14807
897.708	14941
897.828	14872
897.949	14743
898.07	14636
898.19	14773
898.311	14937
898.431	14838
898.552	14876
898.672	15005
898.792	14963
898.913	14902
899.033	14857
899.153	14792
899.273	14708
899.393	14659
899.513	14712
899.633	14701
899.753	14777
899.873	14750
899.993	14796
900.113	14727
900.232	14629
900.352	14712
900.472	14629
900.591	14514
900.711	14644
900.83	14514
900.95	14667
901.069	14686
901.189	14492
901.308	14298
901.427	14271
901.546	14286
901.665	14240
901.784	14309
901.904	14248
902.023	14043
902.141	13890
902.26	13750
902.379	14001
902.498	13826
902.617	13723
902.735	13852
902.854	13906
902.973	13723
903.091	13651
903.21	13571
903.328	13685
903.446	13327
903.565	13369
903.683	13289
903.801	13274
903.919	13358
904.038	13384
904.156	13270
904.274	13282
904.392	13168
904.51	13160
904.627	13293
904.745	13198
904.863	13278
904.981	12916
905.098	12890
905.216	12909
905.334	12894
905.451	12871
905.569	12878
905.686	12939
905.803	12810
905.921	12677
906.038	12848
906.155	12711
906.272	12589
906.389	12711
906.506	12490
906.623	12410
906.74	12502
906.857	12300
906.974	12342
907.091	12525
907.208	12623
907.324	12540
907.441	12388
907.557	12182
907.674	12167
907.79	12205
907.907	12254
908.023	12232
908.139	12228
908.256	12129
908.372	12167
908.488	12136
908.604	12011
908.72	11988
908.836	12049
908.952	11885
909.068	11999
909.184	12053
909.3	11980
909.415	12022
909.531	12026
909.647	11809
909.762	11836
909.878	11802
909.993	11786
910.108	11764
910.224	11748
910.339	11714
910.454	11649
910.57	11585
910.685	11516
910.8	11874
910.915	11764
911.03	11570
911.145	11486
911.259	11532
911.374	11467
911.489	11463
911.604	11379
911.718	11193
911.833	11242
911.947	11136
912.062	11052
912.176	11269
912.291	11254
912.405	11315
912.519	11528
912.633	11387
912.748	11269
912.862	11273
912.976	11102
913.09	11010
913.204	11075
913.318	11086
913.431	11220
913.545	11269
913.659	11170
913.772	11159
913.886	10995
914	10976
914.113	11014
914.226	11094
914.34	11025
914.453	10953
914.566	11037
914.68	10949
914.793	10915
914.906	10778
915.019	10706
915.132	10698
915.245	10649
915.358	10729
915.47	10736
915.583	10797
915.696	10786
915.809	10904
915.921	10793
916.034	10797
916.146	10691
916.259	10660
916.371	10786
916.483	10759
916.595	10660
916.708	10721
916.82	10683
916.932	10626
917.044	10656
917.156	10626
917.268	10489
917.38	10561
917.491	10561
917.603	10599
917.715	10626
917.826	10641
917.938	10489
918.049	10493
918.161	10546
918.272	10717
918.384	10721
918.495	10523
918.606	10443
918.717	10337
918.828	10466
918.939	10481
919.05	10341
919.161	10413
919.272	10242
919.383	10276
919.494	10409
919.604	10618
919.715	10485
919.826	10329
919.936	10382
920.047	10474
920.157	10363
920.267	10603
920.378	10451
920.488	10379
920.598	10596
920.708	10721
920.818	10656
920.928	10508
921.038	10782
921.148	10824
921.258	10451
921.368	10363
921.477	10291
921.587	10227
921.697	10143
921.806	10287
921.916	10135
922.025	9934
922.134	9975
922.244	9922
922.353	10059
922.462	9930
922.571	9816
922.68	9679
922.789	9720
922.898	9667
923.007	9641
923.116	9755
923.224	9656
923.333	9743
923.442	9564
923.55	9477
923.659	9549
923.767	9648
923.876	9523
923.984	9572
924.092	9466
924.201	9466
924.309	9500
924.417	9519
924.525	9454
924.633	9477
924.741	10478
924.849	9351
924.956	9458
925.064	9298
925.172	9260
925.279	9279
925.387	9348
925.494	9291
925.602	9469
925.709	9420
925.816	9279
925.924	9367
926.031	9435
926.138	9313
926.245	9458
926.352	9283
926.459	9401
926.566	9458
926.673	9268
926.779	9188
926.886	9150
926.993	9157
927.099	9032
927.206	9039
927.312	8960
927.419	9058
927.525	8998
927.631	9070
927.737	8914
927.843	8906
927.95	8800
928.056	8929
928.162	8960
928.267	8963
928.373	9584
928.479	8986
928.585	8796
928.69	8921
928.796	8963
928.901	8830
929.007	8667
929.112	8853
929.218	8762
929.323	8678
929.428	8750
929.533	8861
929.638	8735
929.743	8754
929.848	8693
929.953	8724
930.058	8708
930.163	8514
930.267	8473
930.372	8663
930.477	8533
930.581	8689
930.685	8598
930.79	8484
930.894	8469
930.998	8480
931.103	8617
931.207	8206
931.311	8191
931.415	8145
931.519	7978
931.623	7951
