Data from test_V78500241_2213.txt Node
Date: Fri Mar 25 14:49:07 CST 2022
User: usil
Spectrometer: V785-0024
Trigger mode: 0
Integration Time (sec): 4.000000E-1
Scans to average: 1
Nonlinearity correction enabled: false
Boxcar width: 0
Storing dark spectrum: false
XAxis mode: Wavelengths
Number of Pixels in Spectrum: 1024
>>>>>Begin Spectral Data<<<<<
801.071	22265
801.214	22185
801.356	21846
801.499	21755
801.641	21572
801.783	21523
801.926	21557
802.068	21519
802.211	21477
802.353	21397
802.496	21161
802.638	20998
802.78	20956
802.923	20868
803.065	20899
803.208	20807
803.35	20902
803.492	20929
803.635	21028
803.777	20845
803.919	20918
804.061	21241
804.204	21017
804.346	20857
804.488	20716
804.63	20804
804.773	20857
804.915	20785
805.057	20830
805.199	20670
805.341	20872
805.483	20941
805.626	20830
805.768	20891
805.91	20815
806.052	20868
806.194	20670
806.336	20899
806.478	20758
806.62	20705
806.762	20906
806.904	20956
807.046	21268
807.188	21089
807.33	21214
807.472	21165
807.614	20979
807.756	21039
807.898	20963
808.04	20895
808.182	20891
808.324	20899
808.465	20883
808.607	21085
808.749	21211
808.891	21344
809.033	21279
809.174	21245
809.316	21218
809.458	21218
809.6	21142
809.741	21351
809.883	21344
810.025	21336
810.166	21420
810.308	21344
810.45	21317
810.591	21222
810.733	21100
810.875	21070
811.016	20921
811.158	20948
811.299	21017
811.441	21104
811.582	21146
811.724	20952
811.865	20876
812.007	20876
812.148	20929
812.29	21066
812.431	21157
812.573	21287
812.714	21249
812.855	21458
812.997	21568
813.138	21679
813.279	21637
813.421	21424
813.562	21401
813.703	21180
813.845	20998
813.986	20845
814.127	20686
814.268	20613
814.41	20560
814.551	20511
814.692	20518
814.833	20473
814.974	20503
815.115	20473
815.256	20377
815.397	20343
815.539	20275
815.68	20218
815.821	20240
815.962	20317
816.103	20183
816.244	20100
816.385	19940
816.526	19970
816.666	19727
816.807	19795
816.948	19685
817.089	19795
817.23	19677
817.371	19590
817.512	19757
817.653	19590
817.793	19715
817.934	19685
818.075	19632
818.216	19689
818.356	19540
818.497	19384
818.638	19365
818.778	19362
818.919	19293
819.06	19392
819.2	19381
819.341	19499
819.481	19578
819.622	19723
819.762	19826
819.903	19738
820.043	19635
820.184	19620
820.324	19685
820.465	19582
820.605	19632
820.746	19635
820.886	19350
821.026	19537
821.167	19712
821.307	19723
821.447	19628
821.588	19487
821.728	19350
821.868	19221
822.008	19031
822.149	19091
822.289	18939
822.429	18802
822.569	18779
822.709	18730
822.849	18525
822.99	18616
823.13	18517
823.27	18391
823.41	18304
823.55	18315
823.69	18407
823.83	18376
823.97	18300
824.11	18098
824.25	18178
824.389	18152
824.529	18091
824.669	18125
824.809	18167
824.949	18270
825.089	18174
825.228	18095
825.368	17954
825.508	17855
825.648	17874
825.787	17897
825.927	18053
826.067	17851
826.206	17836
826.346	17859
826.485	17923
826.625	17840
826.765	17958
826.904	17878
827.044	17581
827.183	17687
827.323	17512
827.462	17596
827.601	17535
827.741	17493
827.88	17505
828.02	17379
828.159	17528
828.298	17691
828.437	17596
828.577	17581
828.716	17714
828.855	17448
828.994	17402
829.134	17246
829.273	17318
829.412	17193
829.551	17204
829.69	17223
829.829	17337
829.968	17372
830.107	17330
830.246	17288
830.385	17315
830.524	17315
830.663	17075
830.802	17014
830.941	16972
831.08	16873
831.219	16995
831.357	16953
831.496	17102
831.635	16877
831.774	16782
831.913	16774
832.051	16729
832.19	16664
832.329	16771
832.467	16599
832.606	16607
832.744	16577
832.883	16607
833.022	16626
833.16	16577
833.299	16668
833.437	16675
833.576	16611
833.714	16599
833.852	16744
833.991	16653
834.129	16771
834.267	16679
834.406	16596
834.544	16702
834.682	16611
834.821	16721
834.959	16736
835.097	16611
835.235	16672
835.373	16660
835.511	16656
835.65	16546
835.788	16630
835.926	16462
836.064	16356
836.202	16519
836.34	16596
836.478	16698
836.615	16603
836.753	16592
836.891	16675
837.029	16577
837.167	16531
837.305	16508
837.443	16295
837.58	16375
837.718	16462
837.856	16360
837.993	16333
838.131	16424
838.269	16246
838.406	16352
838.544	16257
838.681	16097
838.819	16067
838.956	15915
839.094	15911
839.231	15968
839.369	16131
839.506	16436
839.643	16139
839.781	15956
839.918	15895
840.055	15975
840.193	15930
840.33	15930
840.467	15956
840.604	15994
840.742	16223
840.879	15812
841.016	15876
841.153	15869
841.29	16044
841.427	15998
841.564	15854
841.701	15884
841.838	15949
841.975	15915
842.112	15835
842.249	15808
842.385	15618
842.522	15880
842.659	15724
842.796	15660
842.933	15717
843.069	15667
843.206	15682
843.343	15755
843.479	15808
843.616	15747
843.752	15481
843.889	15584
844.025	15667
844.162	15393
844.298	15614
844.435	15458
844.571	15523
844.708	15557
844.844	15656
844.98	15644
845.117	15606
845.253	15519
845.389	15378
845.525	15454
845.661	15405
845.798	15313
845.934	15317
846.07	15199
846.206	15401
846.342	15389
846.478	15294
846.614	15203
846.75	15093
846.886	15013
847.022	15245
847.158	15100
847.294	15135
847.429	14998
847.565	15104
847.701	15344
847.837	14788
847.972	14773
848.108	14937
848.244	14853
848.379	14765
848.515	14670
848.65	14758
848.786	14754
848.921	14720
849.057	14796
849.192	14834
849.328	14712
849.463	14705
849.598	14701
849.734	14720
849.869	14594
850.004	14484
850.14	14610
850.275	14351
850.41	14423
850.545	14412
850.68	14370
850.815	14385
850.95	14377
851.085	14682
851.22	14568
851.355	14336
851.49	14419
851.625	14393
851.76	14400
851.895	14317
852.03	14301
852.165	14438
852.299	14530
852.434	14537
852.569	14499
852.703	14484
852.838	14507
852.973	14663
853.107	14564
853.242	14507
853.376	14317
853.511	14282
853.645	14263
853.78	14393
853.914	14320
854.048	14343
854.183	14328
854.317	14404
854.451	14514
854.585	14305
854.72	14244
854.854	14336
854.988	14259
855.122	14282
855.256	14233
855.39	14355
855.524	14332
855.658	14317
855.792	14404
855.926	14309
856.06	14343
856.194	14419
856.327	14309
856.461	14237
856.595	14267
856.729	14294
856.862	14431
856.996	14332
857.13	14408
857.263	14438
857.397	14438
857.53	14370
857.664	14347
857.797	14389
857.931	14503
858.064	14358
858.197	14396
858.331	14317
858.464	14278
858.597	14263
858.731	14389
858.864	14347
858.997	14393
859.13	14408
859.263	14385
859.396	14473
859.529	14377
859.662	14317
859.795	14271
859.928	14385
860.061	14454
860.194	14583
860.327	14275
860.46	14408
860.592	14461
860.725	14385
860.858	14450
860.99	14423
861.123	14195
861.256	14358
861.388	14385
861.521	14952
861.653	14271
861.786	14218
861.918	14252
862.05	14202
862.183	14355
862.315	14434
862.447	14427
862.58	14301
862.712	14221
862.844	14107
862.976	14176
863.108	14202
863.24	14537
863.372	14073
863.504	14191
863.636	14100
863.768	14218
863.9	14206
864.032	14161
864.164	14130
864.296	14058
864.428	14134
864.559	14218
864.691	14142
864.823	14180
864.954	14058
865.086	14119
865.217	14065
865.349	14073
865.48	14134
865.612	14142
865.743	14259
865.875	14100
866.006	14005
866.137	14130
866.269	14123
866.4	14081
866.531	14130
866.662	14069
866.793	14088
866.924	14058
867.055	14100
867.186	14100
867.317	14092
867.448	14084
867.579	14103
867.71	14024
867.841	14062
867.972	14115
868.103	14088
868.233	14073
868.364	14054
868.495	14214
868.625	14366
868.756	14454
868.886	14271
869.017	14252
869.147	14454
869.278	14400
869.408	14377
869.539	14320
869.669	14492
869.799	14358
869.929	14541
870.06	14442
870.19	14674
870.32	14636
870.45	14659
870.58	14724
870.71	14804
870.84	14796
870.97	14746
871.1	14792
871.23	14895
871.36	14895
871.489	14834
871.619	14899
871.749	14929
871.879	14921
872.008	15070
872.138	14986
872.267	14853
872.397	14773
872.526	14845
872.656	14796
872.785	14792
872.915	14971
873.044	14895
873.173	15017
873.303	15100
873.432	15028
873.561	15017
873.69	14994
873.819	15097
873.948	15157
874.077	15066
874.206	14952
874.335	15039
874.464	15135
874.593	15291
874.722	15157
874.851	15359
874.979	15386
875.108	15359
875.237	15100
875.365	15245
875.494	15272
875.623	15466
875.751	15214
875.88	15279
876.008	15389
876.136	15530
876.265	15755
876.393	15873
876.521	15778
876.65	15739
876.778	15739
876.906	15587
877.034	15675
877.162	15709
877.29	15660
877.418	15709
877.546	15656
877.674	15705
877.802	15698
877.93	15732
878.058	15709
878.185	15728
878.313	15679
878.441	15778
878.568	15549
878.696	15656
878.824	15747
878.951	15778
879.079	15998
879.206	15964
879.333	15888
879.461	15838
879.588	15835
879.715	15789
879.842	15922
879.97	15812
880.097	15568
880.224	15599
880.351	15713
880.478	15625
880.605	15507
880.732	15660
880.859	15846
880.986	15671
881.112	15686
881.239	15523
881.366	15439
881.493	15207
881.619	15135
881.746	15317
881.872	15283
881.999	15188
882.125	15192
882.252	15252
882.378	15283
882.505	15393
882.631	15116
882.757	15051
882.883	15154
883.01	15051
883.136	14975
883.262	14864
883.388	14861
883.514	15108
883.64	15123
883.766	14960
883.892	14868
884.018	14891
884.143	15074
884.269	15165
884.395	14811
884.52	14746
884.646	14716
884.772	14724
884.897	14731
885.023	14762
885.148	14899
885.274	14906
885.399	14883
885.524	14667
885.65	14735
885.775	14773
885.9	14701
886.025	14910
886.15	14872
886.275	14826
886.4	14689
886.525	14765
886.65	14659
886.775	14670
886.9	14864
887.025	14963
887.149	14735
887.274	14644
887.399	14522
887.523	14587
887.648	14423
887.773	14541
887.897	14659
888.021	14640
888.146	14583
888.27	14667
888.395	14667
888.519	14587
888.643	14625
888.767	14621
888.891	14590
889.015	14370
889.139	14408
889.263	14473
889.387	14594
889.511	14651
889.635	14632
889.759	14415
889.883	14336
890.006	14488
890.13	14541
890.254	14301
890.377	14358
890.501	14282
890.624	14176
890.748	14259
890.871	14168
890.995	14054
891.118	14123
891.241	14046
891.364	14134
891.488	14180
891.611	14172
891.734	14103
891.857	14199
891.98	14176
892.103	14256
892.226	14180
892.349	14092
892.471	13970
892.594	14077
892.717	14214
892.839	14035
892.962	14210
893.085	14252
893.207	14164
893.33	14012
893.452	14027
893.575	14164
893.697	14084
893.819	14294
893.941	14332
894.064	14332
894.186	14168
894.308	14157
894.43	14278
894.552	14336
894.674	14202
894.796	14084
894.918	14092
895.04	14191
895.161	14248
895.283	14317
895.405	14233
895.526	14183
895.648	14317
895.769	14191
895.891	14278
896.012	14370
896.134	14408
896.255	14313
896.376	14282
896.498	14324
896.619	14434
896.74	14336
896.861	14358
896.982	14678
897.103	14800
897.224	14648
897.345	14587
897.466	14518
897.587	14632
897.708	14697
897.828	14648
897.949	14594
898.07	14442
898.19	14511
898.311	14804
898.431	14632
898.552	14682
898.672	14655
898.792	14720
898.913	14708
899.033	14663
899.153	14530
899.273	14381
899.393	14419
899.513	14473
899.633	14549
899.753	14545
899.873	14533
899.993	14613
900.113	14446
900.232	14648
900.352	14579
900.472	14442
900.591	14423
900.711	14381
900.83	14309
900.95	14484
901.069	14518
901.189	14252
901.308	14115
901.427	14081
901.546	14065
901.665	14077
901.784	14073
901.904	14046
902.023	13909
902.141	13655
902.26	13624
902.379	13700
902.498	13677
902.617	13594
902.735	13658
902.854	13548
902.973	13575
903.091	13377
903.21	13373
903.328	13388
903.446	13278
903.565	13247
903.683	13255
903.801	13168
903.919	13221
904.038	13175
904.156	12966
904.274	13095
904.392	13008
904.51	12954
904.627	13004
904.745	13088
904.863	13069
904.981	12829
905.098	12726
905.216	12665
905.334	12745
905.451	12658
905.569	12677
905.686	12791
905.803	12688
905.921	12532
906.038	12601
906.155	12540
906.272	12483
906.389	12410
906.506	12342
906.623	12258
906.74	12300
906.857	12190
906.974	12239
907.091	12369
907.208	12342
907.324	12323
907.441	12216
907.557	12064
907.674	12121
907.79	11977
907.907	11950
908.023	12034
908.139	12064
908.256	11923
908.372	11882
908.488	11950
908.604	11809
908.72	11767
908.836	11878
908.952	11737
909.068	11767
909.184	11863
909.3	11737
909.415	11821
909.531	11790
909.647	11562
909.762	11520
909.878	11482
909.993	11615
910.108	11516
910.224	11585
910.339	11642
910.454	11524
910.57	11436
910.685	11292
910.8	11638
910.915	11554
911.03	11528
911.145	11197
911.259	11166
911.374	11261
911.489	11113
911.604	11128
911.718	11048
911.833	11033
911.947	10843
912.062	10877
912.176	11090
912.291	11056
912.405	11003
912.519	11132
912.633	11296
912.748	11136
912.862	11052
912.976	10930
913.09	10824
913.204	10927
913.318	10900
913.431	10991
913.545	10972
913.659	10984
913.772	10946
913.886	10778
914	10733
914.113	10816
914.226	10961
914.34	10828
914.453	10744
914.566	10919
914.68	10740
914.793	10714
914.906	10558
915.019	10531
915.132	10470
915.245	10550
915.358	10519
915.47	10588
915.583	10588
915.696	10512
915.809	10687
915.921	10675
916.034	10512
916.146	10493
916.259	10417
916.371	10538
916.483	10565
916.595	10398
916.708	10447
916.82	10413
916.932	10440
917.044	10405
917.156	10493
917.268	10329
917.38	10325
917.491	10268
917.603	10348
917.715	10386
917.826	10447
917.938	10356
918.049	10284
918.161	10322
918.272	10569
918.384	10493
918.495	10363
918.606	10211
918.717	10139
918.828	10219
918.939	10207
919.05	10177
919.161	10211
919.272	9994
919.383	10120
919.494	10223
919.604	10424
919.715	10257
919.826	10207
919.936	10158
920.047	10314
920.157	10219
920.267	10432
920.378	10299
920.488	10238
920.598	10440
920.708	10538
920.818	10478
920.928	10409
921.038	10580
921.148	10573
921.258	10306
921.368	10257
921.477	10074
921.587	10124
921.697	10013
921.806	10097
921.916	9937
922.025	9873
922.134	9812
922.244	9720
922.353	9899
922.462	9694
922.571	9625
922.68	9496
922.789	9439
922.898	9557
923.007	9496
923.116	9450
923.224	9564
923.333	9462
923.442	9367
923.55	9401
923.659	9416
923.767	9458
923.876	9450
923.984	9481
924.092	9325
924.201	9359
924.309	9439
924.417	9401
924.525	9348
924.633	9351
924.741	10268
924.849	9211
924.956	9306
925.064	9154
925.172	9074
925.279	9203
925.387	9218
925.494	9135
925.602	9359
925.709	9188
925.816	9161
925.924	9169
926.031	9279
926.138	9165
926.245	9226
926.352	9032
926.459	9302
926.566	9287
926.673	9055
926.779	9001
926.886	9055
926.993	8941
927.099	8887
927.206	8914
927.312	8872
927.419	8910
927.525	8876
927.631	8944
927.737	8754
927.843	8781
927.95	8670
928.056	8762
928.162	8800
928.267	8842
928.373	9443
928.479	8899
928.585	8651
928.69	8872
928.796	8826
928.901	8708
929.007	8518
929.112	8743
929.218	8739
929.323	8632
929.428	8663
929.533	8743
929.638	8514
929.743	8594
929.848	8632
929.953	8610
930.058	8507
930.163	8400
930.267	8423
930.372	8533
930.477	8366
930.581	8648
930.685	8400
930.79	8275
930.894	8374
930.998	8294
931.103	8434
931.207	8065
931.311	8081
931.415	8001
931.519	7883
931.623	7769
