Data from test_V78500241_3011.txt Node
Date: Fri Mar 25 14:54:40 CST 2022
User: usil
Spectrometer: V785-0024
Trigger mode: 0
Integration Time (sec): 4.000000E-1
Scans to average: 1
Nonlinearity correction enabled: false
Boxcar width: 0
Storing dark spectrum: false
XAxis mode: Wavelengths
Number of Pixels in Spectrum: 1024
>>>>>Begin Spectral Data<<<<<
801.071	22139
801.214	22044
801.356	21701
801.499	21728
801.641	21572
801.783	21374
801.926	21458
802.068	21363
802.211	21252
802.353	21222
802.496	21066
802.638	20937
802.78	20979
802.923	20823
803.065	20701
803.208	20842
803.35	20883
803.492	20868
803.635	20967
803.777	20834
803.919	20914
804.061	21203
804.204	20899
804.346	20674
804.488	20579
804.63	20792
804.773	20659
804.915	20773
805.057	20895
805.199	20621
805.341	20800
805.483	20864
805.626	20823
805.768	20659
805.91	20682
806.052	20648
806.194	20621
806.336	20963
806.478	20625
806.62	20682
806.762	20621
806.904	20910
807.046	20998
807.188	21039
807.33	20982
807.472	21119
807.614	20937
807.756	20994
807.898	20788
808.04	20769
808.182	20705
808.324	20781
808.465	20785
808.607	20929
808.749	21207
808.891	21310
809.033	21310
809.174	21070
809.316	21093
809.458	21058
809.6	20963
809.741	21195
809.883	21161
810.025	21374
810.166	21294
810.308	21142
810.45	21173
810.591	21081
810.733	20880
810.875	20906
811.016	20800
811.158	20811
811.299	20864
811.441	20906
811.582	20826
811.724	20853
811.865	20724
812.007	20838
812.148	20781
812.29	21013
812.431	21028
812.573	21096
812.714	21233
812.855	21332
812.997	21462
813.138	21488
813.279	21424
813.421	21401
813.562	21351
813.703	21047
813.845	20902
813.986	20735
814.127	20651
814.268	20358
814.41	20488
814.551	20358
814.692	20480
814.833	20358
814.974	20343
815.115	20514
815.256	20229
815.397	20191
815.539	20237
815.68	20115
815.821	20062
815.962	20138
816.103	20008
816.244	19936
816.385	19788
816.526	19807
816.666	19655
816.807	19647
816.948	19712
817.089	19761
817.23	19586
817.371	19510
817.512	19457
817.653	19464
817.793	19449
817.934	19533
818.075	19586
818.216	19556
818.356	19449
818.497	19316
818.638	19171
818.778	19221
818.919	19282
819.06	19251
819.2	19244
819.341	19304
819.481	19403
819.622	19552
819.762	19750
819.903	19708
820.043	19586
820.184	19468
820.324	19388
820.465	19525
820.605	19563
820.746	19521
820.886	19293
821.026	19434
821.167	19396
821.307	19472
821.447	19480
821.588	19358
821.728	19137
821.868	19004
822.008	18913
822.149	18852
822.289	18897
822.429	18616
822.569	18525
822.709	18627
822.849	18350
822.99	18429
823.13	18391
823.27	18391
823.41	18213
823.55	18072
823.69	18182
823.83	18239
823.97	18144
824.11	17912
824.25	17901
824.389	17897
824.529	18026
824.669	17946
824.809	17973
824.949	18060
825.089	17999
825.228	17893
825.368	17828
825.508	17737
825.648	17904
825.787	17847
825.927	17771
826.067	17699
826.206	17710
826.346	17741
826.485	17745
826.625	17649
826.765	17809
826.904	17840
827.044	17532
827.183	17539
827.323	17387
827.462	17573
827.601	17406
827.741	17376
827.88	17467
828.02	17292
828.159	17383
828.298	17337
828.437	17493
828.577	17383
828.716	17493
828.855	17379
828.994	17083
829.134	17216
829.273	17181
829.412	17147
829.551	17056
829.69	17166
829.829	17216
829.968	17231
830.107	17166
830.246	17162
830.385	17212
830.524	16987
830.663	17018
830.802	16809
830.941	16755
831.08	16744
831.219	16957
831.357	16744
831.496	16885
831.635	16748
831.774	16733
831.913	16717
832.051	16584
832.19	16542
832.329	16584
832.467	16409
832.606	16402
832.744	16413
832.883	16451
833.022	16402
833.16	16417
833.299	16413
833.437	16440
833.576	16462
833.714	16561
833.852	16656
833.991	16485
834.129	16580
834.267	16550
834.406	16478
834.544	16584
834.682	16538
834.821	16512
834.959	16649
835.097	16451
835.235	16611
835.373	16565
835.511	16516
835.65	16413
835.788	16497
835.926	16306
836.064	16124
836.202	16261
836.34	16390
836.478	16451
836.615	16329
836.753	16424
836.891	16508
837.029	16409
837.167	16382
837.305	16344
837.443	16249
837.58	16207
837.718	16295
837.856	16329
837.993	16204
838.131	16337
838.269	16185
838.406	16200
838.544	16090
838.681	15903
838.819	16010
838.956	15797
839.094	15861
839.231	15835
839.369	15960
839.506	16234
839.643	16051
839.781	15857
839.918	15747
840.055	15766
840.193	15701
840.33	15846
840.467	15781
840.604	15865
840.742	16158
840.879	15751
841.016	15770
841.153	15797
841.29	15835
841.427	15781
841.564	15873
841.701	15865
841.838	15819
841.975	15747
842.112	15781
842.249	15724
842.385	15599
842.522	15728
842.659	15667
842.796	15481
842.933	15625
843.069	15610
843.206	15504
843.343	15663
843.479	15625
843.616	15580
843.752	15393
843.889	15363
844.025	15473
844.162	15405
844.298	15519
844.435	15359
844.571	15302
844.708	15431
844.844	15473
844.98	15450
845.117	15599
845.253	15348
845.389	15222
845.525	15325
845.661	15302
845.798	15180
845.934	15241
846.07	15100
846.206	15245
846.342	15462
846.478	15237
846.614	14994
846.75	14921
846.886	14929
847.022	15097
847.158	15020
847.294	15047
847.429	15005
847.565	15013
847.701	15180
847.837	14754
847.972	14758
848.108	14883
848.244	14762
848.379	14651
848.515	14518
848.65	14575
848.786	14564
848.921	14598
849.057	14716
849.192	14663
849.328	14575
849.463	14644
849.598	14552
849.734	14393
849.869	14503
850.004	14374
850.14	14442
850.275	14362
850.41	14305
850.545	14324
850.68	14286
850.815	14488
850.95	14328
851.085	14419
851.22	14431
851.355	14404
851.49	14343
851.625	14328
851.76	14328
851.895	14221
852.03	14168
852.165	14305
852.299	14336
852.434	14400
852.569	14396
852.703	14408
852.838	14419
852.973	14514
853.107	14488
853.242	14301
853.376	14206
853.511	14069
853.645	14229
853.78	14290
853.914	14218
854.048	14229
854.183	14050
854.317	14259
854.451	14313
854.585	14248
854.72	14180
854.854	14275
854.988	14168
855.122	14221
855.256	14054
855.39	14248
855.524	14229
855.658	14199
855.792	14214
855.926	14237
856.06	14271
856.194	14339
856.327	14202
856.461	14218
856.595	14046
856.729	14119
856.862	14313
856.996	14240
857.13	14343
857.263	14309
857.397	14301
857.53	14240
857.664	14294
857.797	14214
857.931	14271
858.064	14237
858.197	14320
858.331	14256
858.464	14111
858.597	14058
858.731	14263
858.864	14191
858.997	14138
859.13	14286
859.263	14164
859.396	14286
859.529	14142
859.662	14138
859.795	14176
859.928	14202
860.061	14332
860.194	14298
860.327	14259
860.46	14183
860.592	14358
860.725	14282
860.858	14263
860.99	14233
861.123	14149
861.256	14107
861.388	14199
861.521	14910
861.653	14027
861.786	14069
861.918	14054
862.05	14134
862.183	14157
862.315	14202
862.447	14161
862.58	14199
862.712	13921
862.844	13890
862.976	14050
863.108	13986
863.24	14492
863.372	13921
863.504	13978
863.636	13906
863.768	13967
863.9	13959
864.032	14027
864.164	13784
864.296	13944
864.428	14138
864.559	14145
864.691	14024
864.823	14020
864.954	14043
865.086	14039
865.217	13864
865.349	13997
865.48	13993
865.612	13875
865.743	14126
865.875	13917
866.006	13921
866.137	14031
866.269	13944
866.4	13913
866.531	13860
866.662	13868
866.793	13852
866.924	13967
867.055	14016
867.186	14031
867.317	13925
867.448	13898
867.579	13917
867.71	13928
867.841	13761
867.972	13993
868.103	13917
868.233	14039
868.364	14005
868.495	14039
868.625	14259
868.756	14324
868.886	14077
869.017	14157
869.147	14278
869.278	14301
869.408	14210
869.539	14180
869.669	14324
869.799	14248
869.929	14256
870.06	14320
870.19	14533
870.32	14533
870.45	14526
870.58	14659
870.71	14743
870.84	14754
870.97	14526
871.1	14617
871.23	14883
871.36	14842
871.489	14746
871.619	14857
871.749	14796
871.879	14910
872.008	14868
872.138	14815
872.267	14811
872.397	14678
872.526	14594
872.656	14617
872.785	14727
872.915	14785
873.044	14948
873.173	14872
873.303	14876
873.432	14834
873.561	14914
873.69	14868
873.819	14872
873.948	14857
874.077	14838
874.206	14914
874.335	14883
874.464	15024
874.593	15135
874.722	15154
874.851	15199
874.979	15184
875.108	15279
875.237	15108
875.365	15028
875.494	15207
875.623	15241
875.751	15184
875.88	15127
876.008	15260
876.136	15393
876.265	15553
876.393	15667
876.521	15614
876.65	15736
876.778	15507
876.906	15576
877.034	15477
877.162	15511
877.29	15523
877.418	15572
877.546	15701
877.674	15629
877.802	15507
877.93	15644
878.058	15606
878.185	15397
878.313	15663
878.441	15504
878.568	15355
878.696	15553
878.824	15576
878.951	15538
879.079	15736
879.206	15972
879.333	15827
879.461	15618
879.588	15667
879.715	15797
879.842	15953
879.97	15709
880.097	15431
880.224	15428
880.351	15401
880.478	15492
880.605	15431
880.732	15469
880.859	15766
880.986	15443
881.112	15538
881.239	15348
881.366	15207
881.493	15142
881.619	15074
881.746	15218
881.872	15100
881.999	15017
882.125	15043
882.252	15165
882.378	15207
882.505	15245
882.631	14998
882.757	14948
882.883	15051
883.01	14925
883.136	14895
883.262	14796
883.388	14781
883.514	14861
883.64	15001
883.766	14864
883.892	14667
884.018	14701
884.143	14979
884.269	14918
884.395	14644
884.52	14537
884.646	14632
884.772	14621
884.897	14632
885.023	14655
885.148	14773
885.274	14750
885.399	14594
885.524	14636
885.65	14583
885.775	14667
885.9	14511
886.025	14765
886.15	14648
886.275	14568
886.4	14537
886.525	14617
886.65	14583
886.775	14545
886.9	14746
887.025	14895
887.149	14587
887.274	14431
887.399	14389
887.523	14552
887.648	14396
887.773	14298
887.897	14530
888.021	14484
888.146	14442
888.27	14579
888.395	14617
888.519	14583
888.643	14518
888.767	14492
888.891	14328
889.015	14313
889.139	14305
889.263	14278
889.387	14446
889.511	14533
889.635	14370
889.759	14320
889.883	14256
890.006	14298
890.13	14374
890.254	14229
890.377	14233
890.501	14107
890.624	14043
890.748	14183
890.871	14077
890.995	14031
891.118	13906
891.241	14050
891.364	14031
891.488	14153
891.611	13951
891.734	13978
891.857	14077
891.98	14008
892.103	14138
892.226	14039
892.349	14039
892.471	13868
892.594	14031
892.717	14077
892.839	14020
892.962	14062
893.085	14161
893.207	14073
893.33	13864
893.452	13887
893.575	13997
893.697	13997
893.819	14214
893.941	14202
894.064	14218
894.186	13970
894.308	14005
894.43	14199
894.552	14252
894.674	14126
894.796	14035
894.918	14062
895.04	14077
895.161	14138
895.283	14202
895.405	14126
895.526	14020
895.648	14054
895.769	14145
895.891	14126
896.012	14267
896.134	14218
896.255	14286
896.376	14180
896.498	14081
896.619	14271
896.74	14199
896.861	14252
896.982	14640
897.103	14739
897.224	14446
897.345	14408
897.466	14400
897.587	14484
897.708	14571
897.828	14552
897.949	14400
898.07	14286
898.19	14495
898.311	14617
898.431	14492
898.552	14545
898.672	14697
898.792	14636
898.913	14629
899.033	14507
899.153	14446
899.273	14339
899.393	14476
899.513	14415
899.633	14438
899.753	14461
899.873	14450
899.993	14400
900.113	14374
900.232	14438
900.352	14370
900.472	14301
900.591	14221
900.711	14339
900.83	14225
900.95	14332
901.069	14317
901.189	14259
901.308	14039
901.427	13944
901.546	13993
901.665	13963
901.784	14073
901.904	13837
902.023	13837
902.141	13556
902.26	13586
902.379	13616
902.498	13483
902.617	13472
902.735	13616
902.854	13525
902.973	13362
903.091	13164
903.21	13324
903.328	13297
903.446	13187
903.565	13122
903.683	13118
903.801	12993
903.919	13031
904.038	13019
904.156	12951
904.274	12875
904.392	12825
904.51	12829
904.627	12875
904.745	12932
904.863	12939
904.981	12760
905.098	12563
905.216	12525
905.334	12608
905.451	12669
905.569	12559
905.686	12730
905.803	12566
905.921	12422
906.038	12597
906.155	12407
906.272	12304
906.389	12357
906.506	12155
906.623	12197
906.74	12182
906.857	12136
906.974	11988
907.091	12194
907.208	12327
907.324	12224
907.441	12175
907.557	11958
907.674	11885
907.79	11851
907.907	11916
908.023	11984
908.139	11996
908.256	11889
908.372	11798
908.488	11870
908.604	11790
908.72	11577
908.836	11718
908.952	11699
909.068	11634
909.184	11802
909.3	11691
909.415	11695
909.531	11653
909.647	11512
909.762	11436
909.878	11395
909.993	11478
910.108	11421
910.224	11440
910.339	11364
910.454	11379
910.57	11356
910.685	11235
910.8	11425
910.915	11520
911.03	11395
911.145	11151
911.259	11151
911.374	11159
911.489	11071
911.604	11029
911.718	10915
911.833	10869
911.947	10877
912.062	10675
912.176	10961
912.291	10881
912.405	10843
912.519	11098
912.633	11064
912.748	10976
912.862	10984
912.976	10725
913.09	10748
913.204	10809
913.318	10755
913.431	10927
913.545	10942
913.659	10927
913.772	10816
913.886	10706
914	10660
914.113	10767
914.226	10820
914.34	10759
914.453	10691
914.566	10786
914.68	10626
914.793	10611
914.906	10504
915.019	10367
915.132	10310
915.245	10421
915.358	10390
915.47	10466
915.583	10519
915.696	10497
915.809	10611
915.921	10588
916.034	10405
916.146	10405
916.259	10421
916.371	10516
916.483	10443
916.595	10382
916.708	10363
916.82	10409
916.932	10344
917.044	10379
917.156	10257
917.268	10242
917.38	10223
917.491	10291
917.603	10344
917.715	10402
917.826	10363
917.938	10318
918.049	10219
918.161	10333
918.272	10432
918.384	10462
918.495	10348
918.606	10246
918.717	10139
918.828	10242
918.939	10169
919.05	10090
919.161	10181
919.272	10013
919.383	10025
919.494	10219
919.604	10402
919.715	10227
919.826	10078
919.936	10158
920.047	10261
920.157	10200
920.267	10436
920.378	10246
920.488	10139
920.598	10382
920.708	10489
920.818	10390
920.928	10481
921.038	10512
921.148	10481
921.258	10238
921.368	10181
921.477	10093
921.587	10055
921.697	9968
921.806	10143
921.916	9953
922.025	9736
922.134	9789
922.244	9747
922.353	9778
922.462	9686
922.571	9591
922.68	9431
922.789	9450
922.898	9481
923.007	9428
923.116	9530
923.224	9424
923.333	9378
923.442	9374
923.55	9275
923.659	9332
923.767	9340
923.876	9230
923.984	9317
924.092	9214
924.201	9321
924.309	9298
924.417	9279
924.525	9279
924.633	9355
924.741	10215
924.849	9089
924.956	9374
925.064	9100
925.172	8994
925.279	9036
925.387	9180
925.494	9093
925.602	9249
925.709	9058
925.816	9066
925.924	9051
926.031	9211
926.138	9112
926.245	9157
926.352	9024
926.459	9123
926.566	9180
926.673	9066
926.779	8975
926.886	8994
926.993	8872
927.099	8807
927.206	8796
927.312	8781
927.419	8887
927.525	8861
927.631	8838
927.737	8670
927.843	8739
927.95	8655
928.056	8697
928.162	8724
928.267	8830
928.373	9272
928.479	8792
928.585	8606
928.69	8625
928.796	8762
928.901	8667
929.007	8518
929.112	8625
929.218	8610
929.323	8587
929.428	8560
929.533	8686
929.638	8434
929.743	8465
929.848	8579
929.953	8495
930.058	8476
930.163	8298
930.267	8377
930.372	8389
930.477	8282
930.581	8484
930.685	8347
930.79	8279
930.894	8320
930.998	8168
931.103	8355
931.207	8050
931.311	7947
931.415	7917
931.519	7727
931.623	7761
