Data from test_V78500241_787.txt Node
Date: Fri Mar 25 14:39:11 CST 2022
User: usil
Spectrometer: V785-0024
Trigger mode: 0
Integration Time (sec): 4.000000E-1
Scans to average: 1
Nonlinearity correction enabled: false
Boxcar width: 0
Storing dark spectrum: false
XAxis mode: Wavelengths
Number of Pixels in Spectrum: 1024
>>>>>Begin Spectral Data<<<<<
801.071	26674
801.214	26492
801.356	26275
801.499	26187
801.641	26035
801.783	26088
801.926	25932
802.068	25951
802.211	25887
802.353	25734
802.496	25601
802.638	25594
802.78	25460
802.923	25533
803.065	25438
803.208	25304
803.35	25575
803.492	25495
803.635	25639
803.777	25609
803.919	25613
804.061	25871
804.204	25685
804.346	25601
804.488	25556
804.63	25632
804.773	25472
804.915	25647
805.057	25974
805.199	25795
805.341	25986
805.483	26157
805.626	26054
805.768	25966
805.91	26229
806.052	26271
806.194	26457
806.336	26777
806.478	26743
806.62	26902
806.762	27176
806.904	27530
807.046	28040
807.188	28131
807.33	28809
807.472	29102
807.614	29722
807.756	30384
807.898	31533
808.04	32708
808.182	34569
808.324	36878
808.465	39344
808.607	42349
808.749	44788
808.891	46322
809.033	46504
809.174	44940
809.316	42593
809.458	39408
809.6	36502
809.741	34261
809.883	32282
810.025	30989
810.166	30011
810.308	29391
810.45	28706
810.591	28261
810.733	27736
810.875	27519
811.016	27142
811.158	27017
811.299	26861
811.441	26849
811.582	26765
811.724	26446
811.865	26457
812.007	26206
812.148	26290
812.29	26301
812.431	26244
812.573	26415
812.714	26533
812.855	26587
812.997	26613
813.138	26632
813.279	26549
813.421	26275
813.562	26309
813.703	26077
813.845	26024
813.986	25559
814.127	25453
814.268	25168
814.41	25335
814.551	25232
814.692	25152
814.833	25103
814.974	25133
815.115	25126
815.256	24848
815.397	24901
815.539	24825
815.68	24749
815.821	24631
815.962	24757
816.103	24669
816.244	24555
816.385	24426
816.526	24475
816.666	24209
816.807	24114
816.948	24186
817.089	24064
817.23	24049
817.371	24038
817.512	24003
817.653	23980
817.793	23901
817.934	23939
818.075	23961
818.216	23885
818.356	23870
818.497	23802
818.638	23592
818.778	23589
818.919	23859
819.06	23764
819.2	23863
819.341	23805
819.481	23843
819.622	23950
819.762	24140
819.903	24171
820.043	23745
820.184	23855
820.324	23855
820.465	23939
820.605	23752
820.746	23775
820.886	23642
821.026	23642
821.167	23737
821.307	23821
821.447	23764
821.588	23512
821.728	23379
821.868	23235
822.008	23109
822.149	23098
822.289	23014
822.429	22793
822.569	22759
822.709	22847
822.849	22466
822.99	22459
823.13	22440
823.27	22459
823.41	22337
823.55	22344
823.69	22348
823.83	22394
823.97	22276
824.11	22048
824.25	22139
824.389	21998
824.529	22078
824.669	22070
824.809	22291
824.949	22086
825.089	22147
825.228	22048
825.368	22006
825.508	21861
825.648	21953
825.787	21941
825.927	21857
826.067	21876
826.206	21739
826.346	21937
826.485	21816
826.625	21956
826.765	21907
826.904	21850
827.044	21698
827.183	21553
827.323	21416
827.462	21618
827.601	21591
827.741	21511
827.88	21466
828.02	21572
828.159	21447
828.298	21496
828.437	21542
828.577	21462
828.716	21629
828.855	21355
828.994	21218
829.134	21336
829.273	21313
829.412	21096
829.551	21135
829.69	21264
829.829	21127
829.968	21230
830.107	21249
830.246	20960
830.385	21119
830.524	21108
830.663	20941
830.802	20925
830.941	20731
831.08	20785
831.219	20864
831.357	20891
831.496	21017
831.635	20876
831.774	20720
831.913	20807
832.051	20598
832.19	20644
832.329	20663
832.467	20579
832.606	20659
832.744	20636
832.883	20670
833.022	20625
833.16	20876
833.299	21089
833.437	21013
833.576	21176
833.714	21233
833.852	21386
833.991	21481
834.129	21633
834.267	21652
834.406	21736
834.544	21466
834.682	21428
834.821	21279
834.959	21329
835.097	21077
835.235	21013
835.373	20895
835.511	20823
835.65	20708
835.788	20503
835.926	20408
836.064	20278
836.202	20324
836.34	20400
836.478	20488
836.615	20343
836.753	20374
836.891	20434
837.029	20343
837.167	20286
837.305	20199
837.443	20225
837.58	20221
837.718	20145
837.856	20130
837.993	19993
838.131	20176
838.269	20149
838.406	20077
838.544	19982
838.681	19841
838.819	19765
838.956	19647
839.094	19609
839.231	19677
839.369	19738
839.506	20039
839.643	19780
839.781	19563
839.918	19666
840.055	19525
840.193	19525
840.33	19582
840.467	19609
840.604	19666
840.742	19849
840.879	19483
841.016	19601
841.153	19510
841.29	19594
841.427	19540
841.564	19628
841.701	19495
841.838	19468
841.975	19506
842.112	19491
842.249	19445
842.385	19350
842.522	19594
842.659	19419
842.796	19377
842.933	19438
843.069	19441
843.206	19407
843.343	19445
843.479	19487
843.616	19708
843.752	19373
843.889	19438
844.025	19483
844.162	19480
844.298	19635
844.435	19776
844.571	19951
844.708	20153
844.844	20648
844.98	20864
845.117	21511
845.253	22200
845.389	23832
845.525	26796
845.661	31837
845.798	37852
845.934	42201
846.07	44233
846.206	42909
846.342	38918
846.478	33039
846.614	27800
846.75	24391
846.886	22367
847.022	21310
847.158	20408
847.294	19864
847.429	19628
847.565	19400
847.701	19575
847.837	18947
847.972	18814
848.108	18837
848.244	18749
848.379	18486
848.515	18414
848.65	18426
848.786	18353
848.921	18437
849.057	18509
849.192	18403
849.328	18258
849.463	18228
849.598	18418
849.734	18232
849.869	18194
850.004	18114
850.14	18045
850.275	18034
850.41	17996
850.545	18049
850.68	17954
850.815	18098
850.95	17961
851.085	18121
851.22	18144
851.355	18026
851.49	18034
851.625	18026
851.76	17923
851.895	18015
852.03	17969
852.165	18102
852.299	17973
852.434	18049
852.569	18060
852.703	18072
852.838	18174
852.973	18258
853.107	18136
853.242	18133
853.376	17973
853.511	17927
853.645	18159
853.78	18167
853.914	18186
854.048	18125
854.183	18209
854.317	18262
854.451	18270
854.585	18228
854.72	18216
854.854	18171
854.988	18057
855.122	18095
855.256	17954
855.39	17961
855.524	18148
855.658	18049
855.792	18068
855.926	17954
856.06	17916
856.194	17988
856.327	17817
856.461	17752
856.595	17836
856.729	17866
856.862	17882
856.996	17904
857.13	17980
857.263	18003
857.397	17866
857.53	17790
857.664	17840
857.797	17824
857.931	17942
858.064	17821
858.197	17824
858.331	17752
858.464	17695
858.597	17585
858.731	17661
858.864	17680
858.997	17687
859.13	17859
859.263	17840
859.396	17904
859.529	17726
859.662	17661
859.795	17532
859.928	17668
860.061	17752
860.194	17775
860.327	17684
860.46	17684
860.592	17836
860.725	17748
860.858	17764
860.99	17707
861.123	17642
861.256	17627
861.388	17882
861.521	18239
861.653	17554
861.786	17524
861.918	17509
862.05	17634
862.183	17668
862.315	17623
862.447	17638
862.58	17672
862.712	17395
862.844	17345
862.976	17417
863.108	17452
863.24	17874
863.372	17269
863.504	17269
863.636	17273
863.768	17337
863.9	17353
864.032	17261
864.164	17334
864.296	17436
864.428	17524
864.559	17383
864.691	17299
864.823	17414
864.954	17322
865.086	17349
865.217	17322
865.349	17265
865.48	17280
865.612	17379
865.743	17410
865.875	17337
866.006	17220
866.137	17250
866.269	17387
866.4	17334
866.531	17277
866.662	17220
866.793	17235
866.924	17322
867.055	17246
867.186	17299
867.317	17242
867.448	17124
867.579	17212
867.71	17254
867.841	17113
867.972	17284
868.103	17299
868.233	17261
868.364	17181
868.495	17395
868.625	17395
868.756	17634
868.886	17455
869.017	17421
869.147	17707
869.278	17657
869.408	17554
869.539	17547
869.669	17623
869.799	17562
869.929	17585
870.06	17668
870.19	17927
870.32	17893
870.45	17882
870.58	18015
870.71	18007
870.84	18174
870.97	18098
871.1	17969
871.23	18232
871.36	18228
871.489	18091
871.619	18190
871.749	18186
871.879	18277
872.008	18319
872.138	18224
872.267	18292
872.397	18235
872.526	18152
872.656	18060
872.785	18178
872.915	18281
873.044	18361
873.173	18452
873.303	18452
873.432	18376
873.561	18475
873.69	18380
873.819	18452
873.948	18578
874.077	18513
874.206	18563
874.335	18589
874.464	18715
874.593	18882
874.722	18798
874.851	18909
874.979	19004
875.108	18966
875.237	18916
875.365	18962
875.494	19148
875.623	19198
875.751	19034
875.88	19141
876.008	19358
876.136	19449
876.265	19719
876.393	19890
876.521	19970
876.65	19932
876.778	19963
876.906	19936
877.034	20069
877.162	20043
877.29	20065
877.418	20351
877.546	20298
877.674	20301
877.802	20473
877.93	20541
878.058	20716
878.185	20819
878.313	21093
878.441	21359
878.568	21618
878.696	22200
878.824	22938
878.951	23916
879.079	25274
879.206	27074
879.333	29025
879.461	30410
879.588	31472
879.715	31449
879.842	30540
879.97	28828
880.097	27013
880.224	25540
880.351	24483
880.478	23737
880.605	23299
880.732	23018
880.859	23090
880.986	22489
881.112	22577
881.239	22390
881.366	22162
881.493	22124
881.619	21983
881.746	22169
881.872	22219
881.999	22120
882.125	22086
882.252	22287
882.378	22333
882.505	22485
882.631	22230
882.757	22169
882.883	22093
883.01	22010
883.136	22128
883.262	21865
883.388	21838
883.514	22059
883.64	22040
883.766	21949
883.892	21857
884.018	21979
884.143	22086
884.269	22135
884.395	21884
884.52	21774
884.646	21934
884.772	21690
884.897	21736
885.023	21831
885.148	21956
885.274	21831
885.399	21717
885.524	21644
885.65	21542
885.775	21408
885.9	21207
886.025	21180
886.15	21074
886.275	20929
886.4	20674
886.525	20541
886.65	20461
886.775	20320
886.9	20419
887.025	20434
887.149	20130
887.274	19947
887.399	19708
887.523	19685
887.648	19628
887.773	19647
887.897	19715
888.021	19521
888.146	19419
888.27	19514
888.395	19422
888.519	19350
888.643	19274
888.767	19255
888.891	19076
889.015	19019
889.139	19034
889.263	18817
889.387	18947
889.511	19110
889.635	18954
889.759	18859
889.883	18833
890.006	18779
890.13	18719
890.254	18635
890.377	18593
890.501	18441
890.624	18304
890.748	18471
890.871	18315
890.995	18102
891.118	18129
891.241	18167
891.364	18072
891.488	18167
891.611	17973
891.734	18064
891.857	18121
891.98	17931
892.103	18098
892.226	17866
892.349	17836
892.471	17699
892.594	17824
892.717	17809
892.839	17764
892.962	17634
893.085	17794
893.207	17611
893.33	17596
893.452	17608
893.575	17668
893.697	17638
893.819	17703
893.941	17733
894.064	17760
894.186	17478
894.308	17387
894.43	17585
894.552	17710
894.674	17516
894.796	17307
894.918	17455
895.04	17345
895.161	17455
895.283	17433
895.405	17478
895.526	17315
895.648	17250
895.769	17330
895.891	17360
896.012	17379
896.134	17341
896.255	17387
896.376	17398
896.498	17364
896.619	17436
896.74	17330
896.861	17478
896.982	17699
897.103	17760
897.224	17585
897.345	17509
897.466	17516
897.587	17433
897.708	17615
897.828	17516
897.949	17387
898.07	17284
898.19	17410
898.311	17718
898.431	17535
898.552	17562
898.672	17630
898.792	17608
898.913	17528
899.033	17486
899.153	17391
899.273	17204
899.393	17360
899.513	17337
899.633	17258
899.753	17387
899.873	17246
899.993	17364
900.113	17318
900.232	17341
900.352	17216
900.472	17239
900.591	17185
900.711	17185
900.83	16965
900.95	17204
901.069	17242
901.189	17060
901.308	16782
901.427	16713
901.546	16694
901.665	16866
901.784	16797
901.904	16630
902.023	16405
902.141	16386
902.26	16200
902.379	16246
902.498	16192
902.617	16169
902.735	16295
902.854	16139
902.973	16067
903.091	15873
903.21	15869
903.328	15701
903.446	15713
903.565	15633
903.683	15728
903.801	15568
903.919	15568
904.038	15580
904.156	15329
904.274	15492
904.392	15329
904.51	15336
904.627	15348
904.745	15439
904.863	15500
904.981	15237
905.098	15047
905.216	15097
905.334	15108
905.451	15093
905.569	15074
905.686	15112
905.803	14998
905.921	14842
906.038	14941
906.155	14845
906.272	14762
906.389	14716
906.506	14613
906.623	14514
906.74	14503
906.857	14465
906.974	14507
907.091	14785
907.208	14727
907.324	14594
907.441	14484
907.557	14393
907.674	14248
907.79	14168
907.907	14259
908.023	14381
908.139	14263
908.256	14195
908.372	14195
908.488	14088
908.604	14001
908.72	13932
908.836	14035
908.952	13932
909.068	14035
909.184	14073
909.3	13959
909.415	14039
909.531	14024
909.647	13788
909.762	13704
909.878	13750
909.993	13731
910.108	13738
910.224	13674
910.339	13780
910.454	13647
910.57	13575
910.685	13502
910.8	13780
910.915	13723
911.03	13639
911.145	13415
911.259	13304
911.374	13384
911.489	13460
911.604	13270
911.718	13133
911.833	13141
911.947	13004
912.062	12962
912.176	13072
912.291	13137
912.405	13126
912.519	13263
912.633	13316
912.748	13164
912.862	13152
912.976	12973
913.09	12935
913.204	12939
913.318	12958
913.431	13099
913.545	13061
913.659	13053
913.772	12932
913.886	12852
914	12875
914.113	12863
914.226	12962
914.34	13057
914.453	12779
914.566	12958
914.68	12768
914.793	12772
914.906	12673
915.019	12574
915.132	12479
915.245	12471
915.358	12646
915.47	12593
915.583	12563
915.696	12604
915.809	12810
915.921	12711
916.034	12521
916.146	12601
916.259	12536
916.371	12658
916.483	12684
916.595	12585
916.708	12456
916.82	12502
916.932	12464
917.044	12506
917.156	12547
917.268	12266
917.38	12388
917.491	12365
917.603	12403
917.715	12384
917.826	12429
917.938	12296
918.049	12175
918.161	12235
918.272	12445
918.384	12448
918.495	12300
918.606	12205
918.717	12098
918.828	12133
918.939	12117
919.05	12041
919.161	12083
919.272	11889
919.383	11942
919.494	12232
919.604	12289
919.715	12102
919.826	11992
919.936	12133
920.047	12175
920.157	12133
920.267	12289
920.378	12133
920.488	12064
920.598	12243
920.708	12464
920.818	12281
920.928	12315
921.038	12399
921.148	12456
921.258	12072
921.368	11942
921.477	11912
921.587	11828
921.697	11764
921.806	11824
921.916	11786
922.025	11611
922.134	11558
922.244	11528
922.353	11554
922.462	11383
922.571	11337
922.68	11239
922.789	11231
922.898	11288
923.007	11193
923.116	11269
923.224	11212
923.333	11235
923.442	11185
923.55	11109
923.659	11155
923.767	11258
923.876	11067
923.984	11143
924.092	11025
924.201	11052
924.309	11025
924.417	11022
924.525	10987
924.633	10961
924.741	11901
924.849	10816
924.956	10904
925.064	10858
925.172	10733
925.279	10683
925.387	10828
925.494	10828
925.602	10919
925.709	10869
925.816	10717
925.924	10774
926.031	10790
926.138	10790
926.245	10805
926.352	10687
926.459	10869
926.566	10869
926.673	10691
926.779	10588
926.886	10573
926.993	10565
927.099	10478
927.206	10367
927.312	10398
927.419	10470
927.525	10432
927.631	10527
927.737	10234
927.843	10341
927.95	10139
928.056	10257
928.162	10295
928.267	10314
928.373	10927
928.479	10432
928.585	10097
928.69	10192
928.796	10421
928.901	10162
929.007	10051
929.112	10158
929.218	10158
929.323	10162
929.428	10109
929.533	10230
929.638	10017
929.743	10097
929.848	10097
929.953	10017
930.058	9987
930.163	9793
930.267	9774
930.372	10006
930.477	9751
930.581	10029
930.685	9873
930.79	9724
930.894	9740
930.998	9747
931.103	9850
931.207	9454
931.311	9443
931.415	9382
931.519	9188
931.623	9150
