Data from test_V78500241_2377.txt Node
Date: Fri Mar 25 14:50:15 CST 2022
User: usil
Spectrometer: V785-0024
Trigger mode: 0
Integration Time (sec): 4.000000E-1
Scans to average: 1
Nonlinearity correction enabled: false
Boxcar width: 0
Storing dark spectrum: false
XAxis mode: Wavelengths
Number of Pixels in Spectrum: 1024
>>>>>Begin Spectral Data<<<<<
801.071	22284
801.214	22032
801.356	21709
801.499	21743
801.641	21572
801.783	21504
801.926	21526
802.068	21545
802.211	21397
802.353	21252
802.496	21093
802.638	21055
802.78	20937
802.923	20887
803.065	20944
803.208	20762
803.35	20849
803.492	20994
803.635	21100
803.777	20880
803.919	20986
804.061	21237
804.204	20929
804.346	20826
804.488	20705
804.63	20914
804.773	20792
804.915	20731
805.057	20815
805.199	20708
805.341	20967
805.483	21005
805.626	20910
805.768	20838
805.91	20754
806.052	20815
806.194	20857
806.336	20891
806.478	20746
806.62	20705
806.762	20674
806.904	20861
807.046	21165
807.188	21245
807.33	21089
807.472	21150
807.614	21009
807.756	21036
807.898	20914
808.04	20853
808.182	20769
808.324	20762
808.465	20906
808.607	21028
808.749	21192
808.891	21264
809.033	21382
809.174	21287
809.316	21161
809.458	21218
809.6	21077
809.741	21275
809.883	21218
810.025	21214
810.166	21397
810.308	21351
810.45	21249
810.591	21127
810.733	21062
810.875	20956
811.016	20811
811.158	20811
811.299	20956
811.441	21096
811.582	20956
811.724	20781
811.865	20910
812.007	20857
812.148	20982
812.29	20967
812.431	21127
812.573	21317
812.714	21351
812.855	21523
812.997	21542
813.138	21549
813.279	21538
813.421	21412
813.562	21325
813.703	21207
813.845	21184
813.986	20792
814.127	20613
814.268	20590
814.41	20568
814.551	20469
814.692	20507
814.833	20480
814.974	20442
815.115	20389
815.256	20476
815.397	20191
815.539	20389
815.68	20229
815.821	20237
815.962	20240
816.103	20145
816.244	20168
816.385	19955
816.526	19967
816.666	19780
816.807	19712
816.948	19658
817.089	19715
817.23	19681
817.371	19658
817.512	19616
817.653	19616
817.793	19495
817.934	19601
818.075	19655
818.216	19605
818.356	19499
818.497	19419
818.638	19255
818.778	19263
818.919	19247
819.06	19339
819.2	19495
819.341	19548
819.481	19487
819.622	19601
819.762	19784
819.903	19643
820.043	19628
820.184	19540
820.324	19533
820.465	19537
820.605	19578
820.746	19628
820.886	19426
821.026	19529
821.167	19578
821.307	19670
821.447	19525
821.588	19480
821.728	19236
821.868	19110
822.008	19008
822.149	18901
822.289	18981
822.429	18753
822.569	18696
822.709	18612
822.849	18585
822.99	18536
823.13	18486
823.27	18426
823.41	18361
823.55	18315
823.69	18380
823.83	18403
823.97	18342
824.11	17965
824.25	18091
824.389	18072
824.529	18095
824.669	18011
824.809	18216
824.949	18163
825.089	18140
825.228	18144
825.368	17821
825.508	17950
825.648	17927
825.787	17935
825.927	17961
826.067	17786
826.206	17786
826.346	17882
826.485	17828
826.625	17809
826.765	17969
826.904	17923
827.044	17668
827.183	17691
827.323	17577
827.462	17634
827.601	17539
827.741	17570
827.88	17592
828.02	17482
828.159	17501
828.298	17547
828.437	17619
828.577	17554
828.716	17680
828.855	17581
828.994	17379
829.134	17372
829.273	17356
829.412	17258
829.551	17299
829.69	17326
829.829	17299
829.968	17345
830.107	17360
830.246	17322
830.385	17143
830.524	17143
830.663	17105
830.802	16915
830.941	16942
831.08	16934
831.219	16915
831.357	16965
831.496	17162
831.635	16869
831.774	16759
831.913	16828
832.051	16687
832.19	16733
832.329	16744
832.467	16626
832.606	16634
832.744	16615
832.883	16584
833.022	16592
833.16	16694
833.299	16565
833.437	16577
833.576	16622
833.714	16630
833.852	16599
833.991	16641
834.129	16683
834.267	16611
834.406	16702
834.544	16630
834.682	16653
834.821	16649
834.959	16816
835.097	16634
835.235	16694
835.373	16660
835.511	16691
835.65	16550
835.788	16519
835.926	16538
836.064	16299
836.202	16367
836.34	16592
836.478	16630
836.615	16649
836.753	16500
836.891	16634
837.029	16584
837.167	16535
837.305	16497
837.443	16382
837.58	16348
837.718	16489
837.856	16405
837.993	16390
838.131	16382
838.269	16337
838.406	16360
838.544	16238
838.681	16109
838.819	16082
838.956	16029
839.094	16025
839.231	15941
839.369	16082
839.506	16363
839.643	16246
839.781	15972
839.918	15873
840.055	15899
840.193	15888
840.33	15739
840.467	15953
840.604	16032
840.742	16249
840.879	15907
841.016	15759
841.153	15751
841.29	16025
841.427	15979
841.564	15918
841.701	15998
841.838	15880
841.975	15903
842.112	15781
842.249	15774
842.385	15679
842.522	15960
842.659	15816
842.796	15720
842.933	15675
843.069	15663
843.206	15652
843.343	15793
843.479	15686
843.616	15679
843.752	15488
843.889	15450
844.025	15766
844.162	15500
844.298	15694
844.435	15473
844.571	15374
844.708	15587
844.844	15648
844.98	15584
845.117	15717
845.253	15526
845.389	15321
845.525	15488
845.661	15351
845.798	15279
845.934	15306
846.07	15245
846.206	15325
846.342	15408
846.478	15386
846.614	15142
846.75	15039
846.886	15081
847.022	15150
847.158	15165
847.294	15123
847.429	15089
847.565	14963
847.701	15329
847.837	14769
847.972	14864
848.108	14963
848.244	14914
848.379	14590
848.515	14686
848.65	14625
848.786	14610
848.921	14663
849.057	14754
849.192	14708
849.328	14731
849.463	14655
849.598	14693
849.734	14648
849.869	14530
850.004	14530
850.14	14412
850.275	14457
850.41	14313
850.545	14461
850.68	14488
850.815	14484
850.95	14454
851.085	14648
851.22	14518
851.355	14412
851.49	14492
851.625	14366
851.76	14457
851.895	14294
852.03	14343
852.165	14332
852.299	14480
852.434	14533
852.569	14499
852.703	14511
852.838	14549
852.973	14632
853.107	14552
853.242	14400
853.376	14263
853.511	14218
853.645	14267
853.78	14446
853.914	14313
854.048	14328
854.183	14271
854.317	14358
854.451	14427
854.585	14313
854.72	14237
854.854	14374
854.988	14199
855.122	14332
855.256	14119
855.39	14244
855.524	14400
855.658	14393
855.792	14164
855.926	14427
856.06	14351
856.194	14370
856.327	14275
856.461	14282
856.595	14278
856.729	14248
856.862	14358
856.996	14343
857.13	14446
857.263	14404
857.397	14434
857.53	14286
857.664	14412
857.797	14347
857.931	14450
858.064	14457
858.197	14469
858.331	14298
858.464	14286
858.597	14187
858.731	14328
858.864	14206
858.997	14278
859.13	14282
859.263	14320
859.396	14377
859.529	14278
859.662	14286
859.795	14145
859.928	14374
860.061	14465
860.194	14484
860.327	14343
860.46	14351
860.592	14355
860.725	14514
860.858	14423
860.99	14343
861.123	14240
861.256	14164
861.388	14256
861.521	14796
861.653	14218
861.786	14240
861.918	14225
862.05	14123
862.183	14332
862.315	14286
862.447	14309
862.58	14176
862.712	14062
862.844	14035
862.976	14172
863.108	14054
863.24	14434
863.372	13997
863.504	13974
863.636	14077
863.768	14176
863.9	14126
864.032	14050
864.164	14016
864.296	14119
864.428	14248
864.559	14252
864.691	14119
864.823	14168
864.954	14103
865.086	14123
865.217	14065
865.349	13993
865.48	14031
865.612	14020
865.743	14111
865.875	14111
866.006	14069
866.137	14103
866.269	14103
866.4	14081
866.531	14035
866.662	14001
866.793	14020
866.924	14062
867.055	14119
867.186	14092
867.317	14065
867.448	14024
867.579	14001
867.71	14081
867.841	13955
867.972	14062
868.103	14054
868.233	14065
868.364	13993
868.495	14180
868.625	14240
868.756	14442
868.886	14244
869.017	14256
869.147	14427
869.278	14385
869.408	14400
869.539	14286
869.669	14377
869.799	14374
869.929	14412
870.06	14389
870.19	14655
870.32	14602
870.45	14610
870.58	14640
870.71	14769
870.84	14773
870.97	14769
871.1	14781
871.23	14937
871.36	14899
871.489	14845
871.619	14880
871.749	14921
871.879	14910
872.008	15074
872.138	14891
872.267	15005
872.397	14777
872.526	14750
872.656	14735
872.785	14811
872.915	14925
873.044	14963
873.173	14998
873.303	14921
873.432	15009
873.561	15085
873.69	14963
873.819	14963
873.948	15051
874.077	14990
874.206	14910
874.335	14975
874.464	15135
874.593	15180
874.722	15195
874.851	15275
874.979	15256
875.108	15370
875.237	15173
875.365	15230
875.494	15192
875.623	15310
875.751	15169
875.88	15313
876.008	15279
876.136	15542
876.265	15652
876.393	15762
876.521	15736
876.65	15793
876.778	15690
876.906	15652
877.034	15652
877.162	15667
877.29	15561
877.418	15663
877.546	15633
877.674	15713
877.802	15751
877.93	15720
878.058	15667
878.185	15523
878.313	15633
878.441	15656
878.568	15584
878.696	15580
878.824	15751
878.951	15793
879.079	15903
879.206	15949
879.333	15759
879.461	15766
879.588	15694
879.715	15880
879.842	15941
879.97	15899
880.097	15542
880.224	15564
880.351	15671
880.478	15481
880.605	15447
880.732	15420
880.859	15713
880.986	15485
881.112	15507
881.239	15492
881.366	15241
881.493	15184
881.619	15226
881.746	15291
881.872	15222
881.999	15093
882.125	15112
882.252	15161
882.378	15218
882.505	15272
882.631	15123
882.757	15047
882.883	14941
883.01	15013
883.136	14937
883.262	14910
883.388	14743
883.514	15024
883.64	15005
883.766	15032
883.892	14788
884.018	14937
884.143	15028
884.269	15112
884.395	14849
884.52	14731
884.646	14659
884.772	14606
884.897	14648
885.023	14651
885.148	14811
885.274	14937
885.399	14792
885.524	14663
885.65	14674
885.775	14739
885.9	14674
886.025	14876
886.15	14880
886.275	14651
886.4	14701
886.525	14693
886.65	14549
886.775	14526
886.9	14830
887.025	14845
887.149	14670
887.274	14621
887.399	14541
887.523	14583
887.648	14434
887.773	14530
887.897	14560
888.021	14590
888.146	14457
888.27	14712
888.395	14640
888.519	14678
888.643	14545
888.767	14564
888.891	14484
889.015	14412
889.139	14427
889.263	14301
889.387	14537
889.511	14610
889.635	14552
889.759	14320
889.883	14419
890.006	14404
890.13	14476
890.254	14298
890.377	14389
890.501	14263
890.624	14225
890.748	14237
890.871	14111
890.995	14001
891.118	13967
891.241	14206
891.364	14119
891.488	14206
891.611	14126
891.734	14111
891.857	14176
891.98	14130
892.103	14233
892.226	14062
892.349	14153
892.471	13925
892.594	14134
892.717	14149
892.839	13959
892.962	14111
893.085	14206
893.207	14096
893.33	14001
893.452	14031
893.575	14126
893.697	14145
893.819	14267
893.941	14324
894.064	14161
894.186	14035
894.308	14035
894.43	14263
894.552	14248
894.674	14206
894.796	14050
894.918	14107
895.04	14134
895.161	14263
895.283	14271
895.405	14157
895.526	14252
895.648	14199
895.769	14309
895.891	14278
896.012	14377
896.134	14305
896.255	14240
896.376	14278
896.498	14259
896.619	14412
896.74	14229
896.861	14328
896.982	14648
897.103	14804
897.224	14427
897.345	14514
897.466	14537
897.587	14606
897.708	14663
897.828	14549
897.949	14488
898.07	14419
898.19	14507
898.311	14587
898.431	14537
898.552	14606
898.672	14731
898.792	14720
898.913	14731
899.033	14606
899.153	14503
899.273	14351
899.393	14549
899.513	14511
899.633	14507
899.753	14568
899.873	14503
899.993	14488
900.113	14454
900.232	14499
900.352	14366
900.472	14339
900.591	14240
900.711	14427
900.83	14191
900.95	14423
901.069	14549
901.189	14351
901.308	14107
901.427	14031
901.546	14126
901.665	13978
901.784	14073
901.904	13890
902.023	13807
902.141	13693
902.26	13620
902.379	13666
902.498	13624
902.617	13594
902.735	13689
902.854	13510
902.973	13540
903.091	13320
903.21	13285
903.328	13373
903.446	13228
903.565	13156
903.683	13160
903.801	13084
903.919	13099
904.038	13202
904.156	12951
904.274	13061
904.392	12890
904.51	12958
904.627	12977
904.745	13031
904.863	13061
904.981	12726
905.098	12642
905.216	12700
905.334	12646
905.451	12768
905.569	12623
905.686	12650
905.803	12726
905.921	12460
906.038	12544
906.155	12525
906.272	12448
906.389	12327
906.506	12315
906.623	12285
906.74	12213
906.857	12182
906.974	12110
907.091	12311
907.208	12353
907.324	12224
907.441	12155
907.557	11996
907.674	12034
907.79	11927
907.907	11996
908.023	12011
908.139	12030
908.256	11920
908.372	11988
908.488	11885
908.604	11741
908.72	11775
908.836	11809
908.952	11745
909.068	11805
909.184	11836
909.3	11790
909.415	11828
909.531	11798
909.647	11554
909.762	11493
909.878	11455
909.993	11623
910.108	11570
910.224	11520
910.339	11444
910.454	11474
910.57	11436
910.685	11261
910.8	11592
910.915	11516
911.03	11387
911.145	11269
911.259	11235
911.374	11322
911.489	11162
911.604	11079
911.718	10968
911.833	11033
911.947	10869
912.062	10854
912.176	10972
912.291	11022
912.405	11056
912.519	11155
912.633	11269
912.748	11048
912.862	10972
912.976	10869
913.09	10733
913.204	10831
913.318	10885
913.431	11033
913.545	10908
913.659	10953
913.772	10835
913.886	10801
914	10706
914.113	10908
914.226	10927
914.34	10889
914.453	10615
914.566	10759
914.68	10668
914.793	10645
914.906	10519
915.019	10428
915.132	10386
915.245	10440
915.358	10462
915.47	10550
915.583	10516
915.696	10504
915.809	10588
915.921	10630
916.034	10519
916.146	10500
916.259	10394
916.371	10538
916.483	10481
916.595	10375
916.708	10443
916.82	10386
916.932	10386
917.044	10386
917.156	10386
917.268	10299
917.38	10382
917.491	10329
917.603	10371
917.715	10402
917.826	10390
917.938	10280
918.049	10204
918.161	10253
918.272	10493
918.384	10363
918.495	10379
918.606	10230
918.717	10188
918.828	10196
918.939	10280
919.05	10169
919.161	10147
919.272	9998
919.383	10124
919.494	10276
919.604	10455
919.715	10147
919.826	10059
919.936	10211
920.047	10329
920.157	10230
920.267	10462
920.378	10234
920.488	10181
920.598	10390
920.708	10516
920.818	10405
920.928	10356
921.038	10607
921.148	10516
921.258	10306
921.368	10154
921.477	10082
921.587	9945
921.697	9861
921.806	10074
921.916	9918
922.025	9823
922.134	9816
922.244	9709
922.353	9838
922.462	9648
922.571	9561
922.68	9564
922.789	9393
922.898	9530
923.007	9382
923.116	9443
923.224	9367
923.333	9481
923.442	9389
923.55	9378
923.659	9370
923.767	9393
923.876	9336
923.984	9428
924.092	9245
924.201	9336
924.309	9428
924.417	9344
924.525	9363
924.633	9310
924.741	10124
924.849	9062
924.956	9291
925.064	9112
925.172	9089
925.279	9077
925.387	9070
925.494	9180
925.602	9279
925.709	9199
925.816	9093
925.924	9150
926.031	9192
926.138	9104
926.245	9131
926.352	9001
926.459	9192
926.566	9188
926.673	9074
926.779	9009
926.886	8948
926.993	8849
927.099	8701
927.206	8796
927.312	8746
927.419	8910
927.525	8849
927.631	8891
927.737	8773
927.843	8731
927.95	8606
928.056	8648
928.162	8712
928.267	8804
928.373	9401
928.479	8826
928.585	8686
928.69	8727
928.796	8781
928.901	8670
929.007	8530
929.112	8651
929.218	8632
929.323	8617
929.428	8598
929.533	8678
929.638	8530
929.743	8549
929.848	8632
929.953	8587
930.058	8454
930.163	8339
930.267	8271
930.372	8454
930.477	8298
930.581	8610
930.685	8434
930.79	8279
930.894	8259
930.998	8240
931.103	8385
931.207	8069
931.311	7997
931.415	7917
931.519	7772
931.623	7776
