Data from test_V78500241_2136.txt Node
Date: Fri Mar 25 14:48:35 CST 2022
User: usil
Spectrometer: V785-0024
Trigger mode: 0
Integration Time (sec): 4.000000E-1
Scans to average: 1
Nonlinearity correction enabled: false
Boxcar width: 0
Storing dark spectrum: false
XAxis mode: Wavelengths
Number of Pixels in Spectrum: 1024
>>>>>Begin Spectral Data<<<<<
801.071	22135
801.214	22040
801.356	21743
801.499	21713
801.641	21606
801.783	21530
801.926	21614
802.068	21507
802.211	21272
802.353	21393
802.496	21131
802.638	21123
802.78	21024
802.923	20960
803.065	20887
803.208	20826
803.35	20785
803.492	20963
803.635	21001
803.777	20971
803.919	21009
804.061	21203
804.204	20963
804.346	20807
804.488	20785
804.63	20842
804.773	20830
804.915	20743
805.057	20830
805.199	20758
805.341	20910
805.483	20960
805.626	20910
805.768	20769
805.91	20765
806.052	20895
806.194	20773
806.336	20857
806.478	20735
806.62	20720
806.762	20804
806.904	21077
807.046	21370
807.188	21047
807.33	21249
807.472	21222
807.614	20952
807.756	21074
807.898	20952
808.04	20849
808.182	20838
808.324	20864
808.465	21036
808.607	21165
808.749	21207
808.891	21310
809.033	21325
809.174	21252
809.316	21119
809.458	21165
809.6	21116
809.741	21275
809.883	21241
810.025	21275
810.166	21462
810.308	21359
810.45	21370
810.591	21275
810.733	21051
810.875	20956
811.016	20876
811.158	20842
811.299	21127
811.441	21104
811.582	21089
811.724	20842
811.865	20925
812.007	20921
812.148	20986
812.29	20914
812.431	21104
812.573	21256
812.714	21249
812.855	21466
812.997	21462
813.138	21686
813.279	21545
813.421	21530
813.562	21382
813.703	21192
813.845	21176
813.986	20876
814.127	20632
814.268	20545
814.41	20503
814.551	20587
814.692	20473
814.833	20377
814.974	20400
815.115	20488
815.256	20488
815.397	20358
815.539	20358
815.68	20176
815.821	20077
815.962	20202
816.103	20176
816.244	19997
816.385	19986
816.526	19868
816.666	19830
816.807	19639
816.948	19753
817.089	19704
817.23	19689
817.371	19613
817.512	19594
817.653	19674
817.793	19537
817.934	19514
818.075	19620
818.216	19689
818.356	19620
818.497	19502
818.638	19346
818.778	19343
818.919	19396
819.06	19335
819.2	19457
819.341	19559
819.481	19556
819.622	19582
819.762	19837
819.903	19723
820.043	19731
820.184	19590
820.324	19715
820.465	19586
820.605	19635
820.746	19670
820.886	19487
821.026	19674
821.167	19620
821.307	19620
821.447	19594
821.588	19403
821.728	19434
821.868	19168
822.008	19091
822.149	19091
822.289	18981
822.429	18757
822.569	18696
822.709	18753
822.849	18540
822.99	18513
823.13	18433
823.27	18574
823.41	18391
823.55	18330
823.69	18376
823.83	18433
823.97	18258
824.11	18174
824.25	18117
824.389	18106
824.529	18235
824.669	18110
824.809	18311
824.949	18213
825.089	18098
825.228	18155
825.368	17912
825.508	17980
825.648	17927
825.787	17942
825.927	18091
826.067	17805
826.206	17885
826.346	17901
826.485	17984
826.625	17828
826.765	17996
826.904	17916
827.044	17726
827.183	17638
827.323	17532
827.462	17657
827.601	17611
827.741	17539
827.88	17634
828.02	17516
828.159	17611
828.298	17646
828.437	17699
828.577	17551
828.716	17687
828.855	17512
828.994	17284
829.134	17227
829.273	17379
829.412	17292
829.551	17277
829.69	17395
829.829	17414
829.968	17376
830.107	17395
830.246	17334
830.385	17353
830.524	17197
830.663	17189
830.802	17067
830.941	16953
831.08	16961
831.219	17045
831.357	17022
831.496	17269
831.635	17010
831.774	16843
831.913	16839
832.051	16805
832.19	16729
832.329	16809
832.467	16710
832.606	16660
832.744	16618
832.883	16668
833.022	16660
833.16	16687
833.299	16816
833.437	16694
833.576	16721
833.714	16660
833.852	16679
833.991	16634
834.129	16649
834.267	16759
834.406	16679
834.544	16725
834.682	16687
834.821	16733
834.959	16869
835.097	16535
835.235	16778
835.373	16725
835.511	16683
835.65	16634
835.788	16672
835.926	16402
836.064	16394
836.202	16436
836.34	16675
836.478	16599
836.615	16428
836.753	16645
836.891	16702
837.029	16626
837.167	16558
837.305	16561
837.443	16478
837.58	16386
837.718	16474
837.856	16516
837.993	16363
838.131	16474
838.269	16466
838.406	16451
838.544	16356
838.681	16097
838.819	16097
838.956	15983
839.094	16067
839.231	16124
839.369	16082
839.506	16306
839.643	16215
839.781	16055
839.918	15937
840.055	15998
840.193	16002
840.33	15964
840.467	16032
840.604	16067
840.742	16280
840.879	15873
841.016	15949
841.153	15983
841.29	16166
841.427	16059
841.564	16051
841.701	16029
841.838	15911
841.975	15899
842.112	16002
842.249	15812
842.385	15797
842.522	15979
842.659	15755
842.796	15793
842.933	15827
843.069	15766
843.206	15736
843.343	15869
843.479	15793
843.616	15865
843.752	15530
843.889	15564
844.025	15736
844.162	15610
844.298	15728
844.435	15736
844.571	15500
844.708	15652
844.844	15789
844.98	15797
845.117	15618
845.253	15637
845.389	15450
845.525	15534
845.661	15485
845.798	15272
845.934	15439
846.07	15348
846.206	15336
846.342	15504
846.478	15408
846.614	15142
846.75	15157
846.886	15123
847.022	15283
847.158	15135
847.294	15123
847.429	15142
847.565	15176
847.701	15473
847.837	14880
847.972	14853
848.108	15001
848.244	14990
848.379	14762
848.515	14777
848.65	14629
848.786	14819
848.921	14845
849.057	14921
849.192	14910
849.328	14746
849.463	14830
849.598	14708
849.734	14777
849.869	14587
850.004	14545
850.14	14537
850.275	14537
850.41	14446
850.545	14469
850.68	14499
850.815	14530
850.95	14564
851.085	14735
851.22	14651
851.355	14499
851.49	14522
851.625	14533
851.76	14412
851.895	14339
852.03	14286
852.165	14488
852.299	14427
852.434	14625
852.569	14560
852.703	14571
852.838	14606
852.973	14701
853.107	14663
853.242	14377
853.376	14431
853.511	14233
853.645	14374
853.78	14530
853.914	14408
854.048	14404
854.183	14358
854.317	14324
854.451	14514
854.585	14400
854.72	14351
854.854	14415
854.988	14305
855.122	14336
855.256	14298
855.39	14317
855.524	14434
855.658	14374
855.792	14412
855.926	14415
856.06	14533
856.194	14454
856.327	14431
856.461	14358
856.595	14347
856.729	14396
856.862	14522
856.996	14434
857.13	14488
857.263	14476
857.397	14541
857.53	14385
857.664	14431
857.797	14476
857.931	14461
858.064	14442
858.197	14484
858.331	14476
858.464	14309
858.597	14320
858.731	14400
858.864	14419
858.997	14385
859.13	14377
859.263	14492
859.396	14530
859.529	14339
859.662	14328
859.795	14294
859.928	14385
860.061	14613
860.194	14552
860.327	14457
860.46	14408
860.592	14533
860.725	14492
860.858	14507
860.99	14298
861.123	14259
861.256	14347
861.388	14339
861.521	15047
861.653	14317
861.786	14256
861.918	14244
862.05	14298
862.183	14366
862.315	14389
862.447	14469
862.58	14313
862.712	14187
862.844	14073
862.976	14282
863.108	14225
863.24	14541
863.372	14149
863.504	14096
863.636	14107
863.768	14263
863.9	14168
864.032	14157
864.164	14157
864.296	14313
864.428	14336
864.559	14237
864.691	14221
864.823	14233
864.954	14183
865.086	14187
865.217	14176
865.349	14103
865.48	14240
865.612	14218
865.743	14309
865.875	14202
866.006	14054
866.137	14134
866.269	14115
866.4	14229
866.531	14130
866.662	14145
866.793	14096
866.924	14092
867.055	14259
867.186	14111
867.317	14161
867.448	14043
867.579	14081
867.71	14073
867.841	14107
867.972	14221
868.103	14183
868.233	14271
868.364	14240
868.495	14183
868.625	14442
868.756	14434
868.886	14282
869.017	14419
869.147	14469
869.278	14518
869.408	14408
869.539	14366
869.669	14514
869.799	14457
869.929	14564
870.06	14507
870.19	14765
870.32	14682
870.45	14625
870.58	14861
870.71	14796
870.84	14906
870.97	14861
871.1	14773
871.23	14967
871.36	15032
871.489	14849
871.619	15028
871.749	14967
871.879	15070
872.008	15039
872.138	15001
872.267	14967
872.397	14891
872.526	14864
872.656	14788
872.785	14807
872.915	15028
873.044	15135
873.173	14994
873.303	15028
873.432	15066
873.561	15131
873.69	15089
873.819	15081
873.948	15074
874.077	15089
874.206	15077
874.335	15081
874.464	15176
874.593	15401
874.722	15195
874.851	15401
874.979	15291
875.108	15504
875.237	15260
875.365	15374
875.494	15317
875.623	15481
875.751	15439
875.88	15370
876.008	15504
876.136	15515
876.265	15808
876.393	15994
876.521	15915
876.65	15808
876.778	15835
876.906	15717
877.034	15701
877.162	15747
877.29	15755
877.418	15865
877.546	15812
877.674	15637
877.802	15709
877.93	15717
878.058	15717
878.185	15656
878.313	15694
878.441	15800
878.568	15679
878.696	15686
878.824	15774
878.951	15800
879.079	15903
879.206	16223
879.333	15975
879.461	15838
879.588	15869
879.715	15975
879.842	15987
879.97	15823
880.097	15637
880.224	15610
880.351	15599
880.478	15644
880.605	15599
880.732	15686
880.859	15873
880.986	15720
881.112	15686
881.239	15542
881.366	15374
881.493	15306
881.619	15226
881.746	15214
881.872	15302
881.999	15302
882.125	15256
882.252	15321
882.378	15321
882.505	15428
882.631	15275
882.757	15169
882.883	15127
883.01	15032
883.136	15062
883.262	14944
883.388	14960
883.514	15089
883.64	15108
883.766	15039
883.892	14910
884.018	14994
884.143	15070
884.269	15184
884.395	14925
884.52	14804
884.646	14830
884.772	14716
884.897	14739
885.023	14849
885.148	15024
885.274	14952
885.399	14883
885.524	14735
885.65	14735
885.775	14731
885.9	14807
886.025	14914
886.15	14979
886.275	14674
886.4	14724
886.525	14655
886.65	14651
886.775	14796
886.9	14918
887.025	14990
887.149	14834
887.274	14667
887.399	14602
887.523	14568
887.648	14610
887.773	14469
887.897	14693
888.021	14659
888.146	14648
888.27	14674
888.395	14697
888.519	14686
888.643	14716
888.767	14724
888.891	14568
889.015	14438
889.139	14587
889.263	14522
889.387	14613
889.511	14674
889.635	14716
889.759	14476
889.883	14450
890.006	14526
890.13	14499
890.254	14427
890.377	14511
890.501	14328
890.624	14244
890.748	14377
890.871	14267
890.995	14168
891.118	14153
891.241	14252
891.364	14138
891.488	14317
891.611	14145
891.734	14161
891.857	14278
891.98	14210
892.103	14324
892.226	14301
892.349	14172
892.471	14005
892.594	14233
892.717	14164
892.839	14153
892.962	14229
893.085	14259
893.207	14225
893.33	14035
893.452	14157
893.575	14218
893.697	14126
893.819	14355
893.941	14450
894.064	14355
894.186	14183
894.308	14240
894.43	14244
894.552	14442
894.674	14256
894.796	14100
894.918	14142
895.04	14221
895.161	14374
895.283	14343
895.405	14149
895.526	14233
895.648	14271
895.769	14305
895.891	14263
896.012	14473
896.134	14396
896.255	14332
896.376	14286
896.498	14355
896.619	14381
896.74	14301
896.861	14362
896.982	14625
897.103	14925
897.224	14651
897.345	14526
897.466	14514
897.587	14564
897.708	14731
897.828	14621
897.949	14598
898.07	14541
898.19	14590
898.311	14792
898.431	14583
898.552	14708
898.672	14765
898.792	14849
898.913	14823
899.033	14594
899.153	14575
899.273	14446
899.393	14499
899.513	14636
899.633	14507
899.753	14606
899.873	14533
899.993	14629
900.113	14518
900.232	14473
900.352	14511
900.472	14400
900.591	14431
900.711	14431
900.83	14355
900.95	14526
901.069	14511
901.189	14263
901.308	14084
901.427	14103
901.546	14043
901.665	14054
901.784	14199
901.904	13989
902.023	13940
902.141	13795
902.26	13666
902.379	13807
902.498	13734
902.617	13616
902.735	13658
902.854	13636
902.973	13544
903.091	13343
903.21	13419
903.328	13373
903.446	13270
903.565	13141
903.683	13282
903.801	13133
903.919	13213
904.038	13168
904.156	13103
904.274	13084
904.392	13080
904.51	13084
904.627	13027
904.745	13103
904.863	13088
904.981	12821
905.098	12760
905.216	12753
905.334	12719
905.451	12642
905.569	12684
905.686	12711
905.803	12791
905.921	12589
906.038	12635
906.155	12544
906.272	12502
906.389	12464
906.506	12338
906.623	12437
906.74	12357
906.857	12155
906.974	12235
907.091	12407
907.208	12418
907.324	12334
907.441	12270
907.557	12087
907.674	12117
907.79	11935
907.907	12121
908.023	12049
908.139	12068
908.256	11992
908.372	11965
908.488	12053
908.604	11866
908.72	11786
908.836	11836
908.952	11828
909.068	11840
909.184	11878
909.3	11790
909.415	11870
909.531	11790
909.647	11627
909.762	11615
909.878	11634
909.993	11600
910.108	11573
910.224	11577
910.339	11562
910.454	11455
910.57	11520
910.685	11334
910.8	11638
910.915	11615
911.03	11444
911.145	11223
911.259	11288
911.374	11269
911.489	11216
911.604	11155
911.718	11075
911.833	11124
911.947	10999
912.062	10869
912.176	11060
912.291	11086
912.405	11022
912.519	11269
912.633	11220
912.748	11155
912.862	11090
912.976	10930
913.09	10812
913.204	10881
913.318	10889
913.431	11086
913.545	11086
913.659	11052
913.772	10984
913.886	10763
914	10850
914.113	10919
914.226	10946
914.34	10889
914.453	10729
914.566	10831
914.68	10767
914.793	10744
914.906	10637
915.019	10588
915.132	10558
915.245	10569
915.358	10535
915.47	10550
915.583	10561
915.696	10596
915.809	10675
915.921	10694
916.034	10523
916.146	10508
916.259	10607
916.371	10626
916.483	10550
916.595	10424
916.708	10516
916.82	10424
916.932	10485
917.044	10459
917.156	10367
917.268	10390
917.38	10375
917.491	10287
917.603	10356
917.715	10421
917.826	10459
917.938	10375
918.049	10287
918.161	10398
918.272	10573
918.384	10436
918.495	10417
918.606	10322
918.717	10162
918.828	10337
918.939	10287
919.05	10139
919.161	10299
919.272	9975
919.383	10112
919.494	10306
919.604	10485
919.715	10295
919.826	10227
919.936	10344
920.047	10398
920.157	10295
920.267	10466
920.378	10299
920.488	10253
920.598	10428
920.708	10584
920.818	10497
920.928	10409
921.038	10687
921.148	10546
921.258	10333
921.368	10204
921.477	10120
921.587	10105
921.697	9975
921.806	10181
921.916	10036
922.025	9873
922.134	9880
922.244	9793
922.353	9884
922.462	9747
922.571	9656
922.68	9557
922.789	9511
922.898	9557
923.007	9549
923.116	9587
923.224	9477
923.333	9580
923.442	9416
923.55	9363
923.659	9374
923.767	9454
923.876	9386
923.984	9412
924.092	9348
924.201	9401
924.309	9424
924.417	9363
924.525	9393
924.633	9386
924.741	10287
924.849	9135
924.956	9367
925.064	9169
925.172	9085
925.279	9093
925.387	9233
925.494	9173
925.602	9336
925.709	9306
925.816	9077
925.924	9123
926.031	9222
926.138	9123
926.245	9207
926.352	9119
926.459	9203
926.566	9272
926.673	9108
926.779	9036
926.886	9085
926.993	9005
927.099	8895
927.206	8891
927.312	8853
927.419	8952
927.525	8914
927.631	8876
927.737	8807
927.843	8746
927.95	8632
928.056	8750
928.162	8792
928.267	8872
928.373	9355
928.479	8815
928.585	8621
928.69	8739
928.796	8800
928.901	8659
929.007	8606
929.112	8674
929.218	8708
929.323	8636
929.428	8610
929.533	8716
929.638	8571
929.743	8579
929.848	8682
929.953	8648
930.058	8556
930.163	8408
930.267	8355
930.372	8503
930.477	8271
930.581	8556
930.685	8461
930.79	8320
930.894	8351
930.998	8305
931.103	8396
931.207	8111
931.311	8088
931.415	8016
931.519	7814
931.623	7742
