Data from test_V78500241_2984.txt Node
Date: Fri Mar 25 14:54:29 CST 2022
User: usil
Spectrometer: V785-0024
Trigger mode: 0
Integration Time (sec): 4.000000E-1
Scans to average: 1
Nonlinearity correction enabled: false
Boxcar width: 0
Storing dark spectrum: false
XAxis mode: Wavelengths
Number of Pixels in Spectrum: 1024
>>>>>Begin Spectral Data<<<<<
801.071	22093
801.214	22029
801.356	21774
801.499	21603
801.641	21610
801.783	21408
801.926	21523
802.068	21389
802.211	21287
802.353	21344
802.496	21047
802.638	21020
802.78	20849
802.923	20781
803.065	20743
803.208	20796
803.35	20796
803.492	20842
803.635	20880
803.777	20716
803.919	20914
804.061	21165
804.204	20754
804.346	20686
804.488	20682
804.63	20724
804.773	20659
804.915	20785
805.057	20788
805.199	20697
805.341	20659
805.483	20804
805.626	20667
805.768	20560
805.91	20686
806.052	20693
806.194	20560
806.336	20849
806.478	20640
806.62	20655
806.762	20686
806.904	20944
807.046	21218
807.188	20952
807.33	20937
807.472	21138
807.614	20868
807.756	20998
807.898	20823
808.04	20697
808.182	20727
808.324	20746
808.465	20769
808.607	21089
808.749	21116
808.891	21214
809.033	21283
809.174	21169
809.316	20956
809.458	21055
809.6	21047
809.741	21096
809.883	21157
810.025	21260
810.166	21294
810.308	21222
810.45	21108
810.591	20994
810.733	21066
810.875	20800
811.016	20731
811.158	20800
811.299	20921
811.441	20956
811.582	20883
811.724	20933
811.865	20807
812.007	20762
812.148	20842
812.29	20883
812.431	20986
812.573	21138
812.714	21283
812.855	21389
812.997	21507
813.138	21599
813.279	21428
813.421	21298
813.562	21408
813.703	21112
813.845	21001
813.986	20648
814.127	20682
814.268	20511
814.41	20332
814.551	20286
814.692	20511
814.833	20244
814.974	20370
815.115	20336
815.256	20309
815.397	20202
815.539	20214
815.68	20183
815.821	20027
815.962	20172
816.103	20077
816.244	19974
816.385	19913
816.526	19833
816.666	19769
816.807	19559
816.948	19556
817.089	19677
817.23	19605
817.371	19506
817.512	19514
817.653	19506
817.793	19441
817.934	19426
818.075	19525
818.216	19521
818.356	19384
818.497	19381
818.638	19160
818.778	19091
818.919	19133
819.06	19156
819.2	19438
819.341	19392
819.481	19324
819.622	19510
819.762	19708
819.903	19578
820.043	19559
820.184	19495
820.324	19480
820.465	19563
820.605	19556
820.746	19460
820.886	19217
821.026	19438
821.167	19388
821.307	19594
821.447	19457
821.588	19293
821.728	19278
821.868	19091
822.008	18886
822.149	18894
822.289	18920
822.429	18719
822.569	18559
822.709	18722
822.849	18418
822.99	18452
823.13	18376
823.27	18441
823.41	18205
823.55	18174
823.69	18296
823.83	18308
823.97	18216
824.11	18060
824.25	17942
824.389	17927
824.529	18072
824.669	17923
824.809	18060
824.949	18011
825.089	17992
825.228	17961
825.368	17920
825.508	17786
825.648	17802
825.787	17680
825.927	17851
826.067	17729
826.206	17779
826.346	17775
826.485	17729
826.625	17737
826.765	17821
826.904	17737
827.044	17592
827.183	17490
827.323	17448
827.462	17505
827.601	17459
827.741	17455
827.88	17505
828.02	17410
828.159	17520
828.298	17337
828.437	17493
828.577	17512
828.716	17589
828.855	17474
828.994	17307
829.134	17330
829.273	17311
829.412	17113
829.551	17212
829.69	17200
829.829	17197
829.968	17330
830.107	17204
830.246	17220
830.385	17079
830.524	17124
830.663	17014
830.802	16904
830.941	16850
831.08	16908
831.219	16900
831.357	16858
831.496	17045
831.635	16812
831.774	16675
831.913	16656
832.051	16626
832.19	16599
832.329	16687
832.467	16596
832.606	16462
832.744	16512
832.883	16474
833.022	16481
833.16	16538
833.299	16500
833.437	16523
833.576	16565
833.714	16489
833.852	16561
833.991	16626
834.129	16569
834.267	16607
834.406	16603
834.544	16569
834.682	16493
834.821	16588
834.959	16729
835.097	16561
835.235	16797
835.373	16470
835.511	16542
835.65	16386
835.788	16398
835.926	16329
836.064	16284
836.202	16409
836.34	16500
836.478	16588
836.615	16409
836.753	16405
836.891	16523
837.029	16466
837.167	16402
837.305	16318
837.443	16318
837.58	16280
837.718	16382
837.856	16352
837.993	16238
838.131	16272
838.269	16207
838.406	16204
838.544	16154
838.681	16059
838.819	15918
838.956	15850
839.094	15823
839.231	15907
839.369	16013
839.506	16280
839.643	16128
839.781	15797
839.918	15854
840.055	15804
840.193	15835
840.33	15751
840.467	15827
840.604	15934
840.742	15979
840.879	15778
841.016	15793
841.153	15724
841.29	15903
841.427	15915
841.564	15827
841.701	15774
841.838	15934
841.975	15759
842.112	15876
842.249	15629
842.385	15660
842.522	15812
842.659	15694
842.796	15591
842.933	15523
843.069	15614
843.206	15553
843.343	15679
843.479	15690
843.616	15622
843.752	15359
843.889	15424
844.025	15492
844.162	15348
844.298	15526
844.435	15370
844.571	15408
844.708	15428
844.844	15576
844.98	15584
845.117	15633
845.253	15294
845.389	15329
845.525	15412
845.661	15275
845.798	15135
845.934	15310
846.07	15161
846.206	15226
846.342	15298
846.478	15161
846.614	15058
846.75	14948
846.886	14948
847.022	15032
847.158	15043
847.294	14960
847.429	15032
847.565	14925
847.701	15207
847.837	14697
847.972	14640
848.108	14811
848.244	14819
848.379	14655
848.515	14610
848.65	14587
848.786	14594
848.921	14613
849.057	14636
849.192	14727
849.328	14617
849.463	14541
849.598	14465
849.734	14549
849.869	14328
850.004	14294
850.14	14438
850.275	14393
850.41	14263
850.545	14320
850.68	14317
850.815	14374
850.95	14294
851.085	14522
851.22	14454
851.355	14259
851.49	14389
851.625	14381
851.76	14290
851.895	14183
852.03	14229
852.165	14290
852.299	14362
852.434	14400
852.569	14404
852.703	14385
852.838	14267
852.973	14545
853.107	14492
853.242	14271
853.376	14123
853.511	14103
853.645	14130
853.78	14377
853.914	14259
854.048	14240
854.183	14111
854.317	14240
854.451	14381
854.585	14176
854.72	14248
854.854	14313
854.988	14092
855.122	14187
855.256	14149
855.39	14092
855.524	14313
855.658	14324
855.792	14267
855.926	14176
856.06	14256
856.194	14358
856.327	14263
856.461	14229
856.595	14210
856.729	14199
856.862	14248
856.996	14168
857.13	14278
857.263	14385
857.397	14419
857.53	14164
857.664	14256
857.797	14324
857.931	14252
858.064	14263
858.197	14404
858.331	14176
858.464	14282
858.597	14123
858.731	14233
858.864	14161
858.997	14199
859.13	14278
859.263	14229
859.396	14259
859.529	14176
859.662	14145
859.795	14107
859.928	14221
860.061	14404
860.194	14317
860.327	14161
860.46	14176
860.592	14298
860.725	14355
860.858	14377
860.99	14149
861.123	14130
861.256	14153
861.388	14180
861.521	14937
861.653	14172
861.786	13997
861.918	14069
862.05	14069
862.183	14202
862.315	14221
862.447	14183
862.58	14031
862.712	14016
862.844	13868
862.976	14027
863.108	14027
863.24	14514
863.372	13963
863.504	14046
863.636	13978
863.768	14062
863.9	13989
864.032	13925
864.164	13997
864.296	14081
864.428	14092
864.559	14058
864.691	14043
864.823	14107
864.954	14008
865.086	13944
865.217	13967
865.349	13849
865.48	14077
865.612	13906
865.743	14138
865.875	13970
866.006	13959
866.137	14024
866.269	14005
866.4	13974
866.531	13928
866.662	13940
866.793	14016
866.924	14031
867.055	13993
867.186	13967
867.317	13906
867.448	13902
867.579	13875
867.71	13883
867.841	13909
867.972	14054
868.103	14115
868.233	13974
868.364	14046
868.495	13967
868.625	14278
868.756	14343
868.886	14126
869.017	14298
869.147	14339
869.278	14355
869.408	14294
869.539	14233
869.669	14328
869.799	14278
869.929	14381
870.06	14347
870.19	14488
870.32	14431
870.45	14476
870.58	14659
870.71	14678
870.84	14686
870.97	14689
871.1	14495
871.23	14750
871.36	14880
871.489	14727
871.619	14735
871.749	14800
871.879	14880
872.008	14986
872.138	14804
872.267	14712
872.397	14678
872.526	14674
872.656	14663
872.785	14644
872.915	14785
873.044	14887
873.173	14853
873.303	14952
873.432	14830
873.561	14933
873.69	14937
873.819	14861
873.948	14925
874.077	14937
874.206	14986
874.335	14773
874.464	15089
874.593	15188
874.722	15123
874.851	15146
874.979	15169
875.108	15154
875.237	15195
875.365	15138
875.494	15154
875.623	15241
875.751	15173
875.88	15214
876.008	15256
876.136	15420
876.265	15720
876.393	15770
876.521	15656
876.65	15861
876.778	15599
876.906	15561
877.034	15538
877.162	15641
877.29	15515
877.418	15648
877.546	15587
877.674	15519
877.802	15622
877.93	15622
878.058	15500
878.185	15526
878.313	15572
878.441	15576
878.568	15504
878.696	15549
878.824	15671
878.951	15629
879.079	15747
879.206	15842
879.333	15816
879.461	15625
879.588	15614
879.715	15850
879.842	15857
879.97	15648
880.097	15500
880.224	15363
880.351	15507
880.478	15530
880.605	15405
880.732	15431
880.859	15663
880.986	15534
881.112	15477
881.239	15298
881.366	15188
881.493	15138
881.619	15062
881.746	15055
881.872	15104
881.999	15135
882.125	15024
882.252	15097
882.378	15180
882.505	15249
882.631	15108
882.757	14944
882.883	14956
883.01	14967
883.136	14979
883.262	14826
883.388	14838
883.514	14845
883.64	14933
883.766	14861
883.892	14773
884.018	14743
884.143	14864
884.269	14944
884.395	14678
884.52	14610
884.646	14594
884.772	14541
884.897	14484
885.023	14670
885.148	14716
885.274	14758
885.399	14727
885.524	14533
885.65	14545
885.775	14686
885.9	14655
886.025	14758
886.15	14735
886.275	14575
886.4	14511
886.525	14610
886.65	14602
886.775	14514
886.9	14762
887.025	14731
887.149	14518
887.274	14446
887.399	14431
887.523	14480
887.648	14362
887.773	14309
887.897	14492
888.021	14549
888.146	14389
888.27	14564
888.395	14625
888.519	14454
888.643	14552
888.767	14469
888.891	14457
889.015	14366
889.139	14339
889.263	14305
889.387	14381
889.511	14571
889.635	14347
889.759	14343
889.883	14305
890.006	14400
890.13	14396
890.254	14294
890.377	14294
890.501	14168
890.624	14240
890.748	14161
890.871	14157
890.995	14008
891.118	13940
891.241	14024
891.364	14031
891.488	14123
891.611	14084
891.734	13955
891.857	14062
891.98	14039
892.103	14043
892.226	14119
892.349	13997
892.471	13849
892.594	13970
892.717	13974
892.839	14073
892.962	13986
893.085	14168
893.207	13955
893.33	13890
893.452	13921
893.575	14043
893.697	13978
893.819	14183
893.941	14218
894.064	14191
894.186	13947
894.308	13997
894.43	14103
894.552	14191
894.674	14225
894.796	14027
894.918	14084
895.04	14050
895.161	14145
895.283	14119
895.405	13997
895.526	14172
895.648	14134
895.769	14142
895.891	14157
896.012	14256
896.134	14210
896.255	14195
896.376	14172
896.498	14206
896.619	14240
896.74	14282
896.861	14210
896.982	14537
897.103	14621
897.224	14507
897.345	14457
897.466	14423
897.587	14450
897.708	14495
897.828	14488
897.949	14454
898.07	14374
898.19	14404
898.311	14556
898.431	14461
898.552	14545
898.672	14670
898.792	14716
898.913	14560
899.033	14442
899.153	14396
899.273	14229
899.393	14389
899.513	14332
899.633	14404
899.753	14366
899.873	14370
899.993	14465
900.113	14400
900.232	14484
900.352	14343
900.472	14244
900.591	14248
900.711	14408
900.83	14256
900.95	14339
901.069	14381
901.189	14252
901.308	14050
901.427	13860
901.546	14012
901.665	14031
901.784	14020
901.904	13822
902.023	13803
902.141	13521
902.26	13563
902.379	13563
902.498	13537
902.617	13426
902.735	13597
902.854	13499
902.973	13483
903.091	13308
903.21	13232
903.328	13232
903.446	13137
903.565	13015
903.683	13050
903.801	13004
903.919	13027
904.038	13069
904.156	12954
904.274	12886
904.392	12935
904.51	12954
904.627	12932
904.745	12970
904.863	13015
904.981	12738
905.098	12585
905.216	12563
905.334	12642
905.451	12574
905.569	12563
905.686	12684
905.803	12620
905.921	12388
906.038	12506
906.155	12433
906.272	12346
906.389	12334
906.506	12239
906.623	12232
906.74	12159
906.857	12076
906.974	12015
907.091	12254
907.208	12369
907.324	12175
907.441	12197
907.557	12003
907.674	12015
907.79	11828
907.907	11942
908.023	12019
908.139	11866
908.256	11843
908.372	11916
908.488	11908
908.604	11729
908.72	11653
908.836	11718
908.952	11699
909.068	11714
909.184	11752
909.3	11710
909.415	11764
909.531	11718
909.647	11497
909.762	11383
909.878	11395
909.993	11455
910.108	11395
910.224	11391
910.339	11440
910.454	11421
910.57	11360
910.685	11250
910.8	11501
910.915	11474
911.03	11330
911.145	11105
911.259	11170
911.374	11143
911.489	11109
911.604	11124
911.718	11003
911.833	10869
911.947	10843
912.062	10786
912.176	10900
912.291	10869
912.405	10946
912.519	11094
912.633	11159
912.748	11029
912.862	10968
912.976	10824
913.09	10714
913.204	10714
913.318	10782
913.431	10820
913.545	10923
913.659	10927
913.772	10793
913.886	10668
914	10710
914.113	10706
914.226	10801
914.34	10809
914.453	10634
914.566	10717
914.68	10611
914.793	10637
914.906	10451
915.019	10367
915.132	10295
915.245	10421
915.358	10504
915.47	10409
915.583	10421
915.696	10535
915.809	10622
915.921	10546
916.034	10405
916.146	10394
916.259	10360
916.371	10443
916.483	10512
916.595	10299
916.708	10363
916.82	10310
916.932	10299
917.044	10299
917.156	10337
917.268	10196
917.38	10303
917.491	10219
917.603	10227
917.715	10253
917.826	10375
917.938	10272
918.049	10154
918.161	10265
918.272	10474
918.384	10398
918.495	10265
918.606	10173
918.717	10074
918.828	10188
918.939	10173
919.05	10048
919.161	10227
919.272	9945
919.383	10078
919.494	10207
919.604	10421
919.715	10169
919.826	10112
919.936	10200
920.047	10158
920.157	10204
920.267	10382
920.378	10230
920.488	10162
920.598	10337
920.708	10466
920.818	10299
920.928	10398
921.038	10527
921.148	10588
921.258	10227
921.368	10090
921.477	10006
921.587	9941
921.697	9835
921.806	10097
921.916	9888
922.025	9736
922.134	9720
922.244	9675
922.353	9785
922.462	9622
922.571	9557
922.68	9351
922.789	9462
922.898	9424
923.007	9428
923.116	9488
923.224	9412
923.333	9500
923.442	9302
923.55	9260
923.659	9348
923.767	9424
923.876	9317
923.984	9367
924.092	9184
924.201	9218
924.309	9294
924.417	9313
924.525	9302
924.633	9275
924.741	10215
924.849	9058
924.956	9207
925.064	9051
925.172	9001
925.279	9077
925.387	9093
925.494	9112
925.602	9306
925.709	9104
925.816	9020
925.924	9093
926.031	9108
926.138	9097
926.245	9142
926.352	8979
926.459	9077
926.566	9169
926.673	9051
926.779	8948
926.886	8876
926.993	8838
927.099	8777
927.206	8785
927.312	8792
927.419	8887
927.525	8811
927.631	8834
927.737	8834
927.843	8659
927.95	8480
928.056	8716
928.162	8678
928.267	8762
928.373	9310
928.479	8773
928.585	8568
928.69	8629
928.796	8693
928.901	8583
929.007	8476
929.112	8617
929.218	8530
929.323	8594
929.428	8541
929.533	8621
929.638	8499
929.743	8476
929.848	8522
929.953	8499
930.058	8446
930.163	8282
930.267	8286
930.372	8324
930.477	8221
930.581	8556
930.685	8347
930.79	8176
930.894	8248
930.998	8240
931.103	8442
931.207	7959
931.311	7925
931.415	7921
931.519	7772
931.623	7757
