Data from test_V78500241_2442.txt Node
Date: Fri Mar 25 14:50:43 CST 2022
User: usil
Spectrometer: V785-0024
Trigger mode: 0
Integration Time (sec): 4.000000E-1
Scans to average: 1
Nonlinearity correction enabled: false
Boxcar width: 0
Storing dark spectrum: false
XAxis mode: Wavelengths
Number of Pixels in Spectrum: 1024
>>>>>Begin Spectral Data<<<<<
801.071	22109
801.214	21960
801.356	21682
801.499	21781
801.641	21572
801.783	21469
801.926	21572
802.068	21424
802.211	21496
802.353	21272
802.496	20986
802.638	20952
802.78	20933
802.923	20838
803.065	20765
803.208	20743
803.35	20781
803.492	20899
803.635	21062
803.777	20746
803.919	20937
804.061	21169
804.204	20956
804.346	20727
804.488	20667
804.63	20682
804.773	20705
804.915	20834
805.057	20811
805.199	20731
805.341	20845
805.483	20849
805.626	20697
805.768	20651
805.91	20716
806.052	20849
806.194	20598
806.336	20891
806.478	20727
806.62	20629
806.762	20659
806.904	20948
807.046	21173
807.188	21077
807.33	21062
807.472	21028
807.614	20845
807.756	20899
807.898	20902
808.04	20754
808.182	20826
808.324	20815
808.465	20842
808.607	21009
808.749	21096
808.891	21241
809.033	21211
809.174	21275
809.316	21070
809.458	21066
809.6	21062
809.741	21055
809.883	21249
810.025	21188
810.166	21214
810.308	21214
810.45	21203
810.591	21169
810.733	20986
810.875	20921
811.016	20876
811.158	20921
811.299	20804
811.441	21062
811.582	21055
811.724	20834
811.865	20769
812.007	20739
812.148	20853
812.29	20872
812.431	21043
812.573	21211
812.714	21283
812.855	21317
812.997	21454
813.138	21568
813.279	21462
813.421	21264
813.562	21283
813.703	21199
813.845	21070
813.986	20701
814.127	20511
814.268	20465
814.41	20552
814.551	20385
814.692	20446
814.833	20278
814.974	20377
815.115	20499
815.256	20275
815.397	20176
815.539	20351
815.68	20183
815.821	20027
815.962	20115
816.103	20111
816.244	19860
816.385	19951
816.526	19890
816.666	19658
816.807	19548
816.948	19613
817.089	19624
817.23	19643
817.371	19544
817.512	19537
817.653	19552
817.793	19388
817.934	19472
818.075	19529
818.216	19582
818.356	19407
818.497	19483
818.638	19221
818.778	19324
818.919	19289
819.06	19232
819.2	19388
819.341	19346
819.481	19441
819.622	19548
819.762	19814
819.903	19605
820.043	19616
820.184	19616
820.324	19449
820.465	19635
820.605	19514
820.746	19457
820.886	19441
821.026	19567
821.167	19476
821.307	19468
821.447	19403
821.588	19350
821.728	19320
821.868	19129
822.008	18863
822.149	18996
822.289	18875
822.429	18753
822.569	18650
822.709	18669
822.849	18410
822.99	18388
823.13	18403
823.27	18357
823.41	18224
823.55	18133
823.69	18277
823.83	18213
823.97	18220
824.11	18072
824.25	18038
824.389	17969
824.529	18167
824.669	17939
824.809	18022
824.949	17980
825.089	18110
825.228	18034
825.368	17836
825.508	17764
825.648	17737
825.787	17821
825.927	17878
826.067	17680
826.206	17767
826.346	17851
826.485	17832
826.625	17802
826.765	17680
826.904	17809
827.044	17611
827.183	17509
827.323	17334
827.462	17524
827.601	17444
827.741	17368
827.88	17467
828.02	17368
828.159	17452
828.298	17630
828.437	17474
828.577	17315
828.716	17608
828.855	17402
828.994	17159
829.134	17083
829.273	17227
829.412	17265
829.551	17231
829.69	17265
829.829	17181
829.968	17277
830.107	17269
830.246	17189
830.385	17109
830.524	17067
830.663	17105
830.802	16942
830.941	16782
831.08	16835
831.219	16873
831.357	16934
831.496	17079
831.635	16790
831.774	16797
831.913	16736
832.051	16645
832.19	16531
832.329	16691
832.467	16516
832.606	16508
832.744	16424
832.883	16470
833.022	16451
833.16	16561
833.299	16569
833.437	16516
833.576	16630
833.714	16622
833.852	16592
833.991	16592
834.129	16561
834.267	16569
834.406	16611
834.544	16679
834.682	16653
834.821	16516
834.959	16691
835.097	16527
835.235	16637
835.373	16584
835.511	16523
835.65	16538
835.788	16478
835.926	16314
836.064	16287
836.202	16337
836.34	16485
836.478	16455
836.615	16447
836.753	16390
836.891	16519
837.029	16531
837.167	16512
837.305	16318
837.443	16295
837.58	16268
837.718	16409
837.856	16257
837.993	16265
838.131	16295
838.269	16329
838.406	16303
838.544	16192
838.681	16006
838.819	15979
838.956	15869
839.094	15831
839.231	16006
839.369	16055
839.506	16356
839.643	16188
839.781	15785
839.918	15892
840.055	15892
840.193	15888
840.33	15861
840.467	15842
840.604	15991
840.742	16086
840.879	15869
841.016	15850
841.153	15800
841.29	15953
841.427	15915
841.564	15899
841.701	15930
841.838	15835
841.975	15732
842.112	15732
842.249	15587
842.385	15614
842.522	15804
842.659	15724
842.796	15667
842.933	15705
843.069	15644
843.206	15576
843.343	15808
843.479	15682
843.616	15580
843.752	15526
843.889	15450
844.025	15603
844.162	15367
844.298	15545
844.435	15359
844.571	15538
844.708	15466
844.844	15629
844.98	15633
845.117	15561
845.253	15401
845.389	15329
845.525	15477
845.661	15287
845.798	15203
845.934	15294
846.07	15207
846.206	15275
846.342	15325
846.478	15226
846.614	15039
846.75	15017
846.886	14952
847.022	15127
847.158	15066
847.294	15081
847.429	15009
847.565	14994
847.701	15279
847.837	14872
847.972	14743
848.108	14861
848.244	14891
848.379	14594
848.515	14610
848.65	14522
848.786	14610
848.921	14602
849.057	14750
849.192	14701
849.328	14674
849.463	14674
849.598	14560
849.734	14587
849.869	14522
850.004	14389
850.14	14419
850.275	14431
850.41	14324
850.545	14408
850.68	14400
850.815	14408
850.95	14351
851.085	14598
851.22	14454
851.355	14431
851.49	14385
851.625	14393
851.76	14240
851.895	14328
852.03	14294
852.165	14282
852.299	14427
852.434	14610
852.569	14362
852.703	14400
852.838	14434
852.973	14507
853.107	14499
853.242	14408
853.376	14343
853.511	14142
853.645	14206
853.78	14347
853.914	14210
854.048	14229
854.183	14176
854.317	14309
854.451	14442
854.585	14199
854.72	14168
854.854	14343
854.988	14199
855.122	14191
855.256	14096
855.39	14142
855.524	14355
855.658	14347
855.792	14313
855.926	14332
856.06	14313
856.194	14320
856.327	14263
856.461	14233
856.595	14138
856.729	14221
856.862	14465
856.996	14305
857.13	14351
857.263	14324
857.397	14256
857.53	14237
857.664	14221
857.797	14278
857.931	14404
858.064	14362
858.197	14404
858.331	14278
858.464	14054
858.597	14073
858.731	14267
858.864	14252
858.997	14282
859.13	14214
859.263	14183
859.396	14317
859.529	14164
859.662	14286
859.795	14164
859.928	14317
860.061	14442
860.194	14408
860.327	14286
860.46	14320
860.592	14271
860.725	14339
860.858	14389
860.99	14199
861.123	14134
861.256	14172
861.388	14347
861.521	14811
861.653	14119
861.786	14012
861.918	14069
862.05	14206
862.183	14164
862.315	14221
862.447	14317
862.58	14275
862.712	14062
862.844	13909
862.976	14062
863.108	14016
863.24	14408
863.372	13909
863.504	14058
863.636	13963
863.768	14039
863.9	14024
864.032	14084
864.164	13997
864.296	14134
864.428	14191
864.559	14050
864.691	14084
864.823	14084
864.954	14115
865.086	14096
865.217	13951
865.349	14020
865.48	13955
865.612	14031
865.743	14161
865.875	14054
866.006	14062
866.137	14092
866.269	13944
866.4	14058
866.531	13982
866.662	13902
866.793	13970
866.924	13959
867.055	13997
867.186	14008
867.317	13868
867.448	13894
867.579	13940
867.71	13860
867.841	13955
867.972	13955
868.103	13944
868.233	14077
868.364	14077
868.495	14123
868.625	14332
868.756	14328
868.886	14123
869.017	14248
869.147	14374
869.278	14328
869.408	14320
869.539	14252
869.669	14351
869.799	14252
869.929	14404
870.06	14347
870.19	14644
870.32	14564
870.45	14606
870.58	14682
870.71	14758
870.84	14830
870.97	14617
871.1	14575
871.23	14796
871.36	14849
871.489	14644
871.619	14804
871.749	14883
871.879	14906
872.008	14933
872.138	14899
872.267	14792
872.397	14746
872.526	14724
872.656	14750
872.785	14648
872.915	14830
873.044	14967
873.173	14842
873.303	14979
873.432	14986
873.561	15013
873.69	14842
873.819	14880
873.948	14895
874.077	14899
874.206	14967
874.335	14975
874.464	15112
874.593	15165
874.722	15173
874.851	15275
874.979	15264
875.108	15287
875.237	15272
875.365	15066
875.494	15135
875.623	15214
875.751	15176
875.88	15256
876.008	15355
876.136	15458
876.265	15603
876.393	15816
876.521	15739
876.65	15713
876.778	15618
876.906	15530
877.034	15576
877.162	15610
877.29	15641
877.418	15682
877.546	15576
877.674	15584
877.802	15629
877.93	15686
878.058	15606
878.185	15553
878.313	15644
878.441	15610
878.568	15458
878.696	15553
878.824	15660
878.951	15743
879.079	15869
879.206	15937
879.333	15850
879.461	15732
879.588	15709
879.715	15770
879.842	15892
879.97	15660
880.097	15542
880.224	15439
880.351	15462
880.478	15458
880.605	15526
880.732	15412
880.859	15736
880.986	15622
881.112	15504
881.239	15332
881.366	15298
881.493	15230
881.619	15119
881.746	15207
881.872	15112
881.999	15066
882.125	15074
882.252	15218
882.378	15131
882.505	15313
882.631	15074
882.757	15005
882.883	15043
883.01	14956
883.136	14887
883.262	14804
883.388	14796
883.514	15013
883.64	15009
883.766	14933
883.892	14754
884.018	14823
884.143	14944
884.269	15043
884.395	14762
884.52	14701
884.646	14655
884.772	14556
884.897	14667
885.023	14648
885.148	14830
885.274	14815
885.399	14864
885.524	14701
885.65	14746
885.775	14682
885.9	14678
886.025	14796
886.15	14773
886.275	14682
886.4	14556
886.525	14594
886.65	14632
886.775	14598
886.9	14716
887.025	14876
887.149	14636
887.274	14552
887.399	14507
887.523	14476
887.648	14446
887.773	14389
887.897	14552
888.021	14488
888.146	14488
888.27	14613
888.395	14587
888.519	14526
888.643	14583
888.767	14579
888.891	14408
889.015	14358
889.139	14480
889.263	14199
889.387	14450
889.511	14533
889.635	14473
889.759	14415
889.883	14218
890.006	14423
890.13	14461
890.254	14389
890.377	14366
890.501	14119
890.624	14081
890.748	14267
890.871	14145
890.995	13913
891.118	14020
891.241	14054
891.364	14073
891.488	14149
891.611	13982
891.734	14065
891.857	13993
891.98	14024
892.103	14126
892.226	14107
892.349	13917
892.471	13841
892.594	14134
892.717	14058
892.839	13986
892.962	14024
893.085	14111
893.207	14111
893.33	13860
893.452	13894
893.575	14145
893.697	13989
893.819	14267
893.941	14320
894.064	14233
894.186	14005
894.308	14084
894.43	14210
894.552	14294
894.674	14168
894.796	14134
894.918	14054
895.04	14119
895.161	14221
895.283	14244
895.405	14043
895.526	14176
895.648	14153
895.769	14195
895.891	14206
896.012	14282
896.134	14263
896.255	14271
896.376	14199
896.498	14286
896.619	14282
896.74	14218
896.861	14298
896.982	14587
897.103	14727
897.224	14610
897.345	14549
897.466	14469
897.587	14480
897.708	14712
897.828	14659
897.949	14469
898.07	14366
898.19	14545
898.311	14667
898.431	14636
898.552	14617
898.672	14701
898.792	14686
898.913	14739
899.033	14503
899.153	14450
899.273	14381
899.393	14412
899.513	14404
899.633	14393
899.753	14454
899.873	14393
899.993	14571
900.113	14434
900.232	14469
900.352	14370
900.472	14309
900.591	14355
900.711	14225
900.83	14301
900.95	14237
901.069	14347
901.189	14275
901.308	13944
901.427	13982
901.546	13986
901.665	14031
901.784	14005
901.904	13921
902.023	13765
902.141	13639
902.26	13643
902.379	13624
902.498	13582
902.617	13525
902.735	13571
902.854	13556
902.973	13483
903.091	13320
903.21	13217
903.328	13304
903.446	13266
903.565	13206
903.683	13129
903.801	13126
903.919	13129
904.038	13091
904.156	12981
904.274	12977
904.392	12886
904.51	12916
904.627	12875
904.745	12924
904.863	12920
904.981	12817
905.098	12639
905.216	12627
905.334	12715
905.451	12616
905.569	12513
905.686	12574
905.803	12654
905.921	12426
906.038	12604
906.155	12460
906.272	12357
906.389	12399
906.506	12224
906.623	12228
906.74	12167
906.857	12114
906.974	12125
907.091	12353
907.208	12357
907.324	12296
907.441	12171
907.557	11992
907.674	11946
907.79	11996
907.907	11912
908.023	12011
908.139	11939
908.256	11931
908.372	11870
908.488	11855
908.604	11710
908.72	11798
908.836	11733
908.952	11726
909.068	11805
909.184	11870
909.3	11745
909.415	11798
909.531	11760
909.647	11585
909.762	11444
909.878	11440
909.993	11570
910.108	11509
910.224	11501
910.339	11490
910.454	11379
910.57	11307
910.685	11318
910.8	11608
910.915	11467
911.03	11387
911.145	11189
911.259	11155
911.374	11197
911.489	11166
911.604	11060
911.718	10919
911.833	10995
911.947	10911
912.062	10752
912.176	10949
912.291	10889
912.405	10873
912.519	11181
912.633	11162
912.748	11056
912.862	11033
912.976	10805
913.09	10733
913.204	10797
913.318	10820
913.431	10976
913.545	10873
913.659	11018
913.772	10839
913.886	10717
914	10721
914.113	10774
914.226	10790
914.34	10828
914.453	10584
914.566	10839
914.68	10656
914.793	10653
914.906	10398
915.019	10421
915.132	10390
915.245	10474
915.358	10527
915.47	10489
915.583	10470
915.696	10504
915.809	10656
915.921	10611
916.034	10424
916.146	10421
916.259	10466
916.371	10519
916.483	10512
916.595	10367
916.708	10375
916.82	10333
916.932	10360
917.044	10333
917.156	10295
917.268	10287
917.38	10234
917.491	10246
917.603	10325
917.715	10333
917.826	10386
917.938	10291
918.049	10131
918.161	10322
918.272	10409
918.384	10424
918.495	10367
918.606	10154
918.717	10181
918.828	10238
918.939	10230
919.05	10048
919.161	10204
919.272	9991
919.383	10051
919.494	10204
919.604	10386
919.715	10188
919.826	10090
919.936	10128
920.047	10272
920.157	10268
920.267	10459
920.378	10242
920.488	10211
920.598	10398
920.708	10573
920.818	10303
920.928	10295
921.038	10599
921.148	10443
921.258	10223
921.368	10154
921.477	10029
921.587	10032
921.697	9926
921.806	10044
921.916	9922
922.025	9819
922.134	9785
922.244	9724
922.353	9838
922.462	9709
922.571	9561
922.68	9462
922.789	9458
922.898	9424
923.007	9374
923.116	9458
923.224	9458
923.333	9416
923.442	9268
923.55	9306
923.659	9363
923.767	9450
923.876	9325
923.984	9332
924.092	9283
924.201	9336
924.309	9298
924.417	9348
924.525	9287
924.633	9268
924.741	10029
924.849	9020
924.956	9298
925.064	9097
925.172	9039
925.279	9043
925.387	9165
925.494	9146
925.602	9275
925.709	9154
925.816	9051
925.924	9116
926.031	9195
926.138	9146
926.245	9123
926.352	9043
926.459	9176
926.566	9230
926.673	9058
926.779	9028
926.886	8963
926.993	8800
927.099	8807
927.206	8762
927.312	8800
927.419	8868
927.525	8853
927.631	8899
927.737	8724
927.843	8727
927.95	8659
928.056	8682
928.162	8739
928.267	8792
928.373	9332
928.479	8845
928.585	8651
928.69	8716
928.796	8731
928.901	8655
929.007	8488
929.112	8629
929.218	8530
929.323	8507
929.428	8522
929.533	8667
929.638	8511
929.743	8454
929.848	8587
929.953	8541
930.058	8438
930.163	8229
930.267	8309
930.372	8454
930.477	8279
930.581	8537
930.685	8396
930.79	8294
930.894	8305
930.998	8279
931.103	8404
931.207	8005
931.311	8012
931.415	7944
931.519	7761
931.623	7765
