Data from test_V78500241_935.txt Node
Date: Fri Mar 25 14:40:13 CST 2022
User: usil
Spectrometer: V785-0024
Trigger mode: 0
Integration Time (sec): 4.000000E-1
Scans to average: 1
Nonlinearity correction enabled: false
Boxcar width: 0
Storing dark spectrum: false
XAxis mode: Wavelengths
Number of Pixels in Spectrum: 1024
>>>>>Begin Spectral Data<<<<<
801.071	24566
801.214	24437
801.356	24136
801.499	24148
801.641	23874
801.783	24003
801.926	23817
802.068	23733
802.211	23672
802.353	23653
802.496	23490
802.638	23372
802.78	23318
802.923	23258
803.065	23147
803.208	23204
803.35	23132
803.492	23208
803.635	23337
803.777	23265
803.919	23360
804.061	23440
804.204	23242
804.346	23231
804.488	23212
804.63	23181
804.773	23018
804.915	23208
805.057	23151
805.199	23239
805.341	23273
805.483	23474
805.626	23254
805.768	23254
805.91	23140
806.052	23311
806.194	23212
806.336	23406
806.478	23440
806.62	23337
806.762	23467
806.904	23649
807.046	23973
807.188	23855
807.33	23893
807.472	24018
807.614	24068
807.756	24194
807.898	24133
808.04	24388
808.182	24604
808.324	24909
808.465	25270
808.607	25769
808.749	26199
808.891	26594
809.033	26602
809.174	26347
809.316	25822
809.458	25392
809.6	24985
809.741	24738
809.883	24448
810.025	24585
810.166	24292
810.308	24319
810.45	24117
810.591	24018
810.733	23771
810.875	23790
811.016	23505
811.158	23642
811.299	23623
811.441	23638
811.582	23573
811.724	23535
811.865	23577
812.007	23596
812.148	23501
812.29	23436
812.431	23745
812.573	23836
812.714	23996
812.855	24057
812.997	24148
813.138	24144
813.279	24038
813.421	23965
813.562	23950
813.703	23805
813.845	23668
813.986	23128
814.127	23052
814.268	22976
814.41	23018
814.551	22965
814.692	23094
814.833	23003
814.974	22972
815.115	22911
815.256	22797
815.397	22854
815.539	22778
815.68	22706
815.821	22599
815.962	22725
816.103	22584
816.244	22584
816.385	22352
816.526	22413
816.666	22398
816.807	22090
816.948	22070
817.089	22242
817.23	22200
817.371	22082
817.512	22226
817.653	22074
817.793	21991
817.934	22105
818.075	22090
818.216	22112
818.356	22017
818.497	21888
818.638	21778
818.778	21800
818.919	21880
819.06	21755
819.2	21854
819.341	21991
819.481	21861
819.622	22032
819.762	22257
819.903	22082
820.043	22135
820.184	22226
820.324	22032
820.465	22135
820.605	22025
820.746	22025
820.886	21842
821.026	21941
821.167	22070
821.307	21953
821.447	21835
821.588	21732
821.728	21694
821.868	21545
822.008	21313
822.149	21332
822.289	21329
822.429	21165
822.569	21096
822.709	20971
822.849	20895
822.99	20906
823.13	20746
823.27	20845
823.41	20545
823.55	20594
823.69	20731
823.83	20602
823.97	20552
824.11	20446
824.25	20385
824.389	20366
824.529	20545
824.669	20454
824.809	20556
824.949	20465
825.089	20613
825.228	20484
825.368	20336
825.508	20256
825.648	20278
825.787	20210
825.927	20351
826.067	20240
826.206	20122
826.346	20221
826.485	20210
826.625	20180
826.765	20336
826.904	20199
827.044	20005
827.183	19940
827.323	19826
827.462	19909
827.601	19906
827.741	19833
827.88	19928
828.02	19647
828.159	19913
828.298	19936
828.437	19944
828.577	19887
828.716	20012
828.855	19849
828.994	19674
829.134	19693
829.273	19643
829.412	19620
829.551	19487
829.69	19590
829.829	19537
829.968	19708
830.107	19632
830.246	19552
830.385	19506
830.524	19643
830.663	19377
830.802	19278
830.941	19110
831.08	19175
831.219	19289
831.357	19270
831.496	19438
831.635	19175
831.774	19114
831.913	18973
832.051	18920
832.19	18920
832.329	18973
832.467	18909
832.606	18844
832.744	18875
832.883	18996
833.022	18897
833.16	18977
833.299	18951
833.437	18958
833.576	19099
833.714	18882
833.852	18996
833.991	19190
834.129	19050
834.267	19084
834.406	18981
834.544	19114
834.682	18973
834.821	18966
834.959	19152
835.097	18947
835.235	19042
835.373	18878
835.511	18905
835.65	18787
835.788	18848
835.926	18646
836.064	18635
836.202	18677
836.34	18642
836.478	18947
836.615	18684
836.753	18711
836.891	18806
837.029	18730
837.167	18661
837.305	18646
837.443	18551
837.58	18604
837.718	18635
837.856	18665
837.993	18574
838.131	18456
838.269	18342
838.406	18578
838.544	18464
838.681	18144
838.819	18254
838.956	18091
839.094	18114
839.231	18038
839.369	18209
839.506	18498
839.643	18323
839.781	18087
839.918	18034
840.055	18030
840.193	18068
840.33	17969
840.467	18038
840.604	18083
840.742	18239
840.879	17946
841.016	18022
841.153	17988
841.29	18186
841.427	18011
841.564	18072
841.701	18053
841.838	17950
841.975	17897
842.112	17885
842.249	17817
842.385	17760
842.522	18030
842.659	17802
842.796	17767
842.933	17828
843.069	17813
843.206	17741
843.343	17821
843.479	17775
843.616	17794
843.752	17532
843.889	17634
844.025	17661
844.162	17570
844.298	17661
844.435	17646
844.571	17509
844.708	17680
844.844	17870
844.98	17923
845.117	18034
845.253	17927
845.389	18091
845.525	18460
845.661	19129
845.798	19833
845.934	20629
846.07	20678
846.206	20697
846.342	20320
846.478	19350
846.614	18403
846.75	17901
846.886	17558
847.022	17444
847.158	17395
847.294	17258
847.429	17235
847.565	17170
847.701	17360
847.837	16942
847.972	16854
848.108	16934
848.244	17018
848.379	16755
848.515	16721
848.65	16752
848.786	16755
848.921	16873
849.057	16847
849.192	16820
849.328	16740
849.463	16755
849.598	16649
849.734	16645
849.869	16573
850.004	16497
850.14	16565
850.275	16398
850.41	16394
850.545	16421
850.68	16409
850.815	16443
850.95	16409
851.085	16561
851.22	16561
851.355	16440
851.49	16287
851.625	16352
851.76	16428
851.895	16386
852.03	16303
852.165	16318
852.299	16375
852.434	16432
852.569	16474
852.703	16417
852.838	16558
852.973	16558
853.107	16550
853.242	16474
853.376	16344
853.511	16131
853.645	16337
853.78	16459
853.914	16322
854.048	16280
854.183	16280
854.317	16272
854.451	16436
854.585	16318
854.72	16284
854.854	16314
854.988	16268
855.122	16291
855.256	16169
855.39	16226
855.524	16337
855.658	16314
855.792	16249
855.926	16360
856.06	16382
856.194	16367
856.327	16268
856.461	16360
856.595	16215
856.729	16249
856.862	16360
856.996	16337
857.13	16382
857.263	16375
857.397	16443
857.53	16177
857.664	16386
857.797	16303
857.931	16398
858.064	16188
858.197	16325
858.331	16280
858.464	16204
858.597	16120
858.731	16226
858.864	16204
858.997	16177
859.13	16299
859.263	16291
859.396	16314
859.529	16268
859.662	16238
859.795	16101
859.928	16219
860.061	16352
860.194	16363
860.327	16272
860.46	16204
860.592	16371
860.725	16363
860.858	16322
860.99	16128
861.123	16131
861.256	16131
861.388	16154
861.521	16763
861.653	16040
861.786	16029
861.918	16158
862.05	16116
862.183	16219
862.315	16242
862.447	16242
862.58	16219
862.712	16051
862.844	15934
862.976	16097
863.108	15960
863.24	16466
863.372	15869
863.504	15930
863.636	16002
863.768	16055
863.9	16002
864.032	15838
864.164	15876
864.296	15994
864.428	16169
864.559	15998
864.691	16036
864.823	15949
864.954	15968
865.086	15953
865.217	15823
865.349	15835
865.48	15915
865.612	15949
865.743	16116
865.875	15907
866.006	15873
866.137	15907
866.269	15861
866.4	15922
866.531	15922
866.662	15880
866.793	15876
866.924	15899
867.055	15903
867.186	15804
867.317	15972
867.448	15854
867.579	15873
867.71	15812
867.841	15709
867.972	15934
868.103	15876
868.233	15804
868.364	16006
868.495	15968
868.625	16116
868.756	16310
868.886	16071
869.017	16200
869.147	16272
869.278	16405
869.408	16131
869.539	16071
869.669	16143
869.799	16295
869.929	16310
870.06	16238
870.19	16390
870.32	16379
870.45	16527
870.58	16527
870.71	16645
870.84	16679
870.97	16546
871.1	16546
871.23	16790
871.36	16847
871.489	16622
871.619	16664
871.749	16721
871.879	16710
872.008	16843
872.138	16786
872.267	16755
872.397	16569
872.526	16592
872.656	16596
872.785	16546
872.915	16752
873.044	16885
873.173	16915
873.303	16881
873.432	16812
873.561	16854
873.69	16736
873.819	16835
873.948	16885
874.077	16816
874.206	16801
874.335	16869
874.464	16991
874.593	17071
874.722	17010
874.851	17132
874.979	17208
875.108	17235
875.237	17079
875.365	17136
875.494	17056
875.623	17239
875.751	17178
875.88	17200
876.008	17356
876.136	17368
876.265	17573
876.393	17649
876.521	17634
876.65	17760
876.778	17604
876.906	17573
877.034	17581
877.162	17589
877.29	17589
877.418	17733
877.546	17737
877.674	17665
877.802	17604
877.93	17722
878.058	17676
878.185	17649
878.313	17798
878.441	17805
878.568	17741
878.696	17836
878.824	18068
878.951	18232
879.079	18395
879.206	18844
879.333	18901
879.461	19107
879.588	19297
879.715	19316
879.842	19430
879.97	18966
880.097	18410
880.224	18178
880.351	18106
880.478	18076
880.605	17889
880.732	17912
880.859	18026
880.986	17870
881.112	17866
881.239	17737
881.366	17482
881.493	17493
881.619	17433
881.746	17471
881.872	17471
881.999	17478
882.125	17414
882.252	17547
882.378	17497
882.505	17547
882.631	17436
882.757	17417
882.883	17299
883.01	17334
883.136	17265
883.262	17113
883.388	17170
883.514	17258
883.64	17330
883.766	17292
883.892	17090
884.018	17075
884.143	17220
884.269	17372
884.395	16995
884.52	17010
884.646	16843
884.772	16984
884.897	16908
885.023	17010
885.148	17086
885.274	17136
885.399	16987
885.524	16923
885.65	16965
885.775	16885
885.9	16927
886.025	16923
886.15	16942
886.275	16858
886.4	16816
886.525	16672
886.65	16752
886.775	16710
886.9	16892
887.025	16949
887.149	16828
887.274	16603
887.399	16519
887.523	16588
887.648	16554
887.773	16436
887.897	16698
888.021	16538
888.146	16481
888.27	16611
888.395	16592
888.519	16493
888.643	16618
888.767	16516
888.891	16421
889.015	16341
889.139	16341
889.263	16238
889.387	16440
889.511	16451
889.635	16371
889.759	16173
889.883	16166
890.006	16306
890.13	16386
890.254	16082
890.377	16249
890.501	16051
890.624	15918
890.748	16029
890.871	15915
890.995	15922
891.118	15804
891.241	15827
891.364	15884
891.488	16109
891.611	15857
891.734	15823
891.857	16048
891.98	15842
892.103	15983
892.226	15804
892.349	15895
892.471	15701
892.594	15816
892.717	15907
892.839	15785
892.962	15937
893.085	15854
893.207	15808
893.33	15637
893.452	15800
893.575	15911
893.697	15785
893.819	15994
893.941	15956
894.064	15956
894.186	15797
894.308	15652
894.43	15865
894.552	15930
894.674	15903
894.796	15797
894.918	15812
895.04	15880
895.161	15937
895.283	15892
895.405	15770
895.526	15915
895.648	15876
895.769	15911
895.891	15888
896.012	15918
896.134	15903
896.255	16025
896.376	15937
896.498	15930
896.619	15994
896.74	15998
896.861	15987
896.982	16272
897.103	16375
897.224	16166
897.345	16188
897.466	16177
897.587	16093
897.708	16280
897.828	16204
897.949	16188
898.07	16112
898.19	16143
898.311	16238
898.431	16181
898.552	16306
898.672	16325
898.792	16284
898.913	16154
899.033	16139
899.153	16105
899.273	16051
899.393	16055
899.513	16082
899.633	16074
899.753	16074
899.873	16067
899.993	16158
900.113	16051
900.232	16086
900.352	16063
900.472	15956
900.591	15762
900.711	15983
900.83	15907
900.95	16048
901.069	16093
901.189	15880
901.308	15705
901.427	15595
901.546	15561
901.665	15618
901.784	15652
901.904	15424
902.023	15439
902.141	15154
902.26	15146
902.379	15161
902.498	15207
902.617	15020
902.735	15218
902.854	15112
902.973	15028
903.091	14838
903.21	14823
903.328	14842
903.446	14750
903.565	14689
903.683	14716
903.801	14564
903.919	14590
904.038	14522
904.156	14465
904.274	14495
904.392	14419
904.51	14381
904.627	14320
904.745	14427
904.863	14412
904.981	14168
905.098	14123
905.216	14138
905.334	14130
905.451	14130
905.569	14043
905.686	14107
905.803	14073
905.921	13856
906.038	13951
906.155	13902
906.272	13769
906.389	13765
906.506	13750
906.623	13563
906.74	13666
906.857	13518
906.974	13521
907.091	13636
907.208	13826
907.324	13715
907.441	13487
907.557	13381
907.674	13377
907.79	13190
907.907	13289
908.023	13312
908.139	13346
908.256	13415
908.372	13289
908.488	13278
908.604	13160
908.72	13069
908.836	13053
908.952	13091
909.068	13050
909.184	13244
909.3	13038
909.415	13145
909.531	13034
909.647	12894
909.762	12852
909.878	12802
909.993	12787
910.108	12875
910.224	12768
910.339	12837
910.454	12715
910.57	12753
910.685	12593
910.8	12935
910.915	12844
911.03	12726
911.145	12498
911.259	12467
911.374	12559
911.489	12357
911.604	12391
911.718	12247
911.833	12209
911.947	12102
912.062	12079
912.176	12205
912.291	12262
912.405	12209
912.519	12429
912.633	12445
912.748	12414
912.862	12251
912.976	12144
913.09	11893
913.204	11939
913.318	12087
913.431	12194
913.545	12114
913.659	12186
913.772	12068
913.886	12022
914	11969
914.113	12007
914.226	12159
914.34	11999
914.453	11840
914.566	11977
914.68	11866
914.793	11961
914.906	11722
915.019	11707
915.132	11695
915.245	11680
915.358	11684
915.47	11714
915.583	11676
915.696	11707
915.809	11783
915.921	11939
916.034	11649
916.146	11649
916.259	11623
916.371	11748
916.483	11695
916.595	11611
916.708	11520
916.82	11539
916.932	11543
917.044	11535
917.156	11570
917.268	11474
917.38	11448
917.491	11547
917.603	11520
917.715	11573
917.826	11547
917.938	11417
918.049	11368
918.161	11440
918.272	11570
918.384	11573
918.495	11406
918.606	11277
918.717	11303
918.828	11288
918.939	11261
919.05	11318
919.161	11292
919.272	11113
919.383	11105
919.494	11345
919.604	11528
919.715	11349
919.826	11254
919.936	11280
920.047	11421
920.157	11349
920.267	11528
920.378	11368
920.488	11280
920.598	11528
920.708	11733
920.818	11528
920.928	11532
921.038	11733
921.148	11604
921.258	11379
921.368	11193
921.477	11113
921.587	11136
921.697	10961
921.806	11136
921.916	11010
922.025	10850
922.134	10854
922.244	10702
922.353	10835
922.462	10698
922.571	10755
922.68	10519
922.789	10497
922.898	10538
923.007	10413
923.116	10508
923.224	10432
923.333	10470
923.442	10341
923.55	10333
923.659	10360
923.767	10447
923.876	10295
923.984	10337
924.092	10284
924.201	10322
924.309	10341
924.417	10306
924.525	10234
924.633	10265
924.741	10984
924.849	10109
924.956	10253
925.064	10097
925.172	9983
925.279	9956
925.387	10078
925.494	10173
925.602	10230
925.709	10177
925.816	10063
925.924	10025
926.031	10128
926.138	10063
926.245	10116
926.352	10025
926.459	10181
926.566	10135
926.673	10078
926.779	9884
926.886	9983
926.993	9770
927.099	9823
927.206	9728
927.312	9660
927.419	9861
927.525	9743
927.631	9778
927.737	9679
927.843	9652
927.95	9519
928.056	9637
928.162	9610
928.267	9736
928.373	10162
928.479	9709
928.585	9477
928.69	9591
928.796	9637
928.901	9485
929.007	9401
929.112	9542
929.218	9542
929.323	9488
929.428	9389
929.533	9644
929.638	9367
929.743	9405
929.848	9393
929.953	9412
930.058	9302
930.163	9272
930.267	9146
930.372	9321
930.477	9157
930.581	9397
930.685	9306
930.79	9085
930.894	9157
930.998	9138
931.103	9260
931.207	8796
931.311	8792
931.415	8758
931.519	8560
931.623	8564
