Data from test_V78500241_2859.txt Node
Date: Fri Mar 25 14:53:37 CST 2022
User: usil
Spectrometer: V785-0024
Trigger mode: 0
Integration Time (sec): 4.000000E-1
Scans to average: 1
Nonlinearity correction enabled: false
Boxcar width: 0
Storing dark spectrum: false
XAxis mode: Wavelengths
Number of Pixels in Spectrum: 1024
>>>>>Begin Spectral Data<<<<<
801.071	22147
801.214	22074
801.356	21747
801.499	21736
801.641	21462
801.783	21496
801.926	21583
802.068	21367
802.211	21310
802.353	21302
802.496	20994
802.638	20914
802.78	20971
802.923	20754
803.065	20705
803.208	20716
803.35	20788
803.492	20838
803.635	20872
803.777	20868
803.919	20899
804.061	21176
804.204	20948
804.346	20621
804.488	20556
804.63	20739
804.773	20758
804.915	20617
805.057	20861
805.199	20701
805.341	20845
805.483	20857
805.626	20807
805.768	20598
805.91	20758
806.052	20655
806.194	20579
806.336	20857
806.478	20648
806.62	20644
806.762	20834
806.904	20937
807.046	21055
807.188	21036
807.33	21108
807.472	21089
807.614	20880
807.756	20929
807.898	20925
808.04	20781
808.182	20796
808.324	20834
808.465	20750
808.607	21009
808.749	21096
808.891	21096
809.033	21222
809.174	21192
809.316	21047
809.458	21112
809.6	21032
809.741	20982
809.883	21173
810.025	21287
810.166	21222
810.308	21119
810.45	21214
810.591	20998
810.733	20986
810.875	20872
811.016	20762
811.158	20823
811.299	20830
811.441	21055
811.582	20921
811.724	20819
811.865	20804
812.007	20895
812.148	20796
812.29	20807
812.431	21039
812.573	21184
812.714	21241
812.855	21321
812.997	21374
813.138	21580
813.279	21583
813.421	21329
813.562	21241
813.703	20982
813.845	20937
813.986	20800
814.127	20507
814.268	20415
814.41	20526
814.551	20381
814.692	20522
814.833	20343
814.974	20362
815.115	20408
815.256	20168
815.397	20187
815.539	20183
815.68	20115
815.821	20100
815.962	20195
816.103	20062
816.244	19963
816.385	19902
816.526	19856
816.666	19769
816.807	19468
816.948	19677
817.089	19567
817.23	19563
817.371	19548
817.512	19472
817.653	19445
817.793	19403
817.934	19392
818.075	19533
818.216	19441
818.356	19392
818.497	19308
818.638	19274
818.778	19293
818.919	19206
819.06	19228
819.2	19354
819.341	19411
819.481	19324
819.622	19540
819.762	19624
819.903	19696
820.043	19483
820.184	19563
820.324	19320
820.465	19571
820.605	19491
820.746	19605
820.886	19320
821.026	19480
821.167	19457
821.307	19464
821.447	19438
821.588	19324
821.728	19175
821.868	19004
822.008	18909
822.149	18970
822.289	18776
822.429	18639
822.569	18547
822.709	18506
822.849	18346
822.99	18353
823.13	18399
823.27	18380
823.41	18277
823.55	18194
823.69	18167
823.83	18133
823.97	18182
824.11	18049
824.25	17965
824.389	17954
824.529	18072
824.669	18003
824.809	18019
824.949	18049
825.089	18007
825.228	17939
825.368	17840
825.508	17756
825.648	17805
825.787	17824
825.927	17821
826.067	17741
826.206	17783
826.346	17657
826.485	17809
826.625	17707
826.765	17779
826.904	17802
827.044	17516
827.183	17395
827.323	17440
827.462	17486
827.601	17433
827.741	17467
827.88	17497
828.02	17337
828.159	17368
828.298	17280
828.437	17512
828.577	17444
828.716	17516
828.855	17368
828.994	17174
829.134	17193
829.273	17174
829.412	17159
829.551	17079
829.69	17136
829.829	17121
829.968	17242
830.107	17254
830.246	17200
830.385	17113
830.524	17117
830.663	17079
830.802	16866
830.941	16763
831.08	16675
831.219	16896
831.357	16828
831.496	17056
831.635	16721
831.774	16713
831.913	16729
832.051	16672
832.19	16508
832.329	16653
832.467	16561
832.606	16436
832.744	16352
832.883	16417
833.022	16394
833.16	16538
833.299	16421
833.437	16573
833.576	16519
833.714	16565
833.852	16527
833.991	16489
834.129	16615
834.267	16527
834.406	16481
834.544	16466
834.682	16573
834.821	16615
834.959	16504
835.097	16516
835.235	16580
835.373	16626
835.511	16618
835.65	16363
835.788	16382
835.926	16325
836.064	16253
836.202	16314
836.34	16424
836.478	16466
836.615	16382
836.753	16379
836.891	16531
837.029	16500
837.167	16485
837.305	16478
837.443	16405
837.58	16329
837.718	16451
837.856	16390
837.993	16257
838.131	16402
838.269	16173
838.406	16223
838.544	16188
838.681	16048
838.819	16010
838.956	15907
839.094	15854
839.231	15865
839.369	16010
839.506	16230
839.643	16010
839.781	15903
839.918	15759
840.055	15884
840.193	15861
840.33	15835
840.467	15884
840.604	15869
840.742	16105
840.879	15709
841.016	15644
841.153	15694
841.29	15842
841.427	15835
841.564	15876
841.701	15911
841.838	15759
841.975	15675
842.112	15713
842.249	15717
842.385	15690
842.522	15804
842.659	15591
842.796	15538
842.933	15629
843.069	15584
843.206	15618
843.343	15747
843.479	15694
843.616	15660
843.752	15488
843.889	15526
844.025	15599
844.162	15416
844.298	15507
844.435	15401
844.571	15332
844.708	15481
844.844	15603
844.98	15591
845.117	15492
845.253	15416
845.389	15302
845.525	15279
845.661	15233
845.798	15142
845.934	15252
846.07	15192
846.206	15165
846.342	15389
846.478	15237
846.614	15020
846.75	14929
846.886	14960
847.022	15077
847.158	15051
847.294	14937
847.429	15058
847.565	14929
847.701	15245
847.837	14651
847.972	14610
848.108	14830
848.244	14769
848.379	14541
848.515	14568
848.65	14552
848.786	14636
848.921	14560
849.057	14640
849.192	14705
849.328	14632
849.463	14617
849.598	14670
849.734	14545
849.869	14412
850.004	14423
850.14	14343
850.275	14450
850.41	14282
850.545	14252
850.68	14347
850.815	14347
850.95	14343
851.085	14518
851.22	14358
851.355	14275
851.49	14381
851.625	14286
851.76	14290
851.895	14275
852.03	14221
852.165	14202
852.299	14286
852.434	14385
852.569	14427
852.703	14320
852.838	14446
852.973	14499
853.107	14503
853.242	14374
853.376	14168
853.511	14115
853.645	14126
853.78	14309
853.914	14263
854.048	14210
854.183	14145
854.317	14320
854.451	14423
854.585	14180
854.72	14161
854.854	14240
854.988	14138
855.122	14256
855.256	14084
855.39	14134
855.524	14176
855.658	14305
855.792	14286
855.926	14206
856.06	14336
856.194	14244
856.327	14145
856.461	14084
856.595	14123
856.729	14183
856.862	14343
856.996	14252
857.13	14233
857.263	14301
857.397	14381
857.53	14172
857.664	14298
857.797	14362
857.931	14377
858.064	14214
858.197	14355
858.331	14221
858.464	14225
858.597	14096
858.731	14271
858.864	14092
858.997	14202
859.13	14134
859.263	14214
859.396	14298
859.529	14225
859.662	14145
859.795	14183
859.928	14199
860.061	14328
860.194	14533
860.327	14240
860.46	14248
860.592	14358
860.725	14328
860.858	14275
860.99	14153
861.123	14123
861.256	14157
861.388	14240
861.521	14823
861.653	14065
861.786	14065
861.918	13986
862.05	14115
862.183	14138
862.315	14202
862.447	14267
862.58	14069
862.712	14005
862.844	13959
862.976	14107
863.108	14008
863.24	14393
863.372	13841
863.504	14058
863.636	13978
863.768	14001
863.9	14065
864.032	13883
864.164	13947
864.296	14046
864.428	14142
864.559	14103
864.691	14134
864.823	14081
864.954	14073
865.086	14001
865.217	13928
865.349	13944
865.48	13974
865.612	14001
865.743	14119
865.875	14012
866.006	13974
866.137	13913
866.269	13978
866.4	13833
866.531	13921
866.662	13902
866.793	13940
866.924	13967
867.055	14027
867.186	14046
867.317	14050
867.448	13822
867.579	13921
867.71	13864
867.841	13822
867.972	13963
868.103	13890
868.233	14020
868.364	14008
868.495	14088
868.625	14183
868.756	14282
868.886	14126
869.017	14172
869.147	14320
869.278	14351
869.408	14271
869.539	14107
869.669	14275
869.799	14267
869.929	14427
870.06	14351
870.19	14476
870.32	14564
870.45	14461
870.58	14594
870.71	14708
870.84	14727
870.97	14708
871.1	14613
871.23	14754
871.36	14800
871.489	14644
871.619	14845
871.749	14804
871.879	14864
872.008	14918
872.138	14765
872.267	14807
872.397	14705
872.526	14689
872.656	14682
872.785	14697
872.915	14792
873.044	14876
873.173	14872
873.303	14891
873.432	14883
873.561	14952
873.69	14800
873.819	14952
873.948	14986
874.077	14868
874.206	14823
874.335	14883
874.464	14979
874.593	15081
874.722	15074
874.851	15264
874.979	15207
875.108	15237
875.237	15112
875.365	15161
875.494	15195
875.623	15249
875.751	15203
875.88	15378
876.008	15340
876.136	15367
876.265	15625
876.393	15720
876.521	15629
876.65	15679
876.778	15629
876.906	15500
877.034	15557
877.162	15641
877.29	15504
877.418	15584
877.546	15595
877.674	15572
877.802	15660
877.93	15572
878.058	15606
878.185	15526
878.313	15553
878.441	15511
878.568	15389
878.696	15637
878.824	15656
878.951	15675
879.079	15850
879.206	15869
879.333	15789
879.461	15709
879.588	15774
879.715	15770
879.842	15903
879.97	15701
880.097	15428
880.224	15458
880.351	15515
880.478	15568
880.605	15332
880.732	15500
880.859	15709
880.986	15458
881.112	15538
881.239	15291
881.366	15294
881.493	15180
881.619	15039
881.746	15146
881.872	15116
881.999	15017
882.125	15116
882.252	15222
882.378	15154
882.505	15268
882.631	15138
882.757	14948
882.883	14982
883.01	14982
883.136	14895
883.262	14826
883.388	14724
883.514	14842
883.64	14899
883.766	14895
883.892	14648
884.018	14773
884.143	14944
884.269	15070
884.395	14659
884.52	14701
884.646	14575
884.772	14636
884.897	14556
885.023	14640
885.148	14777
885.274	14758
885.399	14720
885.524	14674
885.65	14667
885.775	14598
885.9	14689
886.025	14739
886.15	14682
886.275	14545
886.4	14552
886.525	14663
886.65	14560
886.775	14503
886.9	14765
887.025	14910
887.149	14640
887.274	14488
887.399	14465
887.523	14423
887.648	14450
887.773	14427
887.897	14499
888.021	14549
888.146	14377
888.27	14446
888.395	14644
888.519	14492
888.643	14621
888.767	14465
888.891	14434
889.015	14336
889.139	14298
889.263	14294
889.387	14492
889.511	14556
889.635	14454
889.759	14336
889.883	14282
890.006	14275
890.13	14400
890.254	14252
890.377	14313
890.501	14183
890.624	14172
890.748	14229
890.871	14073
890.995	13974
891.118	13898
891.241	14062
891.364	13993
891.488	14145
891.611	14001
891.734	14001
891.857	14172
891.98	14020
892.103	14157
892.226	14043
892.349	14024
892.471	13894
892.594	13993
892.717	14103
892.839	14024
892.962	14031
893.085	14088
893.207	14012
893.33	13890
893.452	13852
893.575	14111
893.697	14043
893.819	14172
893.941	14256
894.064	14187
894.186	13982
894.308	13909
894.43	14149
894.552	14313
894.674	14225
894.796	14016
894.918	14119
895.04	14050
895.161	14119
895.283	14134
895.405	14065
895.526	14054
895.648	14058
895.769	14153
895.891	14259
896.012	14290
896.134	14214
896.255	14183
896.376	14191
896.498	14305
896.619	14256
896.74	14221
896.861	14290
896.982	14587
897.103	14674
897.224	14488
897.345	14484
897.466	14423
897.587	14469
897.708	14594
897.828	14598
897.949	14412
898.07	14358
898.19	14377
898.311	14507
898.431	14511
898.552	14575
898.672	14708
898.792	14670
898.913	14769
899.033	14503
899.153	14419
899.273	14396
899.393	14351
899.513	14412
899.633	14389
899.753	14374
899.873	14442
899.993	14431
900.113	14366
900.232	14507
900.352	14431
900.472	14374
900.591	14252
900.711	14278
900.83	14210
900.95	14423
901.069	14339
901.189	14142
901.308	14008
901.427	13947
901.546	13944
901.665	14035
901.784	13974
901.904	13849
902.023	13780
902.141	13628
902.26	13567
902.379	13643
902.498	13540
902.617	13544
902.735	13525
902.854	13491
902.973	13453
903.091	13297
903.21	13274
903.328	13198
903.446	13183
903.565	13194
903.683	13126
903.801	13023
903.919	13103
904.038	13012
904.156	12947
904.274	13050
904.392	12848
904.51	12901
904.627	12943
904.745	12973
904.863	12901
904.981	12715
905.098	12540
905.216	12635
905.334	12631
905.451	12544
905.569	12593
905.686	12726
905.803	12662
905.921	12418
906.038	12555
906.155	12445
906.272	12334
906.389	12388
906.506	12239
906.623	12251
906.74	12228
906.857	12064
906.974	12106
907.091	12152
907.208	12384
907.324	12144
907.441	12068
907.557	12011
907.674	11939
907.79	11901
907.907	11901
908.023	12022
908.139	11931
908.256	11893
908.372	11897
908.488	11939
908.604	11684
908.72	11695
908.836	11703
908.952	11630
909.068	11703
909.184	11805
909.3	11707
909.415	11786
909.531	11680
909.647	11505
909.762	11490
909.878	11501
909.993	11535
910.108	11486
910.224	11505
910.339	11440
910.454	11425
910.57	11318
910.685	11334
910.8	11604
910.915	11467
911.03	11337
911.145	11151
911.259	11220
911.374	11143
911.489	11094
911.604	11083
911.718	10946
911.833	10938
911.947	10854
912.062	10725
912.176	10866
912.291	10930
912.405	10900
912.519	11151
912.633	11147
912.748	11003
912.862	10991
912.976	10843
913.09	10725
913.204	10733
913.318	10763
913.431	10930
913.545	10961
913.659	10881
913.772	10820
913.886	10782
914	10668
914.113	10778
914.226	10759
914.34	10774
914.453	10596
914.566	10847
914.68	10679
914.793	10626
914.906	10470
915.019	10303
915.132	10382
915.245	10390
915.358	10474
915.47	10436
915.583	10489
915.696	10481
915.809	10584
915.921	10607
916.034	10413
916.146	10466
916.259	10421
916.371	10455
916.483	10363
916.595	10413
916.708	10459
916.82	10371
916.932	10306
917.044	10322
917.156	10398
917.268	10223
917.38	10261
917.491	10276
917.603	10314
917.715	10299
917.826	10424
917.938	10246
918.049	10200
918.161	10261
918.272	10413
918.384	10428
918.495	10322
918.606	10200
918.717	10040
918.828	10207
918.939	10185
919.05	10074
919.161	10162
919.272	9960
919.383	9998
919.494	10257
919.604	10371
919.715	10223
919.826	10086
919.936	10162
920.047	10242
920.157	10143
920.267	10356
920.378	10215
920.488	10230
920.598	10318
920.708	10462
920.818	10497
920.928	10398
921.038	10573
921.148	10550
921.258	10230
921.368	10185
921.477	10105
921.587	10063
921.697	9892
921.806	10071
921.916	9964
922.025	9804
922.134	9701
922.244	9720
922.353	9774
922.462	9629
922.571	9549
922.68	9500
922.789	9386
922.898	9473
923.007	9367
923.116	9469
923.224	9412
923.333	9412
923.442	9256
923.55	9283
923.659	9298
923.767	9344
923.876	9165
923.984	9428
924.092	9222
924.201	9237
924.309	9313
924.417	9348
924.525	9294
924.633	9207
924.741	10207
924.849	9074
924.956	9211
925.064	9032
925.172	9001
925.279	9077
925.387	9104
925.494	9119
925.602	9199
925.709	9211
925.816	9043
925.924	9100
926.031	9211
926.138	9119
926.245	9085
926.352	9036
926.459	9157
926.566	9157
926.673	9119
926.779	8918
926.886	8960
926.993	8921
927.099	8807
927.206	8781
927.312	8727
927.419	8845
927.525	8777
927.631	8781
927.737	8705
927.843	8655
927.95	8560
928.056	8674
928.162	8682
928.267	8750
928.373	9279
928.479	8834
928.585	8560
928.69	8670
928.796	8758
928.901	8610
929.007	8522
929.112	8621
929.218	8575
929.323	8552
929.428	8579
929.533	8617
929.638	8499
929.743	8507
929.848	8469
929.953	8522
930.058	8339
930.163	8282
930.267	8332
930.372	8393
930.477	8259
930.581	8499
930.685	8317
930.79	8210
930.894	8202
930.998	8218
931.103	8377
931.207	8062
931.311	7898
931.415	7898
931.519	7738
931.623	7727
