Data from test_V78500241_2141.txt Node
Date: Fri Mar 25 14:48:37 CST 2022
User: usil
Spectrometer: V785-0024
Trigger mode: 0
Integration Time (sec): 4.000000E-1
Scans to average: 1
Nonlinearity correction enabled: false
Boxcar width: 0
Storing dark spectrum: false
XAxis mode: Wavelengths
Number of Pixels in Spectrum: 1024
>>>>>Begin Spectral Data<<<<<
801.071	22200
801.214	22112
801.356	21766
801.499	21762
801.641	21587
801.783	21618
801.926	21610
802.068	21359
802.211	21367
802.353	21336
802.496	21241
802.638	21123
802.78	20902
802.923	20857
803.065	20849
803.208	20819
803.35	20845
803.492	21043
803.635	21055
803.777	20902
803.919	20982
804.061	21291
804.204	20941
804.346	20800
804.488	20864
804.63	20937
804.773	20724
804.915	20899
805.057	20826
805.199	20853
805.341	20960
805.483	20845
805.626	20899
805.768	20754
805.91	20769
806.052	20853
806.194	20731
806.336	20941
806.478	20792
806.62	20739
806.762	20887
806.904	20975
807.046	21176
807.188	21017
807.33	21146
807.472	21275
807.614	20967
807.756	21024
807.898	20918
808.04	20819
808.182	20746
808.324	20880
808.465	20944
808.607	21032
808.749	21089
808.891	21294
809.033	21496
809.174	21283
809.316	21199
809.458	21256
809.6	21287
809.741	21351
809.883	21268
810.025	21401
810.166	21386
810.308	21393
810.45	21317
810.591	21192
810.733	21009
810.875	20971
811.016	20849
811.158	20933
811.299	21070
811.441	21009
811.582	21135
811.724	20895
811.865	20948
812.007	20902
812.148	20967
812.29	21009
812.431	21222
812.573	21245
812.714	21481
812.855	21374
812.997	21526
813.138	21663
813.279	21587
813.421	21420
813.562	21405
813.703	21214
813.845	21085
813.986	20823
814.127	20708
814.268	20552
814.41	20629
814.551	20434
814.692	20511
814.833	20381
814.974	20454
815.115	20495
815.256	20332
815.397	20317
815.539	20358
815.68	20324
815.821	20218
815.962	20320
816.103	20229
816.244	19974
816.385	19978
816.526	19868
816.666	19940
816.807	19594
816.948	19746
817.089	19719
817.23	19715
817.371	19746
817.512	19521
817.653	19704
817.793	19613
817.934	19586
818.075	19658
818.216	19685
818.356	19605
818.497	19480
818.638	19327
818.778	19312
818.919	19266
819.06	19415
819.2	19430
819.341	19457
819.481	19548
819.622	19674
819.762	19830
819.903	19845
820.043	19643
820.184	19613
820.324	19662
820.465	19674
820.605	19556
820.746	19674
820.886	19628
821.026	19544
821.167	19624
821.307	19658
821.447	19590
821.588	19464
821.728	19335
821.868	19175
822.008	19110
822.149	18962
822.289	18909
822.429	18779
822.569	18688
822.709	18669
822.849	18502
822.99	18544
823.13	18479
823.27	18528
823.41	18338
823.55	18304
823.69	18422
823.83	18266
823.97	18205
824.11	18159
824.25	18216
824.389	18216
824.529	18125
824.669	18022
824.809	18163
824.949	18228
825.089	18144
825.228	18136
825.368	18060
825.508	17847
825.648	17958
825.787	17916
825.927	17904
826.067	17870
826.206	17783
826.346	17897
826.485	17859
826.625	17828
826.765	17965
826.904	18026
827.044	17642
827.183	17509
827.323	17642
827.462	17638
827.601	17471
827.741	17558
827.88	17573
828.02	17452
828.159	17592
828.298	17649
828.437	17649
828.577	17566
828.716	17687
828.855	17604
828.994	17315
829.134	17360
829.273	17459
829.412	17315
829.551	17292
829.69	17356
829.829	17322
829.968	17402
830.107	17463
830.246	17376
830.385	17204
830.524	17147
830.663	17162
830.802	17048
830.941	16923
831.08	16919
831.219	16934
831.357	17025
831.496	17162
831.635	16847
831.774	16854
831.913	16790
832.051	16672
832.19	16740
832.329	16824
832.467	16645
832.606	16660
832.744	16630
832.883	16531
833.022	16580
833.16	16599
833.299	16744
833.437	16592
833.576	16675
833.714	16702
833.852	16691
833.991	16694
834.129	16752
834.267	16801
834.406	16649
834.544	16683
834.682	16596
834.821	16622
834.959	16835
835.097	16653
835.235	16854
835.373	16721
835.511	16698
835.65	16565
835.788	16538
835.926	16390
836.064	16485
836.202	16390
836.34	16577
836.478	16706
836.615	16535
836.753	16531
836.891	16675
837.029	16660
837.167	16504
837.305	16573
837.443	16470
837.58	16432
837.718	16504
837.856	16470
837.993	16523
838.131	16550
838.269	16287
838.406	16386
838.544	16226
838.681	16154
838.819	16192
838.956	15956
839.094	15949
839.231	16093
839.369	16211
839.506	16333
839.643	16299
839.781	15968
839.918	15964
840.055	15998
840.193	15861
840.33	15911
840.467	16013
840.604	16036
840.742	16238
840.879	15869
841.016	15873
841.153	15907
841.29	16067
841.427	16036
841.564	15998
841.701	16078
841.838	15922
841.975	15930
842.112	15926
842.249	15831
842.385	15743
842.522	15934
842.659	15755
842.796	15743
842.933	15713
843.069	15728
843.206	15705
843.343	15854
843.479	15762
843.616	15747
843.752	15587
843.889	15545
844.025	15656
844.162	15542
844.298	15671
844.435	15515
844.571	15618
844.708	15652
844.844	15751
844.98	15770
845.117	15732
845.253	15481
845.389	15481
845.525	15447
845.661	15431
845.798	15325
845.934	15523
846.07	15283
846.206	15397
846.342	15447
846.478	15313
846.614	15077
846.75	15051
846.886	15047
847.022	15291
847.158	15047
847.294	15100
847.429	15211
847.565	15070
847.701	15450
847.837	14918
847.972	14868
848.108	14910
848.244	14960
848.379	14731
848.515	14708
848.65	14708
848.786	14758
848.921	14727
849.057	14769
849.192	14785
849.328	14758
849.463	14655
849.598	14750
849.734	14629
849.869	14587
850.004	14511
850.14	14499
850.275	14514
850.41	14461
850.545	14415
850.68	14446
850.815	14602
850.95	14556
851.085	14682
851.22	14636
851.355	14522
851.49	14446
851.625	14541
851.76	14366
851.895	14419
852.03	14404
852.165	14465
852.299	14598
852.434	14499
852.569	14484
852.703	14511
852.838	14579
852.973	14724
853.107	14693
853.242	14583
853.376	14412
853.511	14221
853.645	14305
853.78	14518
853.914	14381
854.048	14309
854.183	14317
854.317	14343
854.451	14492
854.585	14408
854.72	14324
854.854	14415
854.988	14317
855.122	14355
855.256	14202
855.39	14298
855.524	14396
855.658	14511
855.792	14450
855.926	14396
856.06	14381
856.194	14533
856.327	14317
856.461	14366
856.595	14309
856.729	14290
856.862	14514
856.996	14457
857.13	14454
857.263	14533
857.397	14457
857.53	14419
857.664	14427
857.797	14355
857.931	14587
858.064	14366
858.197	14469
858.331	14336
858.464	14313
858.597	14305
858.731	14317
858.864	14233
858.997	14389
859.13	14362
859.263	14396
859.396	14549
859.529	14370
859.662	14389
859.795	14412
859.928	14419
860.061	14514
860.194	14526
860.327	14427
860.46	14377
860.592	14465
860.725	14412
860.858	14450
860.99	14393
861.123	14252
861.256	14377
861.388	14374
861.521	15051
861.653	14252
861.786	14157
861.918	14294
862.05	14309
862.183	14362
862.315	14347
862.447	14351
862.58	14240
862.712	14126
862.844	14130
862.976	14252
863.108	14164
863.24	14571
863.372	14084
863.504	14221
863.636	14134
863.768	14206
863.9	14153
864.032	14081
864.164	14172
864.296	14183
864.428	14259
864.559	14248
864.691	14271
864.823	14244
864.954	14267
865.086	14164
865.217	14168
865.349	14069
865.48	14237
865.612	14119
865.743	14370
865.875	14123
866.006	14103
866.137	14081
866.269	14126
866.4	14176
866.531	14138
866.662	14050
866.793	14054
866.924	14176
867.055	14153
867.186	14259
867.317	14100
867.448	13986
867.579	14073
867.71	14016
867.841	13978
867.972	14142
868.103	14142
868.233	14111
868.364	14164
868.495	14134
868.625	14313
868.756	14404
868.886	14294
869.017	14358
869.147	14579
869.278	14514
869.408	14408
869.539	14423
869.669	14438
869.799	14457
869.929	14541
870.06	14507
870.19	14720
870.32	14670
870.45	14670
870.58	14769
870.71	14872
870.84	14872
870.97	14838
871.1	14838
871.23	14914
871.36	15036
871.489	14933
871.619	14914
871.749	14899
871.879	14982
872.008	15047
872.138	15039
872.267	14937
872.397	14804
872.526	14887
872.656	14762
872.785	14914
872.915	15108
873.044	15119
873.173	15020
873.303	15028
873.432	14998
873.561	15192
873.69	14986
873.819	15058
873.948	15013
874.077	15032
874.206	15047
874.335	15020
874.464	15279
874.593	15359
874.722	15275
874.851	15408
874.979	15447
875.108	15393
875.237	15214
875.365	15272
875.494	15439
875.623	15382
875.751	15348
875.88	15348
876.008	15485
876.136	15625
876.265	15831
876.393	15911
876.521	15949
876.65	15823
876.778	15835
876.906	15804
877.034	15656
877.162	15739
877.29	15679
877.418	15926
877.546	15717
877.674	15743
877.802	15793
877.93	15698
878.058	15759
878.185	15774
878.313	15778
878.441	15724
878.568	15580
878.696	15713
878.824	15789
878.951	15823
879.079	15960
879.206	16055
879.333	15949
879.461	15865
879.588	15835
879.715	16059
879.842	16082
879.97	15778
880.097	15736
880.224	15591
880.351	15682
880.478	15667
880.605	15660
880.732	15561
880.859	15857
880.986	15644
881.112	15572
881.239	15557
881.366	15393
881.493	15363
881.619	15302
881.746	15336
881.872	15218
881.999	15329
882.125	15252
882.252	15370
882.378	15325
882.505	15454
882.631	15317
882.757	15108
882.883	15195
883.01	15047
883.136	14990
883.262	14891
883.388	14944
883.514	15195
883.64	15184
883.766	14986
883.892	14895
884.018	14918
884.143	15180
884.269	15211
884.395	14834
884.52	14754
884.646	14724
884.772	14693
884.897	14785
885.023	14765
885.148	14887
885.274	14830
885.399	14918
885.524	14792
885.65	14826
885.775	14834
885.9	14781
886.025	14906
886.15	14849
886.275	14750
886.4	14727
886.525	14796
886.65	14708
886.775	14708
886.9	14933
887.025	14994
887.149	14834
887.274	14640
887.399	14564
887.523	14636
887.648	14579
887.773	14484
887.897	14663
888.021	14765
888.146	14541
888.27	14705
888.395	14716
888.519	14739
888.643	14765
888.767	14788
888.891	14594
889.015	14549
889.139	14537
889.263	14442
889.387	14682
889.511	14701
889.635	14724
889.759	14568
889.883	14461
890.006	14549
890.13	14533
890.254	14370
890.377	14374
890.501	14347
890.624	14225
890.748	14389
890.871	14149
890.995	14206
891.118	14084
891.241	14313
891.364	14142
891.488	14233
891.611	14199
891.734	14225
891.857	14385
891.98	14183
892.103	14313
892.226	14240
892.349	14134
892.471	14077
892.594	14062
892.717	14294
892.839	14229
892.962	14214
893.085	14282
893.207	14214
893.33	14024
893.452	14191
893.575	14301
893.697	14149
893.819	14408
893.941	14393
894.064	14294
894.186	14107
894.308	14092
894.43	14244
894.552	14301
894.674	14317
894.796	14161
894.918	14313
895.04	14259
895.161	14400
895.283	14298
895.405	14237
895.526	14275
895.648	14286
895.769	14294
895.891	14370
896.012	14385
896.134	14328
896.255	14385
896.376	14309
896.498	14465
896.619	14419
896.74	14412
896.861	14469
896.982	14701
897.103	14792
897.224	14636
897.345	14549
897.466	14541
897.587	14678
897.708	14769
897.828	14697
897.949	14545
898.07	14465
898.19	14594
898.311	14769
898.431	14575
898.552	14678
898.672	14788
898.792	14727
898.913	14777
899.033	14689
899.153	14457
899.273	14465
899.393	14556
899.513	14590
899.633	14621
899.753	14492
899.873	14518
899.993	14621
900.113	14636
900.232	14667
900.352	14530
900.472	14404
900.591	14381
900.711	14511
900.83	14393
900.95	14564
901.069	14507
901.189	14473
901.308	14100
901.427	14054
901.546	14043
901.665	14096
901.784	14081
901.904	14016
902.023	13909
902.141	13761
902.26	13647
902.379	13662
902.498	13662
902.617	13567
902.735	13761
902.854	13715
902.973	13632
903.091	13453
903.21	13426
903.328	13346
903.446	13270
903.565	13240
903.683	13240
903.801	13209
903.919	13236
904.038	13266
904.156	13110
904.274	13023
904.392	13053
904.51	13008
904.627	13046
904.745	13099
904.863	13069
904.981	12852
905.098	12700
905.216	12688
905.334	12776
905.451	12730
905.569	12673
905.686	12779
905.803	12677
905.921	12582
906.038	12620
906.155	12570
906.272	12475
906.389	12460
906.506	12300
906.623	12285
906.74	12292
906.857	12175
906.974	12129
907.091	12460
907.208	12494
907.324	12403
907.441	12273
907.557	12045
907.674	12060
907.79	12011
907.907	12022
908.023	12076
908.139	12049
908.256	12057
908.372	11977
908.488	11961
908.604	11794
908.72	11824
908.836	11855
908.952	11866
909.068	11821
909.184	11969
909.3	11790
909.415	11882
909.531	11878
909.647	11608
909.762	11520
909.878	11611
909.993	11703
910.108	11566
910.224	11611
910.339	11695
910.454	11520
910.57	11471
910.685	11345
910.8	11649
910.915	11570
911.03	11509
911.145	11318
911.259	11330
911.374	11318
911.489	11197
911.604	11132
911.718	11014
911.833	11086
911.947	10999
912.062	10847
912.176	11033
912.291	11121
912.405	11056
912.519	11265
912.633	11277
912.748	11132
912.862	11102
912.976	10923
913.09	10828
913.204	10866
913.318	10923
913.431	10957
913.545	11003
913.659	11045
913.772	10892
913.886	10805
914	10809
914.113	10957
914.226	10904
914.34	10885
914.453	10691
914.566	10904
914.68	10790
914.793	10774
914.906	10634
915.019	10478
915.132	10451
915.245	10535
915.358	10504
915.47	10577
915.583	10569
915.696	10580
915.809	10691
915.921	10706
916.034	10508
916.146	10538
916.259	10478
916.371	10683
916.483	10580
916.595	10451
916.708	10462
916.82	10470
916.932	10538
917.044	10478
917.156	10466
917.268	10299
917.38	10341
917.491	10375
917.603	10352
917.715	10440
917.826	10516
917.938	10375
918.049	10276
918.161	10398
918.272	10527
918.384	10550
918.495	10386
918.606	10246
918.717	10204
918.828	10329
918.939	10276
919.05	10230
919.161	10257
919.272	10044
919.383	10135
919.494	10318
919.604	10474
919.715	10249
919.826	10227
919.936	10268
920.047	10337
920.157	10299
920.267	10523
920.378	10337
920.488	10200
920.598	10508
920.708	10565
920.818	10519
920.928	10474
921.038	10599
921.148	10630
921.258	10215
921.368	10280
921.477	10093
921.587	10048
921.697	10021
921.806	10188
921.916	10048
922.025	9911
922.134	9918
922.244	9743
922.353	9827
922.462	9781
922.571	9633
922.68	9542
922.789	9492
922.898	9492
923.007	9481
923.116	9637
923.224	9485
923.333	9492
923.442	9359
923.55	9386
923.659	9412
923.767	9534
923.876	9348
923.984	9401
924.092	9359
924.201	9378
924.309	9443
924.417	9389
924.525	9332
924.633	9348
924.741	10223
924.849	9119
924.956	9275
925.064	9207
925.172	9108
925.279	9127
925.387	9249
925.494	9222
925.602	9351
925.709	9249
925.816	9097
925.924	9146
926.031	9306
926.138	9218
926.245	9180
926.352	9074
926.459	9222
926.566	9230
926.673	9180
926.779	9097
926.886	8994
926.993	8929
927.099	8921
927.206	8842
927.312	8792
927.419	8979
927.525	8880
927.631	8883
927.737	8834
927.843	8815
927.95	8651
928.056	8735
928.162	8796
928.267	8826
928.373	9363
928.479	8876
928.585	8678
928.69	8788
928.796	8743
928.901	8659
929.007	8606
929.112	8674
929.218	8750
929.323	8552
929.428	8549
929.533	8708
929.638	8541
929.743	8583
929.848	8689
929.953	8590
930.058	8488
930.163	8351
930.267	8431
930.372	8492
930.477	8408
930.581	8678
930.685	8530
930.79	8305
930.894	8263
930.998	8256
931.103	8419
931.207	8096
931.311	8062
931.415	8005
931.519	7860
931.623	7868
