Data from test_V78500241_2922.txt Node
Date: Fri Mar 25 14:54:03 CST 2022
User: usil
Spectrometer: V785-0024
Trigger mode: 0
Integration Time (sec): 4.000000E-1
Scans to average: 1
Nonlinearity correction enabled: false
Boxcar width: 0
Storing dark spectrum: false
XAxis mode: Wavelengths
Number of Pixels in Spectrum: 1024
>>>>>Begin Spectral Data<<<<<
801.071	22017
801.214	21960
801.356	21739
801.499	21663
801.641	21473
801.783	21545
801.926	21523
802.068	21397
802.211	21401
802.353	21203
802.496	21100
802.638	20971
802.78	20864
802.923	20823
803.065	20815
803.208	20686
803.35	20720
803.492	20864
803.635	21070
803.777	20815
803.919	20792
804.061	21070
804.204	20918
804.346	20716
804.488	20632
804.63	20743
804.773	20708
804.915	20724
805.057	20807
805.199	20564
805.341	20705
805.483	20731
805.626	20746
805.768	20724
805.91	20697
806.052	20807
806.194	20636
806.336	20811
806.478	20754
806.62	20556
806.762	20693
806.904	21085
807.046	21036
807.188	21032
807.33	21024
807.472	21108
807.614	20921
807.756	20914
807.898	20769
808.04	20712
808.182	20804
808.324	20777
808.465	20792
808.607	21055
808.749	21199
808.891	21165
809.033	21264
809.174	21176
809.316	21001
809.458	21001
809.6	21051
809.741	21009
809.883	21165
810.025	21226
810.166	21332
810.308	21180
810.45	21150
810.591	21104
810.733	20842
810.875	20929
811.016	20727
811.158	20823
811.299	20944
811.441	21100
811.582	20914
811.724	20811
811.865	20731
812.007	20754
812.148	20689
812.29	20830
812.431	21055
812.573	21169
812.714	21325
812.855	21359
812.997	21256
813.138	21694
813.279	21469
813.421	21351
813.562	21279
813.703	21093
813.845	21074
813.986	20674
814.127	20560
814.268	20469
814.41	20412
814.551	20332
814.692	20450
814.833	20332
814.974	20237
815.115	20336
815.256	20282
815.397	20214
815.539	20206
815.68	20081
815.821	20012
815.962	20073
816.103	20073
816.244	19917
816.385	19883
816.526	19826
816.666	19639
816.807	19582
816.948	19628
817.089	19635
817.23	19616
817.371	19445
817.512	19472
817.653	19502
817.793	19460
817.934	19499
818.075	19499
818.216	19597
818.356	19449
818.497	19282
818.638	19080
818.778	19217
818.919	19213
819.06	19236
819.2	19221
819.341	19464
819.481	19514
819.622	19571
819.762	19715
819.903	19681
820.043	19575
820.184	19613
820.324	19457
820.465	19575
820.605	19537
820.746	19411
820.886	19316
821.026	19365
821.167	19419
821.307	19571
821.447	19388
821.588	19312
821.728	19213
821.868	19038
822.008	18939
822.149	18863
822.289	18916
822.429	18684
822.569	18616
822.709	18578
822.849	18448
822.99	18426
823.13	18422
823.27	18319
823.41	18251
823.55	18209
823.69	18224
823.83	18041
823.97	18064
824.11	17939
824.25	17912
824.389	18022
824.529	17927
824.669	17954
824.809	17965
824.949	18019
825.089	18038
825.228	17973
825.368	17771
825.508	17699
825.648	17726
825.787	17824
825.927	17783
826.067	17676
826.206	17737
826.346	17840
826.485	17760
826.625	17729
826.765	17863
826.904	17718
827.044	17562
827.183	17414
827.323	17322
827.462	17505
827.601	17505
827.741	17356
827.88	17440
828.02	17235
828.159	17376
828.298	17490
828.437	17436
828.577	17379
828.716	17532
828.855	17349
828.994	17223
829.134	17056
829.273	17170
829.412	17143
829.551	17105
829.69	17185
829.829	17132
829.968	17227
830.107	17231
830.246	17151
830.385	17090
830.524	17143
830.663	16991
830.802	16847
830.941	16927
831.08	16759
831.219	16866
831.357	16934
831.496	17079
831.635	16679
831.774	16790
831.913	16641
832.051	16550
832.19	16599
832.329	16599
832.467	16497
832.606	16516
832.744	16413
832.883	16478
833.022	16432
833.16	16436
833.299	16466
833.437	16462
833.576	16443
833.714	16481
833.852	16554
833.991	16649
834.129	16588
834.267	16584
834.406	16512
834.544	16542
834.682	16508
834.821	16447
834.959	16721
835.097	16542
835.235	16618
835.373	16428
835.511	16546
835.65	16386
835.788	16428
835.926	16352
836.064	16215
836.202	16310
836.34	16436
836.478	16485
836.615	16493
836.753	16394
836.891	16550
837.029	16413
837.167	16421
837.305	16276
837.443	16306
837.58	16238
837.718	16367
837.856	16284
837.993	16253
838.131	16261
838.269	16223
838.406	16341
838.544	16261
838.681	16006
838.819	15941
838.956	15895
839.094	15835
839.231	15827
839.369	15979
839.506	16188
839.643	16150
839.781	15854
839.918	15675
840.055	15736
840.193	15808
840.33	15835
840.467	15873
840.604	15812
840.742	16040
840.879	15751
841.016	15694
841.153	15800
841.29	15876
841.427	15823
841.564	15854
841.701	15812
841.838	15736
841.975	15679
842.112	15732
842.249	15549
842.385	15553
842.522	15797
842.659	15610
842.796	15561
842.933	15739
843.069	15572
843.206	15450
843.343	15679
843.479	15618
843.616	15603
843.752	15287
843.889	15393
844.025	15591
844.162	15416
844.298	15431
844.435	15435
844.571	15348
844.708	15511
844.844	15534
844.98	15629
845.117	15477
845.253	15443
845.389	15291
845.525	15291
845.661	15249
845.798	15226
845.934	15226
846.07	15176
846.206	15237
846.342	15344
846.478	15188
846.614	14960
846.75	14967
846.886	14880
847.022	15085
847.158	15039
847.294	14982
847.429	14899
847.565	14986
847.701	15211
847.837	14765
847.972	14743
848.108	14834
848.244	14720
848.379	14606
848.515	14610
848.65	14533
848.786	14560
848.921	14568
849.057	14689
849.192	14617
849.328	14587
849.463	14651
849.598	14526
849.734	14632
849.869	14389
850.004	14328
850.14	14393
850.275	14332
850.41	14237
850.545	14252
850.68	14298
850.815	14374
850.95	14358
851.085	14499
851.22	14347
851.355	14400
851.49	14332
851.625	14309
851.76	14278
851.895	14244
852.03	14240
852.165	14298
852.299	14377
852.434	14385
852.569	14434
852.703	14278
852.838	14423
852.973	14495
853.107	14484
853.242	14275
853.376	14282
853.511	14191
853.645	14195
853.78	14339
853.914	14199
854.048	14206
854.183	14199
854.317	14347
854.451	14305
854.585	14233
854.72	14164
854.854	14221
854.988	14096
855.122	14115
855.256	14024
855.39	14210
855.524	14259
855.658	14309
855.792	14259
855.926	14210
856.06	14240
856.194	14309
856.327	14187
856.461	14161
856.595	14103
856.729	14119
856.862	14290
856.996	14210
857.13	14328
857.263	14294
857.397	14328
857.53	14206
857.664	14240
857.797	14305
857.931	14298
858.064	14214
858.197	14164
858.331	14142
858.464	14187
858.597	14107
858.731	14218
858.864	14168
858.997	14225
859.13	14161
859.263	14180
859.396	14377
859.529	14138
859.662	14187
859.795	14035
859.928	14206
860.061	14431
860.194	14412
860.327	14229
860.46	14168
860.592	14381
860.725	14332
860.858	14301
860.99	14233
861.123	14096
861.256	14168
861.388	14225
861.521	14876
861.653	14164
861.786	13932
861.918	14012
862.05	14081
862.183	14107
862.315	14100
862.447	14225
862.58	14115
862.712	13967
862.844	13871
862.976	14035
863.108	14088
863.24	14358
863.372	13906
863.504	13944
863.636	14012
863.768	14008
863.9	13967
864.032	13909
864.164	13978
864.296	14008
864.428	14065
864.559	13936
864.691	14172
864.823	14096
864.954	13951
865.086	14005
865.217	13936
865.349	13936
865.48	13967
865.612	13944
865.743	14062
865.875	13932
866.006	13951
866.137	13913
866.269	13982
866.4	13936
866.531	13894
866.662	13925
866.793	14012
866.924	13936
867.055	13951
867.186	13902
867.317	13883
867.448	13860
867.579	13849
867.71	13963
867.841	13852
867.972	13997
868.103	13967
868.233	13894
868.364	14024
868.495	14050
868.625	14218
868.756	14320
868.886	14096
869.017	14103
869.147	14377
869.278	14355
869.408	14210
869.539	14180
869.669	14309
869.799	14252
869.929	14309
870.06	14305
870.19	14495
870.32	14590
870.45	14560
870.58	14610
870.71	14697
870.84	14625
870.97	14625
871.1	14636
871.23	14743
871.36	14739
871.489	14720
871.619	14674
871.749	14743
871.879	14872
872.008	14975
872.138	14872
872.267	14819
872.397	14720
872.526	14743
872.656	14610
872.785	14610
872.915	14819
873.044	14929
873.173	14807
873.303	14899
873.432	14902
873.561	14979
873.69	14891
873.819	14872
873.948	14906
874.077	14716
874.206	14861
874.335	14864
874.464	14994
874.593	15142
874.722	15074
874.851	15157
874.979	15135
875.108	15321
875.237	15157
875.365	15142
875.494	15146
875.623	15283
875.751	15108
875.88	15237
876.008	15230
876.136	15416
876.265	15637
876.393	15717
876.521	15728
876.65	15774
876.778	15660
876.906	15641
877.034	15397
877.162	15606
877.29	15545
877.418	15713
877.546	15576
877.674	15618
877.802	15595
877.93	15580
878.058	15584
878.185	15447
878.313	15591
878.441	15591
878.568	15393
878.696	15561
878.824	15580
878.951	15622
879.079	15800
879.206	15945
879.333	15751
879.461	15717
879.588	15686
879.715	15838
879.842	15827
879.97	15679
880.097	15439
880.224	15428
880.351	15454
880.478	15500
880.605	15462
880.732	15370
880.859	15713
880.986	15408
881.112	15477
881.239	15382
881.366	15256
881.493	15123
881.619	15100
881.746	15043
881.872	15070
881.999	15070
882.125	15051
882.252	15097
882.378	15116
882.505	15245
882.631	15097
882.757	14925
882.883	14914
883.01	14910
883.136	14933
883.262	14819
883.388	14724
883.514	14925
883.64	14929
883.766	14880
883.892	14670
884.018	14697
884.143	14986
884.269	15005
884.395	14705
884.52	14575
884.646	14625
884.772	14514
884.897	14514
885.023	14625
885.148	14727
885.274	14819
885.399	14739
885.524	14625
885.65	14594
885.775	14708
885.9	14598
886.025	14640
886.15	14632
886.275	14495
886.4	14579
886.525	14621
886.65	14492
886.775	14537
886.9	14640
887.025	14853
887.149	14560
887.274	14434
887.399	14389
887.523	14336
887.648	14370
887.773	14438
887.897	14587
888.021	14552
888.146	14438
888.27	14621
888.395	14632
888.519	14476
888.643	14499
888.767	14480
888.891	14389
889.015	14309
889.139	14267
889.263	14233
889.387	14404
889.511	14499
889.635	14438
889.759	14267
889.883	14256
890.006	14351
890.13	14473
890.254	14218
890.377	14309
890.501	14142
890.624	14119
890.748	14221
890.871	14058
890.995	13978
891.118	13921
891.241	14027
891.364	13970
891.488	14191
891.611	14024
891.734	13959
891.857	14088
891.98	14157
892.103	14001
892.226	14012
892.349	13986
892.471	13852
892.594	13906
892.717	14062
892.839	13989
892.962	14088
893.085	14134
893.207	14016
893.33	13814
893.452	13959
893.575	14008
893.697	14024
893.819	14199
893.941	14237
894.064	14267
894.186	14001
894.308	13959
894.43	14180
894.552	14183
894.674	14100
894.796	14062
894.918	13902
895.04	13970
895.161	14096
895.283	14111
895.405	14145
895.526	14153
895.648	14081
895.769	14157
895.891	14195
896.012	14286
896.134	14176
896.255	14259
896.376	14191
896.498	14153
896.619	14229
896.74	14214
896.861	14244
896.982	14610
897.103	14651
897.224	14488
897.345	14480
897.466	14393
897.587	14465
897.708	14606
897.828	14495
897.949	14434
898.07	14206
898.19	14434
898.311	14625
898.431	14526
898.552	14412
898.672	14621
898.792	14636
898.913	14648
899.033	14533
899.153	14465
899.273	14275
899.393	14412
899.513	14393
899.633	14457
899.753	14450
899.873	14336
899.993	14526
900.113	14461
900.232	14533
900.352	14366
900.472	14377
900.591	14347
900.711	14419
900.83	14256
900.95	14374
901.069	14408
901.189	14153
901.308	14012
901.427	13906
901.546	13978
901.665	13982
901.784	13925
901.904	13868
902.023	13681
902.141	13567
902.26	13499
902.379	13674
902.498	13567
902.617	13499
902.735	13666
902.854	13544
902.973	13521
903.091	13232
903.21	13228
903.328	13247
903.446	13206
903.565	13095
903.683	13129
903.801	13027
903.919	13133
904.038	13099
904.156	12962
904.274	12951
904.392	12939
904.51	12856
904.627	12985
904.745	12939
904.863	13015
904.981	12764
905.098	12715
905.216	12612
905.334	12623
905.451	12566
905.569	12639
905.686	12582
905.803	12650
905.921	12429
906.038	12506
906.155	12395
906.272	12315
906.389	12296
906.506	12205
906.623	12216
906.74	12133
906.857	11996
906.974	12102
907.091	12247
907.208	12384
907.324	12277
907.441	12228
907.557	11847
907.674	11931
907.79	11954
907.907	11878
908.023	11961
908.139	11961
908.256	11912
908.372	11977
908.488	11882
908.604	11718
908.72	11684
908.836	11657
908.952	11703
909.068	11726
909.184	11786
909.3	11707
909.415	11821
909.531	11634
909.647	11551
909.762	11497
909.878	11501
909.993	11490
910.108	11387
910.224	11554
910.339	11429
910.454	11406
910.57	11273
910.685	11246
910.8	11581
910.915	11425
911.03	11356
911.145	11166
911.259	11197
911.374	11143
911.489	11094
911.604	11018
911.718	10873
911.833	10942
911.947	10812
912.062	10835
912.176	10816
912.291	10904
912.405	10972
912.519	11162
912.633	11162
912.748	11022
912.862	10885
912.976	10805
913.09	10664
913.204	10736
913.318	10847
913.431	10869
913.545	10866
913.659	10831
913.772	10790
913.886	10668
914	10649
914.113	10828
914.226	10793
914.34	10729
914.453	10634
914.566	10691
914.68	10626
914.793	10569
914.906	10447
915.019	10447
915.132	10348
915.245	10470
915.358	10497
915.47	10428
915.583	10489
915.696	10573
915.809	10535
915.921	10618
916.034	10386
916.146	10394
916.259	10337
916.371	10386
916.483	10493
916.595	10287
916.708	10348
916.82	10367
916.932	10356
917.044	10421
917.156	10352
917.268	10181
917.38	10344
917.491	10227
917.603	10322
917.715	10322
917.826	10348
917.938	10242
918.049	10158
918.161	10257
918.272	10314
918.384	10424
918.495	10265
918.606	10188
918.717	10128
918.828	10173
918.939	10101
919.05	10131
919.161	10196
919.272	9949
919.383	9956
919.494	10173
919.604	10352
919.715	10211
919.826	10040
919.936	10154
920.047	10188
920.157	10204
920.267	10329
920.378	10196
920.488	10230
920.598	10394
920.708	10535
920.818	10325
920.928	10493
921.038	10558
921.148	10432
921.258	10314
921.368	10120
921.477	10010
921.587	10044
921.697	9895
921.806	10013
921.916	9899
922.025	9755
922.134	9717
922.244	9648
922.353	9819
922.462	9614
922.571	9599
922.68	9454
922.789	9408
922.898	9374
923.007	9363
923.116	9466
923.224	9378
923.333	9492
923.442	9294
923.55	9332
923.659	9351
923.767	9344
923.876	9279
923.984	9348
924.092	9195
924.201	9275
924.309	9298
924.417	9291
924.525	9241
924.633	9195
924.741	10131
924.849	9097
924.956	9256
925.064	9058
925.172	8941
925.279	8971
925.387	9074
925.494	9070
925.602	9180
925.709	9116
925.816	9036
925.924	9123
926.031	9108
926.138	9070
926.245	9138
926.352	9058
926.459	9176
926.566	9226
926.673	9058
926.779	8899
926.886	8963
926.993	8906
927.099	8777
927.206	8689
927.312	8701
927.419	8823
927.525	8788
927.631	8777
927.737	8769
927.843	8731
927.95	8613
928.056	8613
928.162	8689
928.267	8762
928.373	9374
928.479	8777
928.585	8564
928.69	8686
928.796	8674
928.901	8621
929.007	8499
929.112	8632
929.218	8552
929.323	8552
929.428	8461
929.533	8655
929.638	8488
929.743	8499
929.848	8632
929.953	8438
930.058	8446
930.163	8271
930.267	8305
930.372	8385
930.477	8237
930.581	8587
930.685	8408
930.79	8214
930.894	8267
930.998	8279
931.103	8385
931.207	7986
931.311	7978
931.415	7871
931.519	7715
931.623	7719
