Data from test_V78500241_3322.txt Node
Date: Fri Mar 25 14:56:50 CST 2022
User: usil
Spectrometer: V785-0024
Trigger mode: 0
Integration Time (sec): 4.000000E-1
Scans to average: 1
Nonlinearity correction enabled: false
Boxcar width: 0
Storing dark spectrum: false
XAxis mode: Wavelengths
Number of Pixels in Spectrum: 1024
>>>>>Begin Spectral Data<<<<<
801.071	22093
801.214	21899
801.356	21641
801.499	21542
801.641	21389
801.783	21287
801.926	21291
802.068	21374
802.211	21275
802.353	21150
802.496	20963
802.638	20769
802.78	20819
802.923	20746
803.065	20667
803.208	20663
803.35	20670
803.492	20705
803.635	20906
803.777	20800
803.919	20724
804.061	20937
804.204	20746
804.346	20613
804.488	20590
804.63	20758
804.773	20606
804.915	20602
805.057	20724
805.199	20575
805.341	20674
805.483	20655
805.626	20613
805.768	20533
805.91	20511
806.052	20526
806.194	20522
806.336	20609
806.478	20541
806.62	20473
806.762	20632
806.904	20777
807.046	21028
807.188	20861
807.33	20891
807.472	20960
807.614	20754
807.756	20826
807.898	20686
808.04	20674
808.182	20659
808.324	20648
808.465	20705
808.607	20830
808.749	20826
808.891	21066
809.033	21043
809.174	20937
809.316	20792
809.458	20971
809.6	20838
809.741	20986
809.883	20941
810.025	21058
810.166	21093
810.308	21020
810.45	21093
810.591	20914
810.733	20891
810.875	20727
811.016	20560
811.158	20678
811.299	20796
811.441	20967
811.582	20724
811.724	20621
811.865	20621
812.007	20731
812.148	20754
812.29	20830
812.431	20895
812.573	21001
812.714	21176
812.855	21222
812.997	21211
813.138	21485
813.279	21420
813.421	21173
813.562	21062
813.703	20902
813.845	20842
813.986	20648
814.127	20415
814.268	20358
814.41	20298
814.551	20328
814.692	20336
814.833	20248
814.974	20092
815.115	20259
815.256	20134
815.397	20005
815.539	20077
815.68	19833
815.821	20043
815.962	19947
816.103	19913
816.244	19864
816.385	19635
816.526	19586
816.666	19571
816.807	19316
816.948	19407
817.089	19457
817.23	19403
817.371	19388
817.512	19312
817.653	19358
817.793	19369
817.934	19400
818.075	19468
818.216	19392
818.356	19312
818.497	19110
818.638	19046
818.778	19088
818.919	18989
819.06	18928
819.2	19213
819.341	19259
819.481	19217
819.622	19419
819.762	19514
819.903	19483
820.043	19400
820.184	19236
820.324	19282
820.465	19343
820.605	19350
820.746	19377
820.886	19221
821.026	19316
821.167	19232
821.307	19487
821.447	19209
821.588	19190
821.728	18989
821.868	18939
822.008	18730
822.149	18768
822.289	18844
822.429	18544
822.569	18433
822.709	18365
822.849	18174
822.99	18273
823.13	18273
823.27	18114
823.41	17999
823.55	18049
823.69	18022
823.83	18102
823.97	17999
824.11	17821
824.25	17824
824.389	17920
824.529	17946
824.669	17809
824.809	17923
824.949	17935
825.089	17794
825.228	17764
825.368	17619
825.508	17642
825.648	17714
825.787	17642
825.927	17665
826.067	17611
826.206	17547
826.346	17562
826.485	17729
826.625	17532
826.765	17794
826.904	17547
827.044	17288
827.183	17425
827.323	17250
827.462	17307
827.601	17318
827.741	17296
827.88	17383
828.02	17143
828.159	17307
828.298	17406
828.437	17288
828.577	17223
828.716	17406
828.855	17292
828.994	17083
829.134	17124
829.273	17048
829.412	17048
829.551	17018
829.69	17045
829.829	17147
829.968	17140
830.107	17098
830.246	17113
830.385	17010
830.524	16968
830.663	16854
830.802	16672
830.941	16687
831.08	16611
831.219	16706
831.357	16763
831.496	16889
831.635	16679
831.774	16573
831.913	16470
832.051	16603
832.19	16352
832.329	16516
832.467	16360
832.606	16341
832.744	16322
832.883	16360
833.022	16314
833.16	16466
833.299	16360
833.437	16481
833.576	16474
833.714	16428
833.852	16481
833.991	16504
834.129	16489
834.267	16531
834.406	16337
834.544	16424
834.682	16443
834.821	16519
834.959	16565
835.097	16493
835.235	16519
835.373	16577
835.511	16451
835.65	16409
835.788	16344
835.926	16211
836.064	16109
836.202	16143
836.34	16379
836.478	16440
836.615	16268
836.753	16287
836.891	16428
837.029	16455
837.167	16348
837.305	16249
837.443	16249
837.58	16188
837.718	16303
837.856	16360
837.993	16185
838.131	16265
838.269	16188
838.406	16131
838.544	16169
838.681	15994
838.819	15911
838.956	15709
839.094	15861
839.231	15857
839.369	15941
839.506	16090
839.643	16044
839.781	15751
839.918	15812
840.055	15774
840.193	15778
840.33	15747
840.467	15774
840.604	15812
840.742	15983
840.879	15549
841.016	15751
841.153	15660
841.29	15926
841.427	15842
841.564	15812
841.701	15865
841.838	15637
841.975	15717
842.112	15705
842.249	15568
842.385	15584
842.522	15755
842.659	15599
842.796	15454
842.933	15618
843.069	15450
843.206	15496
843.343	15606
843.479	15580
843.616	15488
843.752	15325
843.889	15291
844.025	15504
844.162	15325
844.298	15515
844.435	15321
844.571	15336
844.708	15473
844.844	15515
844.98	15469
845.117	15496
845.253	15226
845.389	15252
845.525	15268
845.661	15241
845.798	15192
845.934	15161
846.07	15131
846.206	15188
846.342	15249
846.478	15043
846.614	15020
846.75	14975
846.886	14849
847.022	15093
847.158	14864
847.294	14914
847.429	14948
847.565	14994
847.701	15199
847.837	14651
847.972	14594
848.108	14815
848.244	14762
848.379	14613
848.515	14511
848.65	14526
848.786	14644
848.921	14594
849.057	14678
849.192	14617
849.328	14533
849.463	14545
849.598	14389
849.734	14389
849.869	14396
850.004	14320
850.14	14408
850.275	14221
850.41	14157
850.545	14161
850.68	14218
850.815	14358
850.95	14301
851.085	14427
851.22	14298
851.355	14339
851.49	14248
851.625	14256
851.76	14263
851.895	14138
852.03	14103
852.165	14305
852.299	14267
852.434	14355
852.569	14351
852.703	14233
852.838	14328
852.973	14480
853.107	14423
853.242	14199
853.376	14221
853.511	14050
853.645	14012
853.78	14157
853.914	14252
854.048	14130
854.183	14100
854.317	14248
854.451	14252
854.585	14084
854.72	14043
854.854	14282
854.988	14100
855.122	14134
855.256	14027
855.39	14180
855.524	14195
855.658	14267
855.792	14298
855.926	14149
856.06	14237
856.194	14180
856.327	14103
856.461	14081
856.595	14077
856.729	14130
856.862	14286
856.996	14187
857.13	14271
857.263	14183
857.397	14244
857.53	14199
857.664	14332
857.797	14180
857.931	14244
858.064	14252
858.197	14324
858.331	14183
858.464	14111
858.597	14001
858.731	14142
858.864	14252
858.997	14035
859.13	14256
859.263	14142
859.396	14183
859.529	14119
859.662	14214
859.795	14088
859.928	14206
860.061	14320
860.194	14320
860.327	14138
860.46	14157
860.592	14271
860.725	14278
860.858	14218
860.99	14172
861.123	14005
861.256	14050
861.388	14180
861.521	14986
861.653	13978
861.786	13898
861.918	14012
862.05	14077
862.183	14024
862.315	14153
862.447	14126
862.58	14062
862.712	13890
862.844	13887
862.976	14012
863.108	13978
863.24	14271
863.372	13913
863.504	13940
863.636	13887
863.768	13986
863.9	13906
864.032	13830
864.164	13849
864.296	13932
864.428	14001
864.559	14092
864.691	13993
864.823	13967
864.954	13932
865.086	13970
865.217	13936
865.349	13970
865.48	14062
865.612	13906
865.743	14065
865.875	13925
866.006	13879
866.137	14012
866.269	13860
866.4	13906
866.531	13856
866.662	13776
866.793	13822
866.924	13902
867.055	13974
867.186	13890
867.317	13909
867.448	13856
867.579	13791
867.71	13947
867.841	13868
867.972	13814
868.103	14020
868.233	14016
868.364	13959
868.495	13970
868.625	14130
868.756	14271
868.886	14050
869.017	14164
869.147	14237
869.278	14290
869.408	14164
869.539	14210
869.669	14183
869.799	14202
869.929	14267
870.06	14370
870.19	14526
870.32	14400
870.45	14606
870.58	14556
870.71	14697
870.84	14674
870.97	14537
871.1	14583
871.23	14777
871.36	14731
871.489	14568
871.619	14777
871.749	14727
871.879	14773
872.008	14956
872.138	14765
872.267	14701
872.397	14670
872.526	14613
872.656	14537
872.785	14648
872.915	14762
873.044	14864
873.173	14819
873.303	14876
873.432	14792
873.561	14990
873.69	14819
873.819	14804
873.948	14971
874.077	14910
874.206	14788
874.335	14914
874.464	15085
874.593	15112
874.722	15017
874.851	15077
874.979	15146
875.108	15256
875.237	15058
875.365	15013
875.494	15165
875.623	15226
875.751	15127
875.88	15173
876.008	15275
876.136	15401
876.265	15500
876.393	15656
876.521	15660
876.65	15644
876.778	15641
876.906	15355
877.034	15572
877.162	15648
877.29	15545
877.418	15576
877.546	15526
877.674	15606
877.802	15507
877.93	15549
878.058	15557
878.185	15325
878.313	15507
878.441	15618
878.568	15386
878.696	15561
878.824	15622
878.951	15709
879.079	15785
879.206	15827
879.333	15713
879.461	15705
879.588	15671
879.715	15656
879.842	15846
879.97	15759
880.097	15340
880.224	15462
880.351	15378
880.478	15336
880.605	15378
880.732	15492
880.859	15720
880.986	15458
881.112	15424
881.239	15329
881.366	15142
881.493	15123
881.619	15055
881.746	15070
881.872	15001
881.999	15024
882.125	15039
882.252	15028
882.378	15017
882.505	15119
882.631	15020
882.757	14880
882.883	14933
883.01	14895
883.136	14758
883.262	14796
883.388	14727
883.514	14902
883.64	14941
883.766	14880
883.892	14571
884.018	14678
884.143	14902
884.269	14971
884.395	14625
884.52	14514
884.646	14503
884.772	14541
884.897	14499
885.023	14590
885.148	14712
885.274	14815
885.399	14701
885.524	14587
885.65	14678
885.775	14602
885.9	14594
886.025	14724
886.15	14716
886.275	14571
886.4	14530
886.525	14484
886.65	14568
886.775	14461
886.9	14781
887.025	14823
887.149	14610
887.274	14415
887.399	14366
887.523	14400
887.648	14263
887.773	14328
887.897	14511
888.021	14434
888.146	14347
888.27	14568
888.395	14492
888.519	14476
888.643	14480
888.767	14465
888.891	14336
889.015	14313
889.139	14328
889.263	14309
889.387	14427
889.511	14469
889.635	14374
889.759	14343
889.883	14256
890.006	14358
890.13	14412
890.254	14187
890.377	14164
890.501	14157
890.624	14020
890.748	14123
890.871	14012
890.995	14005
891.118	13871
891.241	14024
891.364	14035
891.488	14088
891.611	13986
891.734	13970
891.857	14115
891.98	14008
892.103	14008
892.226	14107
892.349	13909
892.471	13833
892.594	13989
892.717	14016
892.839	14031
892.962	14024
893.085	13993
893.207	14031
893.33	13932
893.452	13894
893.575	14088
893.697	13928
893.819	14161
893.941	14183
894.064	14138
894.186	13986
894.308	13940
894.43	14134
894.552	14153
894.674	14107
894.796	13978
894.918	14043
895.04	14039
895.161	14111
895.283	14157
895.405	14107
895.526	14050
895.648	14111
895.769	14134
895.891	14142
896.012	14252
896.134	14172
896.255	14126
896.376	14115
896.498	14172
896.619	14248
896.74	14248
896.861	14225
896.982	14571
897.103	14640
897.224	14484
897.345	14454
897.466	14457
897.587	14362
897.708	14598
897.828	14511
897.949	14393
898.07	14271
898.19	14309
898.311	14473
898.431	14484
898.552	14594
898.672	14598
898.792	14606
898.913	14518
899.033	14377
899.153	14313
899.273	14240
899.393	14408
899.513	14511
899.633	14396
899.753	14317
899.873	14336
899.993	14400
900.113	14286
900.232	14385
900.352	14442
900.472	14328
900.591	14256
900.711	14210
900.83	14199
900.95	14305
901.069	14320
901.189	14062
901.308	13936
901.427	13917
901.546	13906
901.665	13982
901.784	13921
901.904	13841
902.023	13719
902.141	13605
902.26	13495
902.379	13502
902.498	13476
902.617	13502
902.735	13548
902.854	13464
902.973	13453
903.091	13240
903.21	13274
903.328	13160
903.446	13183
903.565	13065
903.683	13099
903.801	12989
903.919	13088
904.038	13080
904.156	12882
904.274	12935
904.392	12875
904.51	12886
904.627	12943
904.745	12859
904.863	12867
904.981	12700
905.098	12502
905.216	12589
905.334	12635
905.451	12642
905.569	12532
905.686	12623
905.803	12639
905.921	12414
906.038	12422
906.155	12513
906.272	12254
906.389	12304
906.506	12129
906.623	12133
906.74	12190
906.857	12087
906.974	12114
907.091	12273
907.208	12330
907.324	12159
907.441	12076
907.557	11996
907.674	11950
907.79	11802
907.907	11946
908.023	11927
908.139	11935
908.256	11904
908.372	11836
908.488	11775
908.604	11688
908.72	11619
908.836	11547
908.952	11657
909.068	11741
909.184	11775
909.3	11627
909.415	11745
909.531	11707
909.647	11444
909.762	11440
909.878	11372
909.993	11452
910.108	11391
910.224	11402
910.339	11444
910.454	11330
910.57	11265
910.685	11299
910.8	11520
910.915	11444
911.03	11292
911.145	11124
911.259	11140
911.374	11155
911.489	11155
911.604	11105
911.718	10866
911.833	10923
911.947	10828
912.062	10740
912.176	10885
912.291	10896
912.405	10923
912.519	11052
912.633	11181
912.748	10991
912.862	10828
912.976	10782
913.09	10580
913.204	10702
913.318	10763
913.431	10866
913.545	10820
913.659	10896
913.772	10786
913.886	10687
914	10653
914.113	10862
914.226	10805
914.34	10748
914.453	10546
914.566	10828
914.68	10637
914.793	10565
914.906	10474
915.019	10367
915.132	10322
915.245	10276
915.358	10432
915.47	10398
915.583	10382
915.696	10447
915.809	10542
915.921	10607
916.034	10402
916.146	10337
916.259	10299
916.371	10512
916.483	10436
916.595	10291
916.708	10352
916.82	10341
916.932	10329
917.044	10246
917.156	10352
917.268	10227
917.38	10223
917.491	10230
917.603	10215
917.715	10386
917.826	10379
917.938	10234
918.049	10131
918.161	10230
918.272	10371
918.384	10390
918.495	10223
918.606	10101
918.717	10044
918.828	10150
918.939	10109
919.05	10090
919.161	10112
919.272	9941
919.383	9998
919.494	10150
919.604	10371
919.715	10150
919.826	10017
919.936	10128
920.047	10227
920.157	10150
920.267	10405
920.378	10223
920.488	10162
920.598	10318
920.708	10565
920.818	10371
920.928	10333
921.038	10512
921.148	10443
921.258	10177
921.368	10021
921.477	10040
921.587	9972
921.697	9911
921.806	9994
921.916	9937
922.025	9694
922.134	9705
922.244	9736
922.353	9709
922.462	9595
922.571	9530
922.68	9439
922.789	9378
922.898	9435
923.007	9367
923.116	9428
923.224	9511
923.333	9348
923.442	9249
923.55	9332
923.659	9264
923.767	9412
923.876	9294
923.984	9355
924.092	9230
924.201	9256
924.309	9283
924.417	9279
924.525	9214
924.633	9253
924.741	10196
924.849	9032
924.956	9230
925.064	9058
925.172	8933
925.279	8929
925.387	8998
925.494	9047
925.602	9135
925.709	9154
925.816	8960
925.924	9123
926.031	9066
926.138	9093
926.245	9032
926.352	8948
926.459	9089
926.566	9173
926.673	9017
926.779	8895
926.886	8941
926.993	8826
927.099	8807
927.206	8727
927.312	8788
927.419	8876
927.525	8769
927.631	8853
927.737	8663
927.843	8629
927.95	8651
928.056	8659
928.162	8758
928.267	8712
928.373	9374
928.479	8743
928.585	8556
928.69	8625
928.796	8750
928.901	8583
929.007	8434
929.112	8568
929.218	8549
929.323	8438
929.428	8434
929.533	8689
929.638	8427
929.743	8415
929.848	8469
929.953	8518
930.058	8469
930.163	8267
930.267	8282
930.372	8431
930.477	8271
930.581	8412
930.685	8301
930.79	8191
930.894	8252
930.998	8187
931.103	8279
931.207	7993
931.311	7993
931.415	7902
931.519	7704
931.623	7753
