Data from test_V78500241_3001.txt Node
Date: Fri Mar 25 14:54:36 CST 2022
User: usil
Spectrometer: V785-0024
Trigger mode: 0
Integration Time (sec): 4.000000E-1
Scans to average: 1
Nonlinearity correction enabled: false
Boxcar width: 0
Storing dark spectrum: false
XAxis mode: Wavelengths
Number of Pixels in Spectrum: 1024
>>>>>Begin Spectral Data<<<<<
801.071	22044
801.214	21911
801.356	21785
801.499	21625
801.641	21473
801.783	21370
801.926	21568
802.068	21393
802.211	21317
802.353	21298
802.496	21001
802.638	20876
802.78	21001
802.923	20842
803.065	20651
803.208	20743
803.35	20773
803.492	20891
803.635	20895
803.777	20769
803.919	20963
804.061	21123
804.204	20906
804.346	20670
804.488	20682
804.63	20792
804.773	20670
804.915	20720
805.057	20849
805.199	20640
805.341	20750
805.483	20735
805.626	20891
805.768	20716
805.91	20796
806.052	20735
806.194	20651
806.336	20838
806.478	20587
806.62	20670
806.762	20830
806.904	20826
807.046	21100
807.188	21104
807.33	21066
807.472	21176
807.614	20933
807.756	20994
807.898	20921
808.04	20693
808.182	20731
808.324	20804
808.465	20864
808.607	21036
808.749	21150
808.891	21184
809.033	21249
809.174	21173
809.316	21066
809.458	21005
809.6	21051
809.741	21131
809.883	21161
810.025	21222
810.166	21211
810.308	21298
810.45	21184
810.591	21070
810.733	20918
810.875	20781
811.016	20811
811.158	20648
811.299	20921
811.441	20861
811.582	21047
811.724	20918
811.865	20781
812.007	20899
812.148	20887
812.29	20849
812.431	21036
812.573	21089
812.714	21131
812.855	21374
812.997	21386
813.138	21622
813.279	21488
813.421	21344
813.562	21344
813.703	21074
813.845	20887
813.986	20765
814.127	20495
814.268	20480
814.41	20355
814.551	20278
814.692	20370
814.833	20396
814.974	20298
815.115	20476
815.256	20218
815.397	20294
815.539	20229
815.68	20221
815.821	20142
815.962	20225
816.103	20134
816.244	20062
816.385	19822
816.526	19757
816.666	19719
816.807	19620
816.948	19620
817.089	19567
817.23	19624
817.371	19556
817.512	19460
817.653	19537
817.793	19430
817.934	19540
818.075	19510
818.216	19480
818.356	19453
818.497	19415
818.638	19152
818.778	19171
818.919	19183
819.06	19183
819.2	19362
819.341	19457
819.481	19407
819.622	19666
819.762	19693
819.903	19731
820.043	19635
820.184	19521
820.324	19495
820.465	19449
820.605	19624
820.746	19491
820.886	19316
821.026	19407
821.167	19430
821.307	19438
821.447	19369
821.588	19255
821.728	19228
821.868	19050
822.008	18886
822.149	18901
822.289	18882
822.429	18627
822.569	18700
822.709	18582
822.849	18452
822.99	18296
823.13	18372
823.27	18262
823.41	18190
823.55	18095
823.69	18239
823.83	18262
823.97	18102
824.11	17946
824.25	17950
824.389	17882
824.529	18041
824.669	18022
824.809	18045
824.949	17984
825.089	17996
825.228	18041
825.368	17745
825.508	17767
825.648	17600
825.787	17840
825.927	17737
826.067	17703
826.206	17714
826.346	17764
826.485	17634
826.625	17718
826.765	17809
826.904	17745
827.044	17490
827.183	17474
827.323	17425
827.462	17463
827.601	17444
827.741	17421
827.88	17421
828.02	17250
828.159	17349
828.298	17379
828.437	17505
828.577	17353
828.716	17463
828.855	17417
828.994	17231
829.134	17200
829.273	17098
829.412	17193
829.551	17075
829.69	17178
829.829	17284
829.968	17242
830.107	17223
830.246	17216
830.385	17071
830.524	17113
830.663	17064
830.802	16854
830.941	16767
831.08	16816
831.219	16892
831.357	16835
831.496	17022
831.635	16763
831.774	16683
831.913	16645
832.051	16645
832.19	16508
832.329	16668
832.467	16500
832.606	16409
832.744	16367
832.883	16462
833.022	16504
833.16	16527
833.299	16523
833.437	16542
833.576	16599
833.714	16500
833.852	16577
833.991	16607
834.129	16618
834.267	16523
834.406	16554
834.544	16519
834.682	16611
834.821	16508
834.959	16683
835.097	16519
835.235	16702
835.373	16523
835.511	16565
835.65	16512
835.788	16417
835.926	16455
836.064	16276
836.202	16185
836.34	16417
836.478	16504
836.615	16341
836.753	16413
836.891	16508
837.029	16386
837.167	16405
837.305	16322
837.443	16390
837.58	16306
837.718	16428
837.856	16325
837.993	16261
838.131	16295
838.269	16173
838.406	16253
838.544	16188
838.681	16021
838.819	16021
838.956	15888
839.094	15869
839.231	15934
839.369	16006
839.506	16188
839.643	16025
839.781	15915
839.918	15876
840.055	15842
840.193	15930
840.33	15835
840.467	15827
840.604	15979
840.742	16051
840.879	15705
841.016	15770
841.153	15766
841.29	16048
841.427	15972
841.564	15934
841.701	15835
841.838	15778
841.975	15705
842.112	15789
842.249	15663
842.385	15606
842.522	15736
842.659	15656
842.796	15739
842.933	15686
843.069	15618
843.206	15618
843.343	15591
843.479	15587
843.616	15682
843.752	15557
843.889	15397
844.025	15549
844.162	15363
844.298	15424
844.435	15374
844.571	15294
844.708	15405
844.844	15584
844.98	15564
845.117	15473
845.253	15363
845.389	15256
845.525	15310
845.661	15291
845.798	15157
845.934	15313
846.07	15195
846.206	15173
846.342	15294
846.478	15199
846.614	15005
846.75	14941
846.886	15005
847.022	15112
847.158	14956
847.294	15009
847.429	15100
847.565	14944
847.701	15355
847.837	14773
847.972	14689
848.108	14823
848.244	14727
848.379	14670
848.515	14514
848.65	14610
848.786	14579
848.921	14575
849.057	14629
849.192	14667
849.328	14556
849.463	14579
849.598	14530
849.734	14537
849.869	14336
850.004	14412
850.14	14381
850.275	14492
850.41	14320
850.545	14347
850.68	14301
850.815	14362
850.95	14374
851.085	14564
851.22	14511
851.355	14396
851.49	14355
851.625	14309
851.76	14328
851.895	14298
852.03	14221
852.165	14355
852.299	14370
852.434	14336
852.569	14358
852.703	14210
852.838	14336
852.973	14446
853.107	14457
853.242	14381
853.376	14263
853.511	14134
853.645	14126
853.78	14282
853.914	14157
854.048	14225
854.183	14263
854.317	14370
854.451	14351
854.585	14145
854.72	14195
854.854	14313
854.988	14153
855.122	14259
855.256	13989
855.39	14183
855.524	14317
855.658	14191
855.792	14237
855.926	14206
856.06	14244
856.194	14328
856.327	14294
856.461	14134
856.595	14134
856.729	14206
856.862	14294
856.996	14290
857.13	14339
857.263	14408
857.397	14278
857.53	14202
857.664	14320
857.797	14202
857.931	14317
858.064	14244
858.197	14309
858.331	14187
858.464	14123
858.597	14111
858.731	14210
858.864	14157
858.997	14317
859.13	14221
859.263	14252
859.396	14313
859.529	14259
859.662	14218
859.795	14126
859.928	14172
860.061	14343
860.194	14381
860.327	14210
860.46	14142
860.592	14263
860.725	14351
860.858	14366
860.99	14187
861.123	14115
861.256	14161
861.388	14145
861.521	14838
861.653	14062
861.786	14058
861.918	14157
862.05	14107
862.183	14237
862.315	14130
862.447	14191
862.58	14062
862.712	14073
862.844	13925
862.976	14157
863.108	13986
863.24	14476
863.372	13967
863.504	13974
863.636	13997
863.768	14031
863.9	14084
864.032	13932
864.164	13913
864.296	14031
864.428	14130
864.559	14062
864.691	14058
864.823	14027
864.954	14043
865.086	13982
865.217	13925
865.349	13887
865.48	14069
865.612	13963
865.743	14161
865.875	13978
866.006	13959
866.137	13993
866.269	14008
866.4	13974
866.531	13928
866.662	13909
866.793	13913
866.924	14008
867.055	13959
867.186	13997
867.317	13890
867.448	13879
867.579	13917
867.71	13894
867.841	13906
867.972	13925
868.103	13989
868.233	13959
868.364	13963
868.495	13947
868.625	14157
868.756	14358
868.886	14092
869.017	14267
869.147	14248
869.278	14404
869.408	14294
869.539	14195
869.669	14381
869.799	14309
869.929	14317
870.06	14313
870.19	14495
870.32	14450
870.45	14537
870.58	14590
870.71	14674
870.84	14762
870.97	14636
871.1	14640
871.23	14667
871.36	14788
871.489	14765
871.619	14792
871.749	14746
871.879	14796
872.008	14982
872.138	14864
872.267	14792
872.397	14693
872.526	14689
872.656	14621
872.785	14750
872.915	14792
873.044	14971
873.173	14807
873.303	14883
873.432	14849
873.561	14960
873.69	14876
873.819	14845
873.948	14979
874.077	14899
874.206	14918
874.335	14804
874.464	15020
874.593	15157
874.722	15009
874.851	15214
874.979	15241
875.108	15237
875.237	15074
875.365	15074
875.494	15207
875.623	15272
875.751	15199
875.88	15359
876.008	15382
876.136	15424
876.265	15671
876.393	15774
876.521	15641
876.65	15736
876.778	15603
876.906	15538
877.034	15557
877.162	15599
877.29	15561
877.418	15606
877.546	15618
877.674	15538
877.802	15572
877.93	15561
878.058	15610
878.185	15553
878.313	15591
878.441	15561
878.568	15378
878.696	15614
878.824	15606
878.951	15694
879.079	15789
879.206	15861
879.333	15660
879.461	15713
879.588	15698
879.715	15816
879.842	15903
879.97	15717
880.097	15401
880.224	15405
880.351	15473
880.478	15557
880.605	15420
880.732	15477
880.859	15675
880.986	15428
881.112	15473
881.239	15363
881.366	15203
881.493	15169
881.619	15089
881.746	15195
881.872	15085
881.999	15169
882.125	15184
882.252	15077
882.378	15207
882.505	15279
882.631	15146
882.757	14861
882.883	14963
883.01	14883
883.136	14819
883.262	14804
883.388	14769
883.514	14994
883.64	14979
883.766	14834
883.892	14773
884.018	14781
884.143	14834
884.269	14967
884.395	14678
884.52	14629
884.646	14667
884.772	14522
884.897	14590
885.023	14697
885.148	14678
885.274	14693
885.399	14667
885.524	14636
885.65	14655
885.775	14617
885.9	14610
886.025	14705
886.15	14689
886.275	14533
886.4	14518
886.525	14507
886.65	14465
886.775	14499
886.9	14682
887.025	14830
887.149	14697
887.274	14396
887.399	14377
887.523	14396
887.648	14381
887.773	14351
887.897	14518
888.021	14473
888.146	14484
888.27	14571
888.395	14564
888.519	14579
888.643	14434
888.767	14503
888.891	14366
889.015	14313
889.139	14328
889.263	14278
889.387	14400
889.511	14431
889.635	14412
889.759	14282
889.883	14347
890.006	14370
890.13	14374
890.254	14313
890.377	14294
890.501	14062
890.624	14054
890.748	14180
890.871	14126
890.995	14005
891.118	13883
891.241	14111
891.364	13993
891.488	14126
891.611	14100
891.734	13959
891.857	14168
891.98	14088
892.103	14172
892.226	14005
892.349	13959
892.471	13845
892.594	13978
892.717	14035
892.839	13974
892.962	14054
893.085	14073
893.207	13989
893.33	13925
893.452	13947
893.575	14084
893.697	14020
893.819	14275
893.941	14161
894.064	14180
894.186	14008
894.308	13993
894.43	14229
894.552	14168
894.674	14199
894.796	14050
894.918	14062
895.04	14062
895.161	14134
895.283	14149
895.405	14195
895.526	14077
895.648	14176
895.769	14138
895.891	14237
896.012	14164
896.134	14294
896.255	14191
896.376	14111
896.498	14183
896.619	14298
896.74	14138
896.861	14317
896.982	14507
897.103	14754
897.224	14526
897.345	14526
897.466	14492
897.587	14427
897.708	14522
897.828	14530
897.949	14442
898.07	14404
898.19	14564
898.311	14575
898.431	14514
898.552	14488
898.672	14606
898.792	14667
898.913	14575
899.033	14522
899.153	14427
899.273	14343
899.393	14454
899.513	14404
899.633	14393
899.753	14408
899.873	14400
899.993	14457
900.113	14347
900.232	14415
900.352	14412
900.472	14328
900.591	14187
900.711	14282
900.83	14275
900.95	14419
901.069	14408
901.189	14214
901.308	14039
901.427	13864
901.546	13963
901.665	14035
901.784	14020
901.904	13852
902.023	13769
902.141	13525
902.26	13605
902.379	13514
902.498	13495
902.617	13563
902.735	13483
902.854	13548
902.973	13476
903.091	13236
903.21	13293
903.328	13350
903.446	13236
903.565	13122
903.683	13137
903.801	13004
903.919	13107
904.038	13038
904.156	13000
904.274	13008
904.392	12928
904.51	12852
904.627	12962
904.745	12973
904.863	12947
904.981	12741
905.098	12582
905.216	12563
905.334	12684
905.451	12620
905.569	12536
905.686	12612
905.803	12582
905.921	12433
906.038	12525
906.155	12414
906.272	12258
906.389	12388
906.506	12201
906.623	12277
906.74	12197
906.857	12102
906.974	12114
907.091	12190
907.208	12308
907.324	12281
907.441	12114
907.557	12019
907.674	11897
907.79	11897
907.907	11935
908.023	11912
908.139	11878
908.256	11874
908.372	11786
908.488	11817
908.604	11790
908.72	11653
908.836	11745
908.952	11691
909.068	11779
909.184	11775
909.3	11649
909.415	11703
909.531	11688
909.647	11512
909.762	11459
909.878	11391
909.993	11490
910.108	11433
910.224	11452
910.339	11425
910.454	11376
910.57	11292
910.685	11299
910.8	11562
910.915	11463
911.03	11356
911.145	11223
911.259	11090
911.374	11151
911.489	11090
911.604	11029
911.718	10908
911.833	10949
911.947	10790
912.062	10698
912.176	10889
912.291	10843
912.405	10919
912.519	11109
912.633	11105
912.748	10984
912.862	10873
912.976	10790
913.09	10656
913.204	10763
913.318	10835
913.431	10873
913.545	10904
913.659	10805
913.772	10873
913.886	10653
914	10599
914.113	10786
914.226	10892
914.34	10816
914.453	10577
914.566	10782
914.68	10649
914.793	10645
914.906	10481
915.019	10409
915.132	10421
915.245	10394
915.358	10459
915.47	10497
915.583	10459
915.696	10462
915.809	10577
915.921	10489
916.034	10428
916.146	10386
916.259	10382
916.371	10478
916.483	10409
916.595	10390
916.708	10322
916.82	10386
916.932	10329
917.044	10344
917.156	10280
917.268	10219
917.38	10242
917.491	10200
917.603	10268
917.715	10337
917.826	10356
917.938	10234
918.049	10223
918.161	10280
918.272	10386
918.384	10428
918.495	10276
918.606	10173
918.717	10093
918.828	10093
918.939	10147
919.05	10086
919.161	10131
919.272	9934
919.383	10071
919.494	10215
919.604	10287
919.715	10177
919.826	10093
919.936	10143
920.047	10223
920.157	10177
920.267	10409
920.378	10246
920.488	10158
920.598	10356
920.708	10466
920.818	10402
920.928	10394
921.038	10474
921.148	10500
921.258	10219
921.368	10135
921.477	10017
921.587	10093
921.697	9922
921.806	10063
921.916	9865
922.025	9709
922.134	9698
922.244	9671
922.353	9850
922.462	9637
922.571	9545
922.68	9401
922.789	9363
922.898	9363
923.007	9363
923.116	9420
923.224	9374
923.333	9397
923.442	9264
923.55	9237
923.659	9313
923.767	9405
923.876	9233
923.984	9321
924.092	9154
924.201	9340
924.309	9279
924.417	9245
924.525	9321
924.633	9195
924.741	10185
924.849	9017
924.956	9176
925.064	9036
925.172	8982
925.279	9108
925.387	9074
925.494	9066
925.602	9275
925.709	9127
925.816	8998
925.924	9108
926.031	9127
926.138	9093
926.245	9108
926.352	8925
926.459	9218
926.566	9230
926.673	9047
926.779	9005
926.886	8902
926.993	8804
927.099	8762
927.206	8762
927.312	8750
927.419	8891
927.525	8864
927.631	8842
927.737	8701
927.843	8678
927.95	8587
928.056	8636
928.162	8629
928.267	8716
928.373	9275
928.479	8781
928.585	8598
928.69	8655
928.796	8720
928.901	8632
929.007	8457
929.112	8659
929.218	8598
929.323	8533
929.428	8514
929.533	8606
929.638	8404
929.743	8434
929.848	8537
929.953	8469
930.058	8381
930.163	8248
930.267	8339
930.372	8469
930.477	8214
930.581	8503
930.685	8351
930.79	8191
930.894	8259
930.998	8244
931.103	8355
931.207	8024
931.311	7909
931.415	7955
931.519	7765
931.623	7746
