Data from test_V78500241_528.txt Node
Date: Fri Mar 25 14:37:23 CST 2022
User: usil
Spectrometer: V785-0024
Trigger mode: 0
Integration Time (sec): 4.000000E-1
Scans to average: 1
Nonlinearity correction enabled: false
Boxcar width: 0
Storing dark spectrum: false
XAxis mode: Wavelengths
Number of Pixels in Spectrum: 1024
>>>>>Begin Spectral Data<<<<<
801.071	27226
801.214	27081
801.356	26906
801.499	26914
801.641	26556
801.783	26720
801.926	26796
802.068	26560
802.211	26404
802.353	26317
802.496	26221
802.638	26050
802.78	26115
802.923	26005
803.065	26035
803.208	26008
803.35	26130
803.492	26225
803.635	26362
803.777	26092
803.919	26176
804.061	26518
804.204	26233
804.346	26084
804.488	26100
804.63	26233
804.773	26130
804.915	26183
805.057	26275
805.199	26298
805.341	26282
805.483	26393
805.626	26343
805.768	26062
805.91	26278
806.052	26389
806.194	26244
806.336	26621
806.478	26450
806.62	26541
806.762	26644
806.904	26891
807.046	27180
807.188	27199
807.33	27249
807.472	27530
807.614	27564
807.756	27732
807.898	27876
808.04	28405
808.182	28873
808.324	29585
808.465	30380
808.607	31323
808.749	31955
808.891	32457
809.033	32518
809.174	32119
809.316	31069
809.458	30228
809.6	29471
809.741	28957
809.883	28409
810.025	28185
810.166	27956
810.308	27671
810.45	27618
810.591	27268
810.733	27116
810.875	26967
811.016	26804
811.158	26727
811.299	26804
811.441	26960
811.582	27009
811.724	26629
811.865	26667
812.007	26625
812.148	26644
812.29	26590
812.431	26621
812.573	26887
812.714	26773
812.855	26937
812.997	27138
813.138	27264
813.279	27165
813.421	26880
813.562	26967
813.703	26769
813.845	26674
813.986	26370
814.127	26168
814.268	26069
814.41	26126
814.551	25955
814.692	26119
814.833	25898
814.974	25955
815.115	25830
815.256	25791
815.397	25734
815.539	25860
815.68	25769
815.821	25624
815.962	25628
816.103	25502
816.244	25635
816.385	25392
816.526	25285
816.666	25080
816.807	25129
816.948	25069
817.089	25217
817.23	25008
817.371	24989
817.512	25015
817.653	24897
817.793	24920
817.934	24878
818.075	25031
818.216	24954
818.356	24787
818.497	24741
818.638	24646
818.778	24665
818.919	24642
819.06	24646
819.2	24867
819.341	24916
819.481	24924
819.622	25004
819.762	25190
819.903	25050
820.043	24977
820.184	25050
820.324	24909
820.465	24954
820.605	24802
820.746	24859
820.886	24867
821.026	24897
821.167	24745
821.307	24867
821.447	24905
821.588	24730
821.728	24490
821.868	24388
822.008	24205
822.149	24235
822.289	24110
822.429	24018
822.569	23855
822.709	23828
822.849	23668
822.99	23577
823.13	23691
823.27	23604
823.41	23425
823.55	23478
823.69	23604
823.83	23414
823.97	23364
824.11	23200
824.25	23273
824.389	23132
824.529	23277
824.669	23250
824.809	23258
824.949	23265
825.089	23353
825.228	23204
825.368	23090
825.508	23014
825.648	23041
825.787	22999
825.927	23075
826.067	23022
826.206	22980
826.346	23022
826.485	22949
826.625	22915
826.765	23067
826.904	23044
827.044	22763
827.183	22694
827.323	22672
827.462	22702
827.601	22683
827.741	22698
827.88	22637
828.02	22596
828.159	22706
828.298	22698
828.437	22577
828.577	22580
828.716	22771
828.855	22557
828.994	22325
829.134	22523
829.273	22390
829.412	22352
829.551	22246
829.69	22261
829.829	22265
829.968	22356
830.107	22394
830.246	22360
830.385	22379
830.524	22143
830.663	22200
830.802	22120
830.941	21930
831.08	21918
831.219	22017
831.357	21979
831.496	22185
831.635	21903
831.774	21899
831.913	21800
832.051	21671
832.19	21709
832.329	21861
832.467	21717
832.606	21637
832.744	21553
832.883	21557
833.022	21660
833.16	21717
833.299	21698
833.437	21599
833.576	21797
833.714	21728
833.852	21907
833.991	21903
834.129	21991
834.267	22055
834.406	21884
834.544	21819
834.682	21816
834.821	21793
834.959	21854
835.097	21656
835.235	21717
835.373	21663
835.511	21561
835.65	21526
835.788	21389
835.926	21359
836.064	21184
836.202	21275
836.34	21622
836.478	21469
836.615	21439
836.753	21416
836.891	21435
837.029	21439
837.167	21184
837.305	21397
837.443	21294
837.58	21294
837.718	21355
837.856	21435
837.993	21142
838.131	21245
838.269	21112
838.406	21100
838.544	21165
838.681	20887
838.819	20910
838.956	20648
839.094	20640
839.231	20899
839.369	20918
839.506	21119
839.643	20864
839.781	20750
839.918	20701
840.055	20716
840.193	20629
840.33	20480
840.467	20670
840.604	20667
840.742	20762
840.879	20609
841.016	20556
841.153	20556
841.29	20693
841.427	20686
841.564	20606
841.701	20640
841.838	20583
841.975	20514
842.112	20571
842.249	20351
842.385	20298
842.522	20564
842.659	20355
842.796	20347
842.933	20385
843.069	20259
843.206	20339
843.343	20393
843.479	20282
843.616	20431
843.752	20240
843.889	20161
844.025	20355
844.162	20180
844.298	20309
844.435	20233
844.571	20317
844.708	20393
844.844	20533
844.98	20629
845.117	20769
845.253	21013
845.389	21237
845.525	22051
845.661	23474
845.798	25031
845.934	26503
846.07	26933
846.206	26823
846.342	25814
846.478	23999
846.614	22344
846.75	21249
846.886	20651
847.022	20313
847.158	20214
847.294	19921
847.429	19837
847.565	19632
847.701	20050
847.837	19480
847.972	19411
848.108	19263
848.244	19441
848.379	19297
848.515	19107
848.65	19141
848.786	19183
848.921	19259
849.057	19213
849.192	19274
849.328	19331
849.463	19114
849.598	19114
849.734	18973
849.869	18985
850.004	18856
850.14	18897
850.275	19015
850.41	18882
850.545	18821
850.68	18791
850.815	19031
850.95	18791
851.085	19080
851.22	18943
851.355	18810
851.49	18821
851.625	18779
851.76	18700
851.895	18791
852.03	18795
852.165	18779
852.299	18806
852.434	18973
852.569	18905
852.703	18852
852.838	18924
852.973	18909
853.107	19061
853.242	18943
853.376	18844
853.511	18623
853.645	18661
853.78	18798
853.914	18859
854.048	18700
854.183	18684
854.317	18783
854.451	18905
854.585	18738
854.72	18578
854.854	18905
854.988	18608
855.122	18791
855.256	18658
855.39	18700
855.524	18844
855.658	18764
855.792	18700
855.926	18802
856.06	18829
856.194	18833
856.327	18582
856.461	18669
856.595	18635
856.729	18791
856.862	18764
856.996	18669
857.13	18776
857.263	18665
857.397	18684
857.53	18604
857.664	18757
857.797	18798
857.931	18795
858.064	18692
858.197	18837
858.331	18639
858.464	18475
858.597	18395
858.731	18665
858.864	18563
858.997	18555
859.13	18684
859.263	18578
859.396	18703
859.529	18677
859.662	18471
859.795	18661
859.928	18570
860.061	18757
860.194	18726
860.327	18585
860.46	18544
860.592	18692
860.725	18669
860.858	18722
860.99	18509
861.123	18498
861.256	18551
861.388	18692
861.521	19411
861.653	18437
861.786	18369
861.918	18441
862.05	18608
862.183	18601
862.315	18601
862.447	18639
862.58	18559
862.712	18327
862.844	18281
862.976	18418
863.108	18437
863.24	18760
863.372	18266
863.504	18365
863.636	18262
863.768	18266
863.9	18334
864.032	18239
864.164	18251
864.296	18372
864.428	18350
864.559	18429
864.691	18330
864.823	18262
864.954	18353
865.086	18243
865.217	18235
865.349	18136
865.48	18133
865.612	18270
865.743	18410
865.875	18235
866.006	18174
866.137	18167
866.269	18277
866.4	18266
866.531	18186
866.662	18125
866.793	18140
866.924	18129
867.055	18266
867.186	18174
867.317	18182
867.448	18007
867.579	18057
867.71	18106
867.841	18140
867.972	18148
868.103	18163
868.233	18262
868.364	18125
868.495	18251
868.625	18315
868.756	18437
868.886	18330
869.017	18483
869.147	18627
869.278	18498
869.408	18361
869.539	18490
869.669	18551
869.799	18456
869.929	18483
870.06	18528
870.19	18719
870.32	18669
870.45	18806
870.58	18772
870.71	18882
870.84	18958
870.97	18867
871.1	18783
871.23	18905
871.36	18958
871.489	18939
871.619	18985
871.749	18985
871.879	19122
872.008	19194
872.138	19095
872.267	19091
872.397	18958
872.526	18932
872.656	18863
872.785	18989
872.915	19168
873.044	19126
873.173	19012
873.303	19095
873.432	19103
873.561	19107
873.69	19072
873.819	19198
873.948	19225
874.077	19095
874.206	19183
874.335	19187
874.464	19339
874.593	19464
874.722	19403
874.851	19388
874.979	19430
875.108	19537
875.237	19339
875.365	19339
875.494	19499
875.623	19605
875.751	19544
875.88	19567
876.008	19575
876.136	19727
876.265	19967
876.393	20164
876.521	19917
876.65	20103
876.778	20054
876.906	20005
877.034	20027
877.162	20134
877.29	19978
877.418	20081
877.546	20111
877.674	20187
877.802	20122
877.93	20172
878.058	20161
878.185	20111
878.313	20267
878.441	20419
878.568	20366
878.696	20568
878.824	20902
878.951	21249
879.079	21751
879.206	22325
879.333	22675
879.461	23083
879.588	23356
879.715	23436
879.842	23356
879.97	22603
880.097	21956
880.224	21538
880.351	21226
880.478	20979
880.605	20853
880.732	20842
880.859	20910
880.986	20670
881.112	20667
881.239	20518
881.366	20370
881.493	20286
881.619	20233
881.746	20248
881.872	20214
881.999	20252
882.125	20149
882.252	20259
882.378	20248
882.505	20381
882.631	20225
882.757	20111
882.883	20210
883.01	20142
883.136	20035
883.262	19921
883.388	19818
883.514	20050
883.64	20050
883.766	20005
883.892	19883
884.018	19845
884.143	19963
884.269	20145
884.395	19791
884.52	19715
884.646	19750
884.772	19601
884.897	19700
885.023	19814
885.148	19731
885.274	19765
885.399	19780
885.524	19655
885.65	19708
885.775	19658
885.9	19537
886.025	19632
886.15	19422
886.275	19373
886.4	19327
886.525	19373
886.65	19282
886.775	19358
886.9	19419
887.025	19449
887.149	19240
887.274	19027
887.399	19065
887.523	18939
887.648	18943
887.773	18776
887.897	19000
888.021	18970
888.146	18852
888.27	18928
888.395	18996
888.519	18924
888.643	18920
888.767	18776
888.891	18703
889.015	18616
889.139	18582
889.263	18547
889.387	18745
889.511	18703
889.635	18722
889.759	18585
889.883	18566
890.006	18521
890.13	18616
890.254	18460
890.377	18551
890.501	18228
890.624	18254
890.748	18410
890.871	18319
890.995	18095
891.118	17999
891.241	18102
891.364	18102
891.488	18201
891.611	18007
891.734	17912
891.857	18136
891.98	18057
892.103	18121
892.226	18155
892.349	17912
892.471	17874
892.594	17882
892.717	17851
892.839	17927
892.962	17935
893.085	17969
893.207	17977
893.33	17866
893.452	17805
893.575	17984
893.697	17821
893.819	17931
893.941	18117
894.064	18003
894.186	17752
894.308	17897
894.43	17950
894.552	18034
894.674	17942
894.796	17817
894.918	17973
895.04	17901
895.161	18041
895.283	17851
895.405	17828
895.526	17805
895.648	17923
895.769	17980
895.891	17878
896.012	18011
896.134	18060
896.255	17958
896.376	17901
896.498	17908
896.619	18022
896.74	17851
896.861	17946
896.982	18133
897.103	18346
897.224	18114
897.345	18194
897.466	18133
897.587	18064
897.708	18186
897.828	18125
897.949	18045
898.07	17996
898.19	18038
898.311	18209
898.431	17988
898.552	18163
898.672	18311
898.792	18228
898.913	18232
899.033	18095
899.153	17996
899.273	17828
899.393	17939
899.513	17961
899.633	18041
899.753	17882
899.873	17843
899.993	17927
900.113	17824
900.232	17950
900.352	17885
900.472	17836
900.591	17767
900.711	17897
900.83	17786
900.95	17851
901.069	17756
901.189	17703
901.308	17474
901.427	17341
901.546	17337
901.665	17280
901.784	17341
901.904	17261
902.023	17197
902.141	16965
902.26	16771
902.379	16957
902.498	16904
902.617	16790
902.735	16866
902.854	16824
902.973	16729
903.091	16683
903.21	16428
903.328	16493
903.446	16413
903.565	16322
903.683	16470
903.801	16234
903.919	16219
904.038	16276
904.156	16105
904.274	16261
904.392	16090
904.51	16029
904.627	16044
904.745	16124
904.863	16147
904.981	15892
905.098	15751
905.216	15705
905.334	15747
905.451	15827
905.569	15724
905.686	15736
905.803	15717
905.921	15530
906.038	15599
906.155	15500
906.272	15359
906.389	15420
906.506	15351
906.623	15256
906.74	15252
906.857	15214
906.974	15161
907.091	15233
907.208	15268
907.324	15389
907.441	15214
907.557	15077
907.674	14998
907.79	15001
907.907	14956
908.023	14963
908.139	14944
908.256	14815
908.372	14826
908.488	14788
908.604	14674
908.72	14575
908.836	14636
908.952	14568
909.068	14640
909.184	14800
909.3	14606
909.415	14697
909.531	14598
909.647	14324
909.762	14339
909.878	14358
909.993	14358
910.108	14358
910.224	14362
910.339	14377
910.454	14290
910.57	14202
910.685	14164
910.8	14427
910.915	14377
911.03	14191
911.145	14005
911.259	13967
911.374	13986
911.489	13986
911.604	13894
911.718	13746
911.833	13753
911.947	13757
912.062	13597
912.176	13738
912.291	13788
912.405	13830
912.519	13974
912.633	13917
912.748	13818
912.862	13811
912.976	13597
913.09	13521
913.204	13533
913.318	13556
913.431	13677
913.545	13639
913.659	13712
913.772	13518
913.886	13487
914	13487
914.113	13483
914.226	13616
914.34	13487
914.453	13350
914.566	13449
914.68	13384
914.793	13350
914.906	13122
915.019	13126
915.132	13034
915.245	13171
915.358	13126
915.47	13129
915.583	13133
915.696	13084
915.809	13236
915.921	13259
916.034	13107
916.146	12916
916.259	13015
916.371	13126
916.483	13053
916.595	13019
916.708	13046
916.82	13004
916.932	12958
917.044	13023
917.156	12924
917.268	12825
917.38	12844
917.491	12821
917.603	12856
917.715	12837
917.826	12882
917.938	12798
918.049	12730
918.161	12779
918.272	12875
918.384	12943
918.495	12753
918.606	12684
918.717	12555
918.828	12631
918.939	12620
919.05	12654
919.161	12601
919.272	12448
919.383	12506
919.494	12620
919.604	12821
919.715	12601
919.826	12479
919.936	12559
920.047	12563
920.157	12608
920.267	12730
920.378	12547
920.488	12502
920.598	12821
920.708	12764
920.818	12688
920.928	12707
921.038	12837
921.148	12886
921.258	12506
921.368	12445
921.477	12426
921.587	12422
921.697	12327
921.806	12399
921.916	12152
922.025	12007
922.134	12095
922.244	12015
922.353	12011
922.462	11908
922.571	11851
922.68	11764
922.789	11657
922.898	11741
923.007	11676
923.116	11771
923.224	11668
923.333	11604
923.442	11566
923.55	11547
923.659	11535
923.767	11623
923.876	11501
923.984	11554
924.092	11463
924.201	11623
924.309	11554
924.417	11414
924.525	11395
924.633	11436
924.741	12129
924.849	11307
924.956	11452
925.064	11273
925.172	11143
925.279	11181
925.387	11303
925.494	11231
925.602	11421
925.709	11326
925.816	11178
925.924	11292
926.031	11330
926.138	11143
926.245	11261
926.352	11162
926.459	11246
926.566	11334
926.673	11170
926.779	11083
926.886	11048
926.993	10900
927.099	10873
927.206	10793
927.312	10858
927.419	10881
927.525	10812
927.631	10885
927.737	10744
927.843	10816
927.95	10615
928.056	10698
928.162	10782
928.267	10793
928.373	11246
928.479	10790
928.585	10569
928.69	10729
928.796	10744
928.901	10706
929.007	10428
929.112	10550
929.218	10558
929.323	10519
929.428	10447
929.533	10538
929.638	10432
929.743	10413
929.848	10462
929.953	10462
930.058	10436
930.163	10211
930.267	10227
930.372	10352
930.477	10169
930.581	10478
930.685	10230
930.79	10120
930.894	10188
930.998	10093
931.103	10230
931.207	9892
931.311	9827
931.415	9804
931.519	9542
931.623	9553
