Data from test_V78500241_1921.txt Node
Date: Fri Mar 25 14:47:05 CST 2022
User: usil
Spectrometer: V785-0024
Trigger mode: 0
Integration Time (sec): 4.000000E-1
Scans to average: 1
Nonlinearity correction enabled: false
Boxcar width: 0
Storing dark spectrum: false
XAxis mode: Wavelengths
Number of Pixels in Spectrum: 1024
>>>>>Begin Spectral Data<<<<<
801.071	22097
801.214	22036
801.356	21724
801.499	21591
801.641	21622
801.783	21511
801.926	21507
802.068	21408
802.211	21287
802.353	21329
802.496	21131
802.638	21005
802.78	21047
802.923	20830
803.065	20796
803.208	20746
803.35	20720
803.492	20883
803.635	20891
803.777	20769
803.919	20982
804.061	21176
804.204	20861
804.346	20739
804.488	20830
804.63	20807
804.773	20670
804.915	20659
805.057	20788
805.199	20617
805.341	20891
805.483	20834
805.626	20933
805.768	20625
805.91	20811
806.052	20716
806.194	20686
806.336	20941
806.478	20708
806.62	20651
806.762	20838
806.904	20853
807.046	21207
807.188	20986
807.33	21074
807.472	21005
807.614	20868
807.756	20971
807.898	20769
808.04	20807
808.182	20785
808.324	20739
808.465	20788
808.607	21005
808.749	21055
808.891	21264
809.033	21226
809.174	21108
809.316	21062
809.458	20975
809.6	21001
809.741	21017
809.883	21165
810.025	21283
810.166	21317
810.308	21245
810.45	21123
810.591	21081
810.733	20960
810.875	20921
811.016	20743
811.158	20716
811.299	20891
811.441	20929
811.582	20921
811.724	20800
811.865	20804
812.007	20990
812.148	20910
812.29	20716
812.431	20944
812.573	21077
812.714	21203
812.855	21401
812.997	21462
813.138	21511
813.279	21485
813.421	21412
813.562	21405
813.703	21100
813.845	20929
813.986	20708
814.127	20621
814.268	20556
814.41	20484
814.551	20423
814.692	20423
814.833	20301
814.974	20290
815.115	20415
815.256	20229
815.397	20202
815.539	20176
815.68	20187
815.821	20027
815.962	20271
816.103	20073
816.244	19917
816.385	19852
816.526	19795
816.666	19750
816.807	19525
816.948	19613
817.089	19670
817.23	19643
817.371	19499
817.512	19693
817.653	19620
817.793	19529
817.934	19506
818.075	19605
818.216	19495
818.356	19521
818.497	19377
818.638	19206
818.778	19240
818.919	19255
819.06	19198
819.2	19362
819.341	19441
819.481	19422
819.622	19540
819.762	19799
819.903	19689
820.043	19624
820.184	19559
820.324	19411
820.465	19537
820.605	19480
820.746	19441
820.886	19453
821.026	19533
821.167	19495
821.307	19548
821.447	19419
821.588	19468
821.728	19164
821.868	18977
822.008	18993
822.149	18852
822.289	18821
822.429	18696
822.569	18544
822.709	18677
822.849	18589
822.99	18464
823.13	18369
823.27	18342
823.41	18209
823.55	18178
823.69	18220
823.83	18209
823.97	18273
824.11	18022
824.25	17939
824.389	18026
824.529	18167
824.669	17999
824.809	18034
824.949	18140
825.089	18003
825.228	18133
825.368	17767
825.508	17813
825.648	17847
825.787	17790
825.927	17927
826.067	17687
826.206	17779
826.346	17901
826.485	17809
826.625	17794
826.765	17897
826.904	17767
827.044	17562
827.183	17554
827.323	17410
827.462	17478
827.601	17535
827.741	17467
827.88	17596
828.02	17395
828.159	17524
828.298	17547
828.437	17615
828.577	17436
828.716	17668
828.855	17497
828.994	17284
829.134	17239
829.273	17315
829.412	17254
829.551	17212
829.69	17227
829.829	17166
829.968	17436
830.107	17345
830.246	17242
830.385	17216
830.524	17079
830.663	17067
830.802	16919
830.941	16873
831.08	16889
831.219	16953
831.357	16793
831.496	17071
831.635	16869
831.774	16744
831.913	16801
832.051	16512
832.19	16660
832.329	16729
832.467	16615
832.606	16485
832.744	16500
832.883	16573
833.022	16611
833.16	16565
833.299	16675
833.437	16622
833.576	16558
833.714	16599
833.852	16687
833.991	16645
834.129	16668
834.267	16717
834.406	16542
834.544	16630
834.682	16618
834.821	16603
834.959	16683
835.097	16554
835.235	16649
835.373	16634
835.511	16561
835.65	16542
835.788	16611
835.926	16379
836.064	16299
836.202	16310
836.34	16512
836.478	16558
836.615	16531
836.753	16554
836.891	16611
837.029	16622
837.167	16443
837.305	16489
837.443	16481
837.58	16394
837.718	16443
837.856	16390
837.993	16390
838.131	16352
838.269	16337
838.406	16382
838.544	16310
838.681	16040
838.819	16090
838.956	15972
839.094	16021
839.231	16048
839.369	16086
839.506	16386
839.643	16188
839.781	15968
839.918	15880
840.055	15960
840.193	16013
840.33	15949
840.467	15930
840.604	16013
840.742	16158
840.879	15869
841.016	15865
841.153	15945
841.29	16036
841.427	16059
841.564	16048
841.701	16010
841.838	15880
841.975	15857
842.112	15823
842.249	15762
842.385	15728
842.522	15945
842.659	15728
842.796	15762
842.933	15739
843.069	15732
843.206	15705
843.343	15736
843.479	15739
843.616	15778
843.752	15580
843.889	15485
844.025	15599
844.162	15458
844.298	15587
844.435	15477
844.571	15504
844.708	15545
844.844	15713
844.98	15682
845.117	15637
845.253	15507
845.389	15458
845.525	15534
845.661	15473
845.798	15367
845.934	15332
846.07	15321
846.206	15264
846.342	15469
846.478	15336
846.614	15184
846.75	15001
846.886	15051
847.022	15165
847.158	15036
847.294	15108
847.429	15112
847.565	15093
847.701	15306
847.837	14880
847.972	14845
848.108	14967
848.244	14876
848.379	14697
848.515	14693
848.65	14625
848.786	14708
848.921	14716
849.057	14823
849.192	14777
849.328	14712
849.463	14758
849.598	14667
849.734	14648
849.869	14598
850.004	14511
850.14	14507
850.275	14480
850.41	14351
850.545	14408
850.68	14442
850.815	14450
850.95	14370
851.085	14712
851.22	14503
851.355	14473
851.49	14480
851.625	14336
851.76	14412
851.895	14423
852.03	14298
852.165	14518
852.299	14522
852.434	14511
852.569	14457
852.703	14564
852.838	14602
852.973	14617
853.107	14610
853.242	14393
853.376	14381
853.511	14252
853.645	14313
853.78	14450
853.914	14313
854.048	14286
854.183	14214
854.317	14404
854.451	14484
854.585	14385
854.72	14278
854.854	14366
854.988	14358
855.122	14366
855.256	14153
855.39	14320
855.524	14393
855.658	14381
855.792	14351
855.926	14412
856.06	14461
856.194	14503
856.327	14343
856.461	14385
856.595	14282
856.729	14370
856.862	14385
856.996	14381
857.13	14393
857.263	14393
857.397	14492
857.53	14400
857.664	14450
857.797	14476
857.931	14385
858.064	14377
858.197	14438
858.331	14343
858.464	14324
858.597	14233
858.731	14320
858.864	14343
858.997	14252
859.13	14324
859.263	14404
859.396	14374
859.529	14332
859.662	14305
859.795	14294
859.928	14317
860.061	14518
860.194	14514
860.327	14400
860.46	14294
860.592	14450
860.725	14484
860.858	14446
860.99	14393
861.123	14252
861.256	14271
861.388	14351
861.521	14982
861.653	14244
861.786	14065
861.918	14183
862.05	14275
862.183	14218
862.315	14381
862.447	14408
862.58	14256
862.712	14157
862.844	14054
862.976	14096
863.108	14221
863.24	14438
863.372	14111
863.504	14176
863.636	14058
863.768	14115
863.9	14138
864.032	14001
864.164	14142
864.296	14123
864.428	14244
864.559	14263
864.691	14229
864.823	14149
864.954	14130
865.086	14142
865.217	14157
865.349	14008
865.48	14103
865.612	14100
865.743	14157
865.875	14005
866.006	14069
866.137	14130
866.269	14008
866.4	14035
866.531	14123
866.662	14077
866.793	14096
866.924	14001
867.055	14077
867.186	14096
867.317	14008
867.448	14050
867.579	14065
867.71	14054
867.841	13947
867.972	14050
868.103	14111
868.233	14069
868.364	14142
868.495	14195
868.625	14339
868.756	14454
868.886	14214
869.017	14317
869.147	14423
869.278	14431
869.408	14408
869.539	14309
869.669	14412
869.799	14320
869.929	14545
870.06	14419
870.19	14674
870.32	14705
870.45	14689
870.58	14765
870.71	14823
870.84	14861
870.97	14754
871.1	14750
871.23	14986
871.36	14853
871.489	14826
871.619	14975
871.749	14845
871.879	14944
872.008	15085
872.138	14883
872.267	14906
872.397	14849
872.526	14823
872.656	14804
872.785	14861
872.915	15051
873.044	15036
873.173	15039
873.303	15032
873.432	14956
873.561	15047
873.69	15001
873.819	14956
873.948	15131
874.077	14975
874.206	15051
874.335	15009
874.464	15112
874.593	15325
874.722	15192
874.851	15287
874.979	15359
875.108	15367
875.237	15367
875.365	15161
875.494	15279
875.623	15374
875.751	15310
875.88	15351
876.008	15412
876.136	15553
876.265	15667
876.393	15838
876.521	15827
876.65	15793
876.778	15789
876.906	15755
877.034	15713
877.162	15728
877.29	15713
877.418	15720
877.546	15759
877.674	15701
877.802	15785
877.93	15698
878.058	15622
878.185	15603
878.313	15751
878.441	15797
878.568	15633
878.696	15572
878.824	15766
878.951	15838
879.079	15831
879.206	16029
879.333	15888
879.461	15804
879.588	15850
879.715	15816
879.842	15998
879.97	15789
880.097	15477
880.224	15515
880.351	15622
880.478	15557
880.605	15500
880.732	15595
880.859	15755
880.986	15614
881.112	15568
881.239	15439
881.366	15386
881.493	15237
881.619	15211
881.746	15249
881.872	15245
881.999	15260
882.125	15211
882.252	15233
882.378	15329
882.505	15291
882.631	15169
882.757	15085
882.883	15142
883.01	15047
883.136	14960
883.262	14864
883.388	14975
883.514	15093
883.64	15161
883.766	15028
883.892	14781
884.018	14895
884.143	15070
884.269	15100
884.395	14750
884.52	14648
884.646	14845
884.772	14678
884.897	14640
885.023	14845
885.148	14785
885.274	14849
885.399	14861
885.524	14712
885.65	14758
885.775	14769
885.9	14750
886.025	14815
886.15	14880
886.275	14727
886.4	14598
886.525	14762
886.65	14674
886.775	14583
886.9	14883
887.025	14963
887.149	14716
887.274	14629
887.399	14575
887.523	14625
887.648	14488
887.773	14450
887.897	14613
888.021	14735
888.146	14587
888.27	14621
888.395	14765
888.519	14610
888.643	14663
888.767	14549
888.891	14431
889.015	14454
889.139	14495
889.263	14503
889.387	14587
889.511	14705
889.635	14503
889.759	14419
889.883	14457
890.006	14400
890.13	14564
890.254	14355
890.377	14336
890.501	14218
890.624	14206
890.748	14328
890.871	14240
890.995	14054
891.118	14073
891.241	14115
891.364	14172
891.488	14240
891.611	14138
891.734	14073
891.857	14138
891.98	14145
892.103	14210
892.226	14195
892.349	14111
892.471	14062
892.594	13967
892.717	14119
892.839	14187
892.962	14058
893.085	14145
893.207	14221
893.33	14046
893.452	14024
893.575	14225
893.697	14168
893.819	14309
893.941	14328
894.064	14225
894.186	14172
894.308	14096
894.43	14282
894.552	14328
894.674	14309
894.796	14149
894.918	14195
895.04	14214
895.161	14301
895.283	14237
895.405	14115
895.526	14206
895.648	14210
895.769	14237
895.891	14313
896.012	14298
896.134	14267
896.255	14210
896.376	14328
896.498	14282
896.619	14271
896.74	14290
896.861	14370
896.982	14648
897.103	14800
897.224	14610
897.345	14518
897.466	14511
897.587	14549
897.708	14682
897.828	14617
897.949	14549
898.07	14454
898.19	14499
898.311	14648
898.431	14549
898.552	14682
898.672	14682
898.792	14686
898.913	14655
899.033	14499
899.153	14457
899.273	14320
899.393	14484
899.513	14579
899.633	14461
899.753	14476
899.873	14377
899.993	14610
900.113	14442
900.232	14469
900.352	14507
900.472	14332
900.591	14393
900.711	14343
900.83	14396
900.95	14476
901.069	14469
901.189	14381
901.308	14202
901.427	14050
901.546	14081
901.665	14111
901.784	14096
901.904	13871
902.023	13837
902.141	13696
902.26	13521
902.379	13685
902.498	13578
902.617	13529
902.735	13613
902.854	13533
902.973	13510
903.091	13350
903.21	13308
903.328	13304
903.446	13327
903.565	13091
903.683	13194
903.801	13152
903.919	13160
904.038	13110
904.156	12989
904.274	13008
904.392	12951
904.51	12966
904.627	12981
904.745	13023
904.863	13160
904.981	12852
905.098	12703
905.216	12681
905.334	12730
905.451	12608
905.569	12639
905.686	12662
905.803	12669
905.921	12490
906.038	12570
906.155	12525
906.272	12479
906.389	12395
906.506	12243
906.623	12277
906.74	12232
906.857	12121
906.974	12190
907.091	12273
907.208	12403
907.324	12342
907.441	12194
907.557	12110
907.674	11996
907.79	11920
907.907	11920
908.023	12045
908.139	12140
908.256	12011
908.372	11863
908.488	11859
908.604	11828
908.72	11767
908.836	11798
908.952	11726
909.068	11790
909.184	11920
909.3	11779
909.415	11809
909.531	11779
909.647	11611
909.762	11608
909.878	11535
909.993	11592
910.108	11539
910.224	11547
910.339	11547
910.454	11490
910.57	11421
910.685	11334
910.8	11608
910.915	11558
911.03	11482
911.145	11227
911.259	11231
911.374	11261
911.489	11204
911.604	11105
911.718	11048
911.833	11033
911.947	10877
912.062	10835
912.176	10999
912.291	10976
912.405	11022
912.519	11102
912.633	11151
912.748	11010
912.862	11029
912.976	10850
913.09	10782
913.204	10805
913.318	10930
913.431	11052
913.545	10919
913.659	11041
913.772	10790
913.886	10778
914	10786
914.113	10938
914.226	10923
914.34	10835
914.453	10626
914.566	10881
914.68	10630
914.793	10675
914.906	10592
915.019	10531
915.132	10447
915.245	10504
915.358	10527
915.47	10641
915.583	10504
915.696	10618
915.809	10630
915.921	10668
916.034	10478
916.146	10466
916.259	10459
916.371	10436
916.483	10527
916.595	10470
916.708	10500
916.82	10379
916.932	10424
917.044	10443
917.156	10394
917.268	10375
917.38	10417
917.491	10303
917.603	10367
917.715	10489
917.826	10382
917.938	10333
918.049	10185
918.161	10325
918.272	10402
918.384	10519
918.495	10310
918.606	10158
918.717	10223
918.828	10253
918.939	10238
919.05	10207
919.161	10181
919.272	10032
919.383	10074
919.494	10284
919.604	10443
919.715	10261
919.826	10135
919.936	10234
920.047	10344
920.157	10253
920.267	10409
920.378	10287
920.488	10181
920.598	10394
920.708	10565
920.818	10413
920.928	10417
921.038	10596
921.148	10504
921.258	10295
921.368	10147
921.477	10135
921.587	10120
921.697	9979
921.806	10124
921.916	9953
922.025	9861
922.134	9827
922.244	9819
922.353	9842
922.462	9709
922.571	9572
922.68	9485
922.789	9431
922.898	9519
923.007	9405
923.116	9625
923.224	9481
923.333	9511
923.442	9401
923.55	9393
923.659	9355
923.767	9408
923.876	9279
923.984	9408
924.092	9313
924.201	9401
924.309	9439
924.417	9348
924.525	9287
924.633	9344
924.741	10303
924.849	9089
924.956	9325
925.064	9085
925.172	9013
925.279	9119
925.387	9184
925.494	9154
925.602	9279
925.709	9195
925.816	9043
925.924	9146
926.031	9207
926.138	9146
926.245	9222
926.352	9093
926.459	9264
926.566	9230
926.673	9070
926.779	8986
926.886	9024
926.993	8895
927.099	8929
927.206	8807
927.312	8842
927.419	8872
927.525	8872
927.631	8960
927.737	8762
927.843	8800
927.95	8708
928.056	8739
928.162	8750
928.267	8800
928.373	9378
928.479	8845
928.585	8602
928.69	8651
928.796	8766
928.901	8651
929.007	8579
929.112	8743
929.218	8636
929.323	8594
929.428	8568
929.533	8697
929.638	8457
929.743	8583
929.848	8590
929.953	8537
930.058	8465
930.163	8347
930.267	8279
930.372	8465
930.477	8313
930.581	8610
930.685	8412
930.79	8256
930.894	8301
930.998	8275
931.103	8427
931.207	8065
931.311	7955
931.415	7955
931.519	7803
931.623	7799
