Data from test_V78500241_2965.txt Node
Date: Fri Mar 25 14:54:21 CST 2022
User: usil
Spectrometer: V785-0024
Trigger mode: 0
Integration Time (sec): 4.000000E-1
Scans to average: 1
Nonlinearity correction enabled: false
Boxcar width: 0
Storing dark spectrum: false
XAxis mode: Wavelengths
Number of Pixels in Spectrum: 1024
>>>>>Begin Spectral Data<<<<<
801.071	22059
801.214	21975
801.356	21736
801.499	21705
801.641	21496
801.783	21416
801.926	21439
802.068	21378
802.211	21268
802.353	21344
802.496	20960
802.638	21043
802.78	20960
802.923	20792
803.065	20724
803.208	20758
803.35	20902
803.492	20819
803.635	20941
803.777	20830
803.919	20796
804.061	21131
804.204	20796
804.346	20712
804.488	20492
804.63	20724
804.773	20644
804.915	20716
805.057	20937
805.199	20826
805.341	20754
805.483	20720
805.626	20697
805.768	20720
805.91	20644
806.052	20648
806.194	20689
806.336	20716
806.478	20621
806.62	20587
806.762	20807
806.904	20861
807.046	21142
807.188	21005
807.33	21047
807.472	21142
807.614	20921
807.756	20956
807.898	20826
808.04	20838
808.182	20861
808.324	20777
808.465	20731
808.607	20845
808.749	21089
808.891	21252
809.033	21313
809.174	21062
809.316	21062
809.458	20998
809.6	21108
809.741	21112
809.883	21066
810.025	21294
810.166	21214
810.308	21150
810.45	21294
810.591	21112
810.733	21009
810.875	20921
811.016	20857
811.158	20648
811.299	21051
811.441	20979
811.582	21047
811.724	20792
811.865	20724
812.007	20868
812.148	20899
812.29	20899
812.431	20925
812.573	21138
812.714	21161
812.855	21256
812.997	21397
813.138	21580
813.279	21454
813.421	21496
813.562	21195
813.703	21058
813.845	21013
813.986	20716
814.127	20495
814.268	20503
814.41	20431
814.551	20423
814.692	20503
814.833	20305
814.974	20377
815.115	20290
815.256	20218
815.397	20271
815.539	20275
815.68	20149
815.821	20065
815.962	20183
816.103	20122
816.244	19970
816.385	19818
816.526	19803
816.666	19685
816.807	19491
816.948	19651
817.089	19609
817.23	19548
817.371	19544
817.512	19499
817.653	19449
817.793	19590
817.934	19540
818.075	19521
818.216	19548
818.356	19449
818.497	19266
818.638	19129
818.778	19213
818.919	19213
819.06	19400
819.2	19400
819.341	19438
819.481	19472
819.622	19518
819.762	19814
819.903	19628
820.043	19487
820.184	19491
820.324	19480
820.465	19590
820.605	19476
820.746	19388
820.886	19388
821.026	19472
821.167	19396
821.307	19567
821.447	19472
821.588	19304
821.728	19099
821.868	19107
822.008	18916
822.149	18939
822.289	18856
822.429	18654
822.569	18642
822.709	18570
822.849	18338
822.99	18399
823.13	18376
823.27	18319
823.41	18262
823.55	18129
823.69	18330
823.83	18292
823.97	18205
824.11	17885
824.25	18011
824.389	17999
824.529	17973
824.669	17942
824.809	18072
824.949	18053
825.089	18011
825.228	17980
825.368	17748
825.508	17722
825.648	17672
825.787	17805
825.927	17745
826.067	17699
826.206	17703
826.346	17851
826.485	17710
826.625	17771
826.765	17805
826.904	17710
827.044	17554
827.183	17395
827.323	17353
827.462	17410
827.601	17398
827.741	17334
827.88	17436
828.02	17322
828.159	17296
828.298	17379
828.437	17440
828.577	17395
828.716	17646
828.855	17322
828.994	17174
829.134	17212
829.273	17216
829.412	17200
829.551	17189
829.69	17128
829.829	17277
829.968	17246
830.107	17242
830.246	17121
830.385	17105
830.524	17037
830.663	17121
830.802	16984
830.941	16736
831.08	16835
831.219	16896
831.357	16854
831.496	16957
831.635	16778
831.774	16736
831.913	16668
832.051	16519
832.19	16611
832.329	16542
832.467	16413
832.606	16428
832.744	16371
832.883	16440
833.022	16413
833.16	16508
833.299	16443
833.437	16531
833.576	16531
833.714	16497
833.852	16577
833.991	16474
834.129	16649
834.267	16584
834.406	16523
834.544	16546
834.682	16493
834.821	16485
834.959	16710
835.097	16440
835.235	16611
835.373	16523
835.511	16542
835.65	16390
835.788	16432
835.926	16310
836.064	16185
836.202	16310
836.34	16508
836.478	16561
836.615	16382
836.753	16314
836.891	16573
837.029	16443
837.167	16413
837.305	16295
837.443	16291
837.58	16299
837.718	16417
837.856	16310
837.993	16242
838.131	16272
838.269	16268
838.406	16226
838.544	16249
838.681	16051
838.819	15972
838.956	15857
839.094	15759
839.231	15953
839.369	15975
839.506	16238
839.643	16086
839.781	15831
839.918	15869
840.055	15797
840.193	15819
840.33	15797
840.467	15911
840.604	15892
840.742	16074
840.879	15717
841.016	15808
841.153	15751
841.29	16006
841.427	15865
841.564	15861
841.701	15785
841.838	15713
841.975	15675
842.112	15755
842.249	15641
842.385	15587
842.522	15804
842.659	15564
842.796	15644
842.933	15629
843.069	15618
843.206	15473
843.343	15644
843.479	15595
843.616	15572
843.752	15439
843.889	15393
844.025	15511
844.162	15340
844.298	15500
844.435	15374
844.571	15241
844.708	15420
844.844	15652
844.98	15564
845.117	15526
845.253	15393
845.389	15272
845.525	15241
845.661	15275
845.798	15180
845.934	15233
846.07	15195
846.206	15218
846.342	15275
846.478	15218
846.614	15020
846.75	14948
846.886	14952
847.022	15070
847.158	15005
847.294	14952
847.429	15043
847.565	14971
847.701	15116
847.837	14785
847.972	14678
848.108	14758
848.244	14796
848.379	14667
848.515	14564
848.65	14461
848.786	14575
848.921	14571
849.057	14689
849.192	14689
849.328	14598
849.463	14541
849.598	14583
849.734	14488
849.869	14511
850.004	14381
850.14	14271
850.275	14305
850.41	14290
850.545	14267
850.68	14248
850.815	14294
850.95	14256
851.085	14465
851.22	14530
851.355	14415
851.49	14332
851.625	14286
851.76	14275
851.895	14225
852.03	14119
852.165	14278
852.299	14320
852.434	14427
852.569	14332
852.703	14328
852.838	14332
852.973	14552
853.107	14434
853.242	14275
853.376	14172
853.511	14046
853.645	14191
853.78	14286
853.914	14210
854.048	14157
854.183	14187
854.317	14206
854.451	14339
854.585	14263
854.72	14149
854.854	14206
854.988	14130
855.122	14157
855.256	14012
855.39	14225
855.524	14237
855.658	14202
855.792	14237
855.926	14214
856.06	14271
856.194	14275
856.327	14210
856.461	14115
856.595	14164
856.729	14191
856.862	14389
856.996	14275
857.13	14248
857.263	14275
857.397	14294
857.53	14225
857.664	14172
857.797	14225
857.931	14248
858.064	14225
858.197	14290
858.331	14130
858.464	14199
858.597	14115
858.731	14187
858.864	14157
858.997	14153
859.13	14229
859.263	14252
859.396	14290
859.529	14157
859.662	14130
859.795	14115
859.928	14176
860.061	14370
860.194	14454
860.327	14153
860.46	14278
860.592	14347
860.725	14256
860.858	14256
860.99	14199
861.123	14145
861.256	14138
861.388	14050
861.521	14834
861.653	14119
861.786	14058
861.918	14058
862.05	14138
862.183	14111
862.315	14183
862.447	14153
862.58	14103
862.712	14073
862.844	13906
862.976	14005
863.108	13925
863.24	14282
863.372	13868
863.504	13944
863.636	13989
863.768	14008
863.9	14031
864.032	13871
864.164	13974
864.296	13982
864.428	14100
864.559	14084
864.691	14016
864.823	13993
864.954	14035
865.086	14065
865.217	13959
865.349	13879
865.48	13902
865.612	14005
865.743	14073
865.875	14050
866.006	13951
866.137	13993
866.269	14001
866.4	13974
866.531	13909
866.662	13993
866.793	13887
866.924	13833
867.055	13978
867.186	13951
867.317	13856
867.448	13868
867.579	13852
867.71	13875
867.841	13841
867.972	13967
868.103	13993
868.233	14020
868.364	13944
868.495	14084
868.625	14176
868.756	14290
868.886	14145
869.017	14149
869.147	14259
869.278	14267
869.408	14168
869.539	14355
869.669	14252
869.799	14210
869.929	14332
870.06	14404
870.19	14511
870.32	14602
870.45	14560
870.58	14594
870.71	14670
870.84	14777
870.97	14602
871.1	14518
871.23	14826
871.36	14769
871.489	14792
871.619	14830
871.749	14830
871.879	14785
872.008	14933
872.138	14857
872.267	14785
872.397	14743
872.526	14583
872.656	14712
872.785	14621
872.915	14826
873.044	15062
873.173	14868
873.303	14948
873.432	14933
873.561	14910
873.69	14891
873.819	14826
873.948	14880
874.077	14830
874.206	14880
874.335	14914
874.464	14925
874.593	15104
874.722	15119
874.851	15127
874.979	15184
875.108	15241
875.237	15142
875.365	15119
875.494	15066
875.623	15252
875.751	15180
875.88	15199
876.008	15359
876.136	15443
876.265	15610
876.393	15641
876.521	15679
876.65	15698
876.778	15591
876.906	15485
877.034	15576
877.162	15557
877.29	15485
877.418	15671
877.546	15644
877.674	15671
877.802	15530
877.93	15618
878.058	15496
878.185	15443
878.313	15576
878.441	15534
878.568	15492
878.696	15591
878.824	15564
878.951	15633
879.079	15781
879.206	15972
879.333	15759
879.461	15599
879.588	15751
879.715	15701
879.842	15857
879.97	15652
880.097	15431
880.224	15458
880.351	15485
880.478	15408
880.605	15386
880.732	15469
880.859	15686
880.986	15416
881.112	15466
881.239	15275
881.366	15241
881.493	15112
881.619	15028
881.746	15047
881.872	15074
881.999	15024
882.125	15077
882.252	15089
882.378	15100
882.505	15207
882.631	15036
882.757	14864
882.883	15005
883.01	14921
883.136	14842
883.262	14720
883.388	14868
883.514	14948
883.64	15001
883.766	14826
883.892	14686
884.018	14739
884.143	14861
884.269	14971
884.395	14663
884.52	14632
884.646	14606
884.772	14549
884.897	14530
885.023	14571
885.148	14746
885.274	14754
885.399	14686
885.524	14663
885.65	14606
885.775	14678
885.9	14564
886.025	14735
886.15	14648
886.275	14598
886.4	14442
886.525	14598
886.65	14533
886.775	14610
886.9	14670
887.025	14819
887.149	14632
887.274	14465
887.399	14332
887.523	14423
887.648	14343
887.773	14434
887.897	14488
888.021	14571
888.146	14385
888.27	14537
888.395	14613
888.519	14507
888.643	14530
888.767	14526
888.891	14454
889.015	14244
889.139	14366
889.263	14233
889.387	14434
889.511	14602
889.635	14324
889.759	14244
889.883	14225
890.006	14374
890.13	14377
890.254	14275
890.377	14298
890.501	14153
890.624	14126
890.748	14119
890.871	14119
890.995	13921
891.118	14050
891.241	13997
891.364	14012
891.488	14081
891.611	13955
891.734	13997
891.857	14092
891.98	13955
892.103	14176
892.226	14134
892.349	14081
892.471	13898
892.594	13982
892.717	13978
892.839	13997
892.962	14062
893.085	14111
893.207	14054
893.33	13917
893.452	13989
893.575	14077
893.697	14020
893.819	14142
893.941	14225
894.064	14111
894.186	13921
894.308	13970
894.43	14062
894.552	14237
894.674	14206
894.796	14024
894.918	14024
895.04	14039
895.161	14195
895.283	14115
895.405	14077
895.526	14149
895.648	14134
895.769	14240
895.891	14164
896.012	14256
896.134	14305
896.255	14210
896.376	14183
896.498	14252
896.619	14267
896.74	14271
896.861	14313
896.982	14526
897.103	14625
897.224	14549
897.345	14492
897.466	14431
897.587	14393
897.708	14560
897.828	14526
897.949	14320
898.07	14339
898.19	14366
898.311	14613
898.431	14514
898.552	14552
898.672	14610
898.792	14617
898.913	14648
899.033	14495
899.153	14366
899.273	14244
899.393	14465
899.513	14438
899.633	14431
899.753	14465
899.873	14332
899.993	14389
900.113	14313
900.232	14309
900.352	14412
900.472	14347
900.591	14191
900.711	14252
900.83	14237
900.95	14396
901.069	14320
901.189	14256
901.308	13989
901.427	13894
901.546	13963
901.665	13913
901.784	14016
901.904	13780
902.023	13746
902.141	13514
902.26	13441
902.379	13521
902.498	13502
902.617	13559
902.735	13521
902.854	13510
902.973	13343
903.091	13293
903.21	13213
903.328	13232
903.446	13255
903.565	13152
903.683	13110
903.801	12981
903.919	13050
904.038	12935
904.156	12966
904.274	12939
904.392	12913
904.51	12913
904.627	12890
904.745	12913
904.863	12928
904.981	12669
905.098	12547
905.216	12570
905.334	12620
905.451	12608
905.569	12559
905.686	12536
905.803	12604
905.921	12471
906.038	12460
906.155	12452
906.272	12365
906.389	12369
906.506	12178
906.623	12216
906.74	12117
906.857	12117
906.974	12087
907.091	12251
907.208	12209
907.324	12190
907.441	12034
907.557	11984
907.674	11882
907.79	11885
907.907	11893
908.023	11889
908.139	11988
908.256	11874
908.372	11958
908.488	11874
908.604	11661
908.72	11684
908.836	11680
908.952	11585
909.068	11691
909.184	11786
909.3	11570
909.415	11764
909.531	11767
909.647	11463
909.762	11421
909.878	11433
909.993	11505
910.108	11486
910.224	11429
910.339	11440
910.454	11341
910.57	11242
910.685	11181
910.8	11539
910.915	11448
911.03	11341
911.145	11204
911.259	11201
911.374	11193
911.489	11098
911.604	11025
911.718	10915
911.833	10949
911.947	10793
912.062	10824
912.176	10953
912.291	10835
912.405	10934
912.519	11045
912.633	11121
912.748	11003
912.862	10877
912.976	10831
913.09	10691
913.204	10755
913.318	10805
913.431	10900
913.545	10869
913.659	10877
913.772	10881
913.886	10721
914	10710
914.113	10714
914.226	10812
914.34	10721
914.453	10672
914.566	10714
914.68	10622
914.793	10546
914.906	10405
915.019	10379
915.132	10386
915.245	10367
915.358	10421
915.47	10440
915.583	10432
915.696	10489
915.809	10660
915.921	10607
916.034	10398
916.146	10333
916.259	10424
916.371	10440
916.483	10470
916.595	10348
916.708	10356
916.82	10436
916.932	10341
917.044	10398
917.156	10341
917.268	10246
917.38	10287
917.491	10200
917.603	10379
917.715	10421
917.826	10367
917.938	10299
918.049	10158
918.161	10348
918.272	10390
918.384	10402
918.495	10363
918.606	10211
918.717	10021
918.828	10188
918.939	10246
919.05	10067
919.161	10143
919.272	10010
919.383	10101
919.494	10299
919.604	10390
919.715	10207
919.826	10200
919.936	10158
920.047	10322
920.157	10135
920.267	10421
920.378	10265
920.488	10196
920.598	10409
920.708	10573
920.818	10455
920.928	10417
921.038	10630
921.148	10500
921.258	10257
921.368	10154
921.477	10013
921.587	10036
921.697	9983
921.806	10082
921.916	9979
922.025	9770
922.134	9728
922.244	9770
922.353	9823
922.462	9686
922.571	9603
922.68	9488
922.789	9447
922.898	9500
923.007	9443
923.116	9469
923.224	9500
923.333	9397
923.442	9306
923.55	9313
923.659	9344
923.767	9374
923.876	9332
923.984	9496
924.092	9195
924.201	9306
924.309	9325
924.417	9329
924.525	9275
924.633	9268
924.741	10223
924.849	9157
924.956	9260
925.064	9097
925.172	9032
925.279	9047
925.387	9112
925.494	9131
925.602	9253
925.709	9188
925.816	9036
925.924	9173
926.031	9192
926.138	9173
926.245	9192
926.352	9043
926.459	9142
926.566	9222
926.673	9135
926.779	9028
926.886	8918
926.993	8876
927.099	8826
927.206	8724
927.312	8785
927.419	8872
927.525	8861
927.631	8834
927.737	8724
927.843	8727
927.95	8625
928.056	8663
928.162	8708
928.267	8815
928.373	9348
928.479	8800
928.585	8587
928.69	8788
928.796	8758
928.901	8606
929.007	8507
929.112	8632
929.218	8636
929.323	8598
929.428	8522
929.533	8701
929.638	8522
929.743	8499
929.848	8613
929.953	8454
930.058	8446
930.163	8358
930.267	8336
930.372	8484
930.477	8221
930.581	8594
930.685	8328
930.79	8259
930.894	8324
930.998	8225
931.103	8381
931.207	8016
931.311	7955
931.415	7921
931.519	7753
931.623	7765
