Data from test_V78500241_730.txt Node
Date: Fri Mar 25 14:38:48 CST 2022
User: usil
Spectrometer: V785-0024
Trigger mode: 0
Integration Time (sec): 4.000000E-1
Scans to average: 1
Nonlinearity correction enabled: false
Boxcar width: 0
Storing dark spectrum: false
XAxis mode: Wavelengths
Number of Pixels in Spectrum: 1024
>>>>>Begin Spectral Data<<<<<
801.071	27534
801.214	27370
801.356	27131
801.499	26963
801.641	26963
801.783	26697
801.926	26819
802.068	26872
802.211	26727
802.353	26613
802.496	26503
802.638	26404
802.78	26427
802.923	26301
803.065	26332
803.208	26294
803.35	26282
803.492	26434
803.635	26541
803.777	26499
803.919	26556
804.061	26743
804.204	26674
804.346	26537
804.488	26537
804.63	26488
804.773	26526
804.915	26735
805.057	26891
805.199	26785
805.341	27017
805.483	27039
805.626	27180
805.768	27085
805.91	27279
806.052	27412
806.194	27298
806.336	27797
806.478	27895
806.62	28013
806.762	28128
806.904	28687
807.046	29334
807.188	29604
807.33	30011
807.472	30639
807.614	31350
807.756	32313
807.898	33374
808.04	35098
808.182	37126
808.324	39793
808.465	42916
808.607	46265
808.749	49449
808.891	51119
809.033	51431
809.174	49769
809.316	46683
809.458	43179
809.6	39466
809.741	36890
809.883	34478
810.025	32940
810.166	31719
810.308	30909
810.45	30243
810.591	29657
810.733	29056
810.875	28717
811.016	28257
811.158	28040
811.299	28063
811.441	28029
811.582	27979
811.724	27599
811.865	27488
812.007	27260
812.148	27211
812.29	27161
812.431	27336
812.573	27321
812.714	27469
812.855	27386
812.997	27477
813.138	27614
813.279	27496
813.421	27321
813.562	27154
813.703	27058
813.845	26754
813.986	26533
814.127	26275
814.268	26058
814.41	26001
814.551	25986
814.692	26103
814.833	25982
814.974	25875
815.115	25993
815.256	25841
815.397	25704
815.539	25776
815.68	25632
815.821	25544
815.962	25544
816.103	25533
816.244	25339
816.385	25320
816.526	25301
816.666	24943
816.807	24966
816.948	25099
817.089	24954
817.23	24814
817.371	24791
817.512	24840
817.653	24837
817.793	24787
817.934	24764
818.075	24726
818.216	24779
818.356	24700
818.497	24532
818.638	24437
818.778	24456
818.919	24437
819.06	24330
819.2	24563
819.341	24734
819.481	24585
819.622	24852
819.762	24859
819.903	24913
820.043	24924
820.184	24612
820.324	24578
820.465	24585
820.605	24612
820.746	24566
820.886	24407
821.026	24437
821.167	24380
821.307	24589
821.447	24372
821.588	24281
821.728	24129
821.868	24072
822.008	23878
822.149	23912
822.289	23771
822.429	23570
822.569	23600
822.709	23436
822.849	23330
822.99	23292
823.13	23303
823.27	23220
823.41	22965
823.55	22980
823.69	23143
823.83	23109
823.97	22923
824.11	22953
824.25	22843
824.389	22835
824.529	22957
824.669	22892
824.809	22946
824.949	23029
825.089	22949
825.228	22691
825.368	22626
825.508	22634
825.648	22664
825.787	22664
825.927	22694
826.067	22607
826.206	22519
826.346	22694
826.485	22691
826.625	22592
826.765	22740
826.904	22653
827.044	22363
827.183	22447
827.323	22246
827.462	22402
827.601	22242
827.741	22291
827.88	22337
828.02	22070
828.159	22230
828.298	22238
828.437	22207
828.577	22158
828.716	22253
828.855	22207
828.994	21888
829.134	22048
829.273	21934
829.412	21838
829.551	21903
829.69	21987
829.829	22032
829.968	21895
830.107	21960
830.246	21960
830.385	21846
830.524	21789
830.663	21720
830.802	21542
830.941	21580
831.08	21416
831.219	21557
831.357	21641
831.496	21682
831.635	21515
831.774	21473
831.913	21416
832.051	21450
832.19	21378
832.329	21583
832.467	21488
832.606	21279
832.744	21431
832.883	21500
833.022	21568
833.16	21511
833.299	21804
833.437	21854
833.576	22082
833.714	22226
833.852	22485
833.991	22557
834.129	22637
834.267	22626
834.406	22542
834.544	22550
834.682	22314
834.821	22082
834.959	22238
835.097	21800
835.235	21838
835.373	21663
835.511	21614
835.65	21363
835.788	21378
835.926	21188
836.064	21062
836.202	21108
836.34	21237
836.478	21294
836.615	21036
836.753	21188
836.891	21131
837.029	21062
837.167	20902
837.305	20895
837.443	20842
837.58	20807
837.718	21005
837.856	20834
837.993	20800
838.131	20891
838.269	20777
838.406	20853
838.544	20644
838.681	20488
838.819	20522
838.956	20343
839.094	20225
839.231	20339
839.369	20351
839.506	20617
839.643	20659
839.781	20157
839.918	20240
840.055	20225
840.193	20370
840.33	20240
840.467	20267
840.604	20396
840.742	20511
840.879	20134
841.016	20161
841.153	20187
841.29	20358
841.427	20240
841.564	20256
841.701	20271
841.838	20267
841.975	20180
842.112	20206
842.249	20100
842.385	19967
842.522	20271
842.659	20134
842.796	20069
842.933	20115
843.069	20016
843.206	20138
843.343	20320
843.479	20191
843.616	20309
843.752	19993
843.889	20271
844.025	20389
844.162	20145
844.298	20473
844.435	20590
844.571	20564
844.708	21013
844.844	21564
844.98	22021
845.117	22660
845.253	23737
845.389	25537
845.525	29322
845.661	35630
845.798	42741
845.934	48011
846.07	49925
846.206	48395
846.342	43228
846.478	36155
846.614	30140
846.75	26164
846.886	23600
847.022	22436
847.158	21504
847.294	20880
847.429	20476
847.565	20100
847.701	20195
847.837	19643
847.972	19563
848.108	19563
848.244	19571
848.379	19217
848.515	19164
848.65	19107
848.786	19118
848.921	19095
849.057	19137
849.192	19088
849.328	19053
849.463	19065
849.598	18821
849.734	18852
849.869	18928
850.004	18696
850.14	18745
850.275	18726
850.41	18616
850.545	18692
850.68	18711
850.815	18608
850.95	18726
851.085	18863
851.22	18703
851.355	18665
851.49	18738
851.625	18734
851.76	18650
851.895	18544
852.03	18608
852.165	18688
852.299	18760
852.434	18772
852.569	18772
852.703	18840
852.838	18749
852.973	18844
853.107	18981
853.242	18817
853.376	18719
853.511	18635
853.645	18856
853.78	18833
853.914	18943
854.048	18867
854.183	18837
854.317	18966
854.451	19099
854.585	18913
854.72	18802
854.854	19061
854.988	18817
855.122	18707
855.256	18661
855.39	18749
855.524	18833
855.658	18715
855.792	18669
855.926	18741
856.06	18669
856.194	18688
856.327	18589
856.461	18582
856.595	18509
856.729	18623
856.862	18673
856.996	18509
857.13	18547
857.263	18597
857.397	18536
857.53	18475
857.664	18547
857.797	18517
857.931	18521
858.064	18536
858.197	18688
858.331	18509
858.464	18426
858.597	18292
858.731	18426
858.864	18350
858.997	18361
859.13	18418
859.263	18380
859.396	18460
859.529	18346
859.662	18258
859.795	18285
859.928	18388
860.061	18509
860.194	18601
860.327	18243
860.46	18232
860.592	18555
860.725	18433
860.858	18471
860.99	18353
861.123	18159
861.256	18205
861.388	18270
861.521	18916
861.653	18102
861.786	18171
861.918	18171
862.05	18220
862.183	18228
862.315	18266
862.447	18346
862.58	18319
862.712	17942
862.844	18057
862.976	17984
863.108	18121
863.24	18521
863.372	17946
863.504	17927
863.636	18003
863.768	18091
863.9	18083
864.032	17977
864.164	17889
864.296	18045
864.428	18003
864.559	18064
864.691	18026
864.823	18011
864.954	17992
865.086	17965
865.217	17965
865.349	17828
865.48	17942
865.612	17805
865.743	18076
865.875	18015
866.006	17866
866.137	17885
866.269	17874
866.4	17969
866.531	17973
866.662	17878
866.793	17912
866.924	17817
867.055	17885
867.186	17786
867.317	17817
867.448	17863
867.579	17836
867.71	17722
867.841	17745
867.972	17908
868.103	17840
868.233	17840
868.364	17882
868.495	17916
868.625	18163
868.756	18289
868.886	18114
869.017	18129
869.147	18148
869.278	18220
869.408	18129
869.539	18026
869.669	18186
869.799	18163
869.929	18391
870.06	18323
870.19	18471
870.32	18494
870.45	18437
870.58	18517
870.71	18627
870.84	18684
870.97	18540
871.1	18681
871.23	18806
871.36	18829
871.489	18806
871.619	18833
871.749	18852
871.879	18890
872.008	19080
872.138	18951
872.267	18905
872.397	18833
872.526	18859
872.656	18859
872.785	18772
872.915	19061
873.044	19038
873.173	18939
873.303	18993
873.432	19168
873.561	19061
873.69	19187
873.819	19156
873.948	19308
874.077	19126
874.206	19175
874.335	19263
874.464	19381
874.593	19525
874.722	19597
874.851	19628
874.979	19586
875.108	19811
875.237	19693
875.365	19693
875.494	19887
875.623	19909
875.751	19849
875.88	20001
876.008	20050
876.136	20244
876.265	20571
876.393	20640
876.521	20731
876.65	20727
876.778	20769
876.906	20739
877.034	20670
877.162	20918
877.29	20918
877.418	20979
877.546	21062
877.674	21203
877.802	21420
877.93	21462
878.058	21618
878.185	21827
878.313	22181
878.441	22554
878.568	22790
878.696	23440
878.824	24418
878.951	25453
879.079	27226
879.206	29189
879.333	31434
879.461	33367
879.588	34394
879.715	34424
879.842	33507
879.97	31251
880.097	29220
880.224	27656
880.351	26294
880.478	25495
880.605	24817
880.732	24494
880.859	24262
880.986	23969
881.112	23813
881.239	23562
881.366	23490
881.493	23406
881.619	23414
881.746	23493
881.872	23349
881.999	23627
882.125	23539
882.252	23665
882.378	23531
882.505	23859
882.631	23570
882.757	23570
882.883	23687
883.01	23330
883.136	23391
883.262	23353
883.388	23379
883.514	23512
883.64	23417
883.766	23250
883.892	23250
884.018	23391
884.143	23444
884.269	23509
884.395	23341
884.52	23155
884.646	23318
884.772	23094
884.897	23090
885.023	23121
885.148	23235
885.274	23242
885.399	23086
885.524	22896
885.65	22755
885.775	22774
885.9	22478
886.025	22481
886.15	22363
886.275	22025
886.4	21869
886.525	21934
886.65	21606
886.775	21507
886.9	21591
887.025	21545
887.149	21268
887.274	20986
887.399	20731
887.523	20693
887.648	20549
887.773	20503
887.897	20457
888.021	20434
888.146	20324
888.27	20431
888.395	20374
888.519	20221
888.643	20111
888.767	20214
888.891	19963
889.015	19860
889.139	19913
889.263	19826
889.387	19875
889.511	19833
889.635	19776
889.759	19605
889.883	19616
890.006	19533
890.13	19472
890.254	19362
890.377	19365
890.501	19034
890.624	19198
890.748	19152
890.871	19061
890.995	18966
891.118	18795
891.241	18859
891.364	18871
891.488	18886
891.611	18920
891.734	18719
891.857	18722
891.98	18726
892.103	18665
892.226	18661
892.349	18658
892.471	18422
892.594	18513
892.717	18486
892.839	18437
892.962	18475
893.085	18570
893.207	18498
893.33	18144
893.452	18190
893.575	18292
893.697	18228
893.819	18311
893.941	18342
894.064	18251
894.186	18041
894.308	17977
894.43	18254
894.552	18213
894.674	18239
894.796	17980
894.918	18045
895.04	18106
895.161	18098
895.283	17984
895.405	17961
895.526	17901
895.648	17950
895.769	17980
895.891	17969
896.012	18057
896.134	17893
896.255	17942
896.376	17851
896.498	17939
896.619	17923
896.74	17828
896.861	18041
896.982	18216
897.103	18334
897.224	18136
897.345	17973
897.466	17977
897.587	18015
897.708	18167
897.828	18057
897.949	18117
898.07	17893
898.19	17977
898.311	18114
898.431	18022
898.552	18007
898.672	18079
898.792	18144
898.913	18167
899.033	17912
899.153	17870
899.273	17836
899.393	17889
899.513	17901
899.633	17882
899.753	17939
899.873	17760
899.993	17965
900.113	17752
900.232	17847
900.352	17684
900.472	17687
900.591	17619
900.711	17623
900.83	17551
900.95	17783
901.069	17718
901.189	17455
901.308	17296
901.427	17159
901.546	17288
901.665	17265
901.784	17330
901.904	17006
902.023	17018
902.141	16824
902.26	16691
902.379	16694
902.498	16653
902.617	16569
902.735	16622
902.854	16641
902.973	16535
903.091	16421
903.21	16325
903.328	16303
903.446	16272
903.565	16090
903.683	16150
903.801	15895
903.919	16071
904.038	15983
904.156	15895
904.274	15991
904.392	15846
904.51	15842
904.627	15793
904.745	15899
904.863	15949
904.981	15652
905.098	15584
905.216	15466
905.334	15515
905.451	15549
905.569	15424
905.686	15526
905.803	15397
905.921	15275
906.038	15355
906.155	15214
906.272	15211
906.389	15142
906.506	14986
906.623	15043
906.74	14979
906.857	14861
906.974	14986
907.091	14994
907.208	15104
907.324	15051
907.441	14910
907.557	14765
907.674	14686
907.79	14727
907.907	14705
908.023	14746
908.139	14629
908.256	14705
908.372	14629
908.488	14568
908.604	14461
908.72	14355
908.836	14438
908.952	14370
909.068	14419
909.184	14533
909.3	14499
909.415	14404
909.531	14442
909.647	14149
909.762	14123
909.878	14081
909.993	14168
910.108	14084
910.224	14084
910.339	14111
910.454	14065
910.57	13925
910.685	13871
910.8	14199
910.915	14138
911.03	13970
911.145	13860
911.259	13784
911.374	13708
911.489	13734
911.604	13685
911.718	13518
911.833	13575
911.947	13358
912.062	13312
912.176	13518
912.291	13544
912.405	13537
912.519	13795
912.633	13727
912.748	13624
912.862	13480
912.976	13384
913.09	13236
913.204	13346
913.318	13407
913.431	13464
913.545	13438
913.659	13537
913.772	13304
913.886	13266
914	13289
914.113	13285
914.226	13358
914.34	13304
914.453	13179
914.566	13369
914.68	13217
914.793	13031
914.906	12981
915.019	12928
915.132	12894
915.245	12962
915.358	12981
915.47	12901
915.583	12897
915.696	13008
915.809	13019
915.921	13198
916.034	12901
916.146	12894
916.259	12894
916.371	13000
916.483	12943
916.595	12932
916.708	12935
916.82	12878
916.932	12802
917.044	12802
917.156	12833
917.268	12669
917.38	12795
917.491	12662
917.603	12806
917.715	12798
917.826	12757
917.938	12654
918.049	12502
918.161	12608
918.272	12772
918.384	12662
918.495	12593
918.606	12555
918.717	12395
918.828	12490
918.939	12570
919.05	12296
919.161	12407
919.272	12266
919.383	12273
919.494	12506
919.604	12612
919.715	12498
919.826	12319
919.936	12452
920.047	12452
920.157	12479
920.267	12635
920.378	12471
920.488	12410
920.598	12585
920.708	12700
920.818	12589
920.928	12513
921.038	12673
921.148	12658
921.258	12361
921.368	12251
921.477	12133
921.587	12197
921.697	12110
921.806	12175
921.916	12087
922.025	11828
922.134	11851
922.244	11885
922.353	11840
922.462	11748
922.571	11543
922.68	11539
922.789	11532
922.898	11539
923.007	11509
923.116	11482
923.224	11497
923.333	11482
923.442	11353
923.55	11356
923.659	11337
923.767	11356
923.876	11360
923.984	11387
924.092	11284
924.201	11372
924.309	11368
924.417	11311
924.525	11246
924.633	11242
924.741	12178
924.849	11094
924.956	11265
925.064	11029
925.172	10908
925.279	11105
925.387	11113
925.494	11048
925.602	11223
925.709	11086
925.816	10949
925.924	10980
926.031	11041
926.138	10965
926.245	11041
926.352	10942
926.459	11022
926.566	11041
926.673	10892
926.779	10854
926.886	10774
926.993	10771
927.099	10694
927.206	10687
927.312	10622
927.419	10683
927.525	10641
927.631	10694
927.737	10580
927.843	10535
927.95	10417
928.056	10584
928.162	10500
928.267	10546
928.373	11102
928.479	10622
928.585	10413
928.69	10565
928.796	10497
928.901	10447
929.007	10280
929.112	10421
929.218	10413
929.323	10223
929.428	10325
929.533	10421
929.638	10192
929.743	10299
929.848	10367
929.953	10280
930.058	10215
930.163	10063
930.267	9972
930.372	10185
930.477	9911
930.581	10303
930.685	10204
930.79	9964
930.894	9937
930.998	9968
931.103	10067
931.207	9682
931.311	9663
931.415	9557
931.519	9412
931.623	9359
