Data from test_V78500241_1986.txt Node
Date: Fri Mar 25 14:47:32 CST 2022
User: usil
Spectrometer: V785-0024
Trigger mode: 0
Integration Time (sec): 4.000000E-1
Scans to average: 1
Nonlinearity correction enabled: false
Boxcar width: 0
Storing dark spectrum: false
XAxis mode: Wavelengths
Number of Pixels in Spectrum: 1024
>>>>>Begin Spectral Data<<<<<
801.071	22032
801.214	21972
801.356	21804
801.499	21614
801.641	21492
801.783	21420
801.926	21473
802.068	21344
802.211	21329
802.353	21256
802.496	21150
802.638	21108
802.78	20971
802.923	20921
803.065	20762
803.208	20701
803.35	20724
803.492	20781
803.635	20986
803.777	20849
803.919	20891
804.061	21226
804.204	20823
804.346	20659
804.488	20667
804.63	20727
804.773	20648
804.915	20845
805.057	20788
805.199	20727
805.341	20899
805.483	21005
805.626	20788
805.768	20636
805.91	20834
806.052	20769
806.194	20693
806.336	20792
806.478	20720
806.62	20693
806.762	20754
806.904	20960
807.046	21142
807.188	21127
807.33	20925
807.472	21013
807.614	21013
807.756	20956
807.898	20769
808.04	20762
808.182	20674
808.324	20823
808.465	20765
808.607	21001
808.749	21104
808.891	21321
809.033	21268
809.174	21260
809.316	21123
809.458	21192
809.6	21055
809.741	21093
809.883	21100
810.025	21435
810.166	21211
810.308	21291
810.45	21116
810.591	21138
810.733	20956
810.875	20792
811.016	20773
811.158	20644
811.299	20891
811.441	20979
811.582	20982
811.724	20838
811.865	20815
812.007	20899
812.148	20910
812.29	20895
812.431	21085
812.573	21161
812.714	21367
812.855	21351
812.997	21325
813.138	21523
813.279	21439
813.421	21374
813.562	21237
813.703	21146
813.845	20994
813.986	20731
814.127	20480
814.268	20503
814.41	20480
814.551	20419
814.692	20343
814.833	20298
814.974	20358
815.115	20499
815.256	20278
815.397	20267
815.539	20237
815.68	20157
815.821	20145
815.962	20161
816.103	20103
816.244	19951
816.385	19947
816.526	19982
816.666	19674
816.807	19616
816.948	19719
817.089	19693
817.23	19647
817.371	19556
817.512	19529
817.653	19476
817.793	19453
817.934	19518
818.075	19491
818.216	19632
818.356	19480
818.497	19346
818.638	19251
818.778	19228
818.919	19339
819.06	19236
819.2	19377
819.341	19491
819.481	19411
819.622	19597
819.762	19731
819.903	19651
820.043	19487
820.184	19445
820.324	19445
820.465	19552
820.605	19518
820.746	19548
820.886	19434
821.026	19590
821.167	19495
821.307	19575
821.447	19510
821.588	19365
821.728	19126
821.868	19099
822.008	18920
822.149	18924
822.289	18897
822.429	18696
822.569	18620
822.709	18616
822.849	18490
822.99	18441
823.13	18403
823.27	18353
823.41	18194
823.55	18159
823.69	18285
823.83	18235
823.97	18148
824.11	18098
824.25	17999
824.389	17992
824.529	18117
824.669	17996
824.809	18117
824.949	18121
825.089	18003
825.228	17946
825.368	17809
825.508	17855
825.648	17767
825.787	17916
825.927	17745
826.067	17752
826.206	17695
826.346	17870
826.485	17874
826.625	17802
826.765	17916
826.904	17863
827.044	17581
827.183	17596
827.323	17512
827.462	17627
827.601	17505
827.741	17459
827.88	17520
828.02	17368
828.159	17471
828.298	17524
828.437	17619
828.577	17471
828.716	17615
828.855	17337
828.994	17307
829.134	17208
829.273	17296
829.412	17090
829.551	17231
829.69	17258
829.829	17273
829.968	17326
830.107	17280
830.246	17220
830.385	17235
830.524	17140
830.663	16999
830.802	16946
830.941	16858
831.08	16847
831.219	16953
831.357	16957
831.496	17105
831.635	16923
831.774	16782
831.913	16778
832.051	16675
832.19	16618
832.329	16702
832.467	16637
832.606	16569
832.744	16588
832.883	16493
833.022	16546
833.16	16637
833.299	16535
833.437	16607
833.576	16599
833.714	16717
833.852	16702
833.991	16558
834.129	16740
834.267	16759
834.406	16580
834.544	16653
834.682	16603
834.821	16497
834.959	16774
835.097	16752
835.235	16683
835.373	16717
835.511	16603
835.65	16432
835.788	16424
835.926	16394
836.064	16367
836.202	16394
836.34	16485
836.478	16622
836.615	16538
836.753	16504
836.891	16607
837.029	16535
837.167	16462
837.305	16363
837.443	16527
837.58	16360
837.718	16451
837.856	16428
837.993	16413
838.131	16417
838.269	16257
838.406	16284
838.544	16272
838.681	16116
838.819	16124
838.956	15968
839.094	15964
839.231	16040
839.369	16150
839.506	16329
839.643	16200
839.781	16013
839.918	15869
840.055	16006
840.193	16063
840.33	15880
840.467	15884
840.604	15964
840.742	16211
840.879	15816
841.016	15956
841.153	15861
841.29	16032
841.427	16036
841.564	16017
841.701	16010
841.838	15972
841.975	15873
842.112	15850
842.249	15759
842.385	15667
842.522	15964
842.659	15743
842.796	15686
842.933	15774
843.069	15675
843.206	15698
843.343	15781
843.479	15816
843.616	15679
843.752	15534
843.889	15431
844.025	15652
844.162	15462
844.298	15580
844.435	15496
844.571	15507
844.708	15545
844.844	15667
844.98	15736
845.117	15614
845.253	15405
845.389	15313
845.525	15530
845.661	15477
845.798	15321
845.934	15321
846.07	15260
846.206	15367
846.342	15469
846.478	15260
846.614	15112
846.75	15001
846.886	15039
847.022	15135
847.158	15116
847.294	15081
847.429	15180
847.565	15017
847.701	15420
847.837	14785
847.972	14735
848.108	14861
848.244	14910
848.379	14800
848.515	14689
848.65	14773
848.786	14727
848.921	14708
849.057	14838
849.192	14750
849.328	14746
849.463	14762
849.598	14568
849.734	14587
849.869	14602
850.004	14484
850.14	14495
850.275	14415
850.41	14408
850.545	14370
850.68	14450
850.815	14423
850.95	14492
851.085	14583
851.22	14602
851.355	14507
851.49	14564
851.625	14454
851.76	14419
851.895	14377
852.03	14301
852.165	14393
852.299	14484
852.434	14431
852.569	14480
852.703	14530
852.838	14514
852.973	14663
853.107	14575
853.242	14522
853.376	14347
853.511	14187
853.645	14225
853.78	14545
853.914	14282
854.048	14267
854.183	14309
854.317	14328
854.451	14408
854.585	14298
854.72	14313
854.854	14389
854.988	14237
855.122	14259
855.256	14180
855.39	14191
855.524	14377
855.658	14366
855.792	14343
855.926	14320
856.06	14343
856.194	14415
856.327	14374
856.461	14263
856.595	14271
856.729	14267
856.862	14339
856.996	14404
857.13	14415
857.263	14351
857.397	14533
857.53	14309
857.664	14408
857.797	14404
857.931	14476
858.064	14423
858.197	14396
858.331	14271
858.464	14263
858.597	14191
858.731	14240
858.864	14347
858.997	14313
859.13	14339
859.263	14374
859.396	14427
859.529	14339
859.662	14355
859.795	14320
859.928	14328
860.061	14465
860.194	14469
860.327	14358
860.46	14233
860.592	14438
860.725	14488
860.858	14427
860.99	14412
861.123	14218
861.256	14298
861.388	14389
861.521	15051
861.653	14278
861.786	14157
861.918	14176
862.05	14256
862.183	14263
862.315	14320
862.447	14332
862.58	14244
862.712	14096
862.844	14145
862.976	14183
863.108	14187
863.24	14419
863.372	14005
863.504	14035
863.636	14054
863.768	14164
863.9	14130
864.032	14027
864.164	14069
864.296	14145
864.428	14248
864.559	14229
864.691	14195
864.823	14214
864.954	14054
865.086	14111
865.217	14092
865.349	14046
865.48	14054
865.612	14107
865.743	14244
865.875	14035
866.006	14035
866.137	14119
866.269	14142
866.4	14073
866.531	14103
866.662	13997
866.793	14092
866.924	14119
867.055	14145
867.186	14134
867.317	14035
867.448	14054
867.579	14008
867.71	14054
867.841	13967
867.972	14164
868.103	14096
868.233	14031
868.364	14176
868.495	14138
868.625	14305
868.756	14389
868.886	14214
869.017	14320
869.147	14438
869.278	14541
869.408	14351
869.539	14298
869.669	14362
869.799	14385
869.929	14381
870.06	14404
870.19	14716
870.32	14621
870.45	14678
870.58	14697
870.71	14849
870.84	14804
870.97	14705
871.1	14697
871.23	14891
871.36	14861
871.489	14899
871.619	14998
871.749	14948
871.879	15028
872.008	15024
872.138	15028
872.267	14937
872.397	14853
872.526	14750
872.656	14765
872.785	14823
872.915	14921
873.044	15055
873.173	14982
873.303	14941
873.432	14986
873.561	15135
873.69	15032
873.819	15089
873.948	15066
874.077	14975
874.206	14960
874.335	14921
874.464	15119
874.593	15256
874.722	15252
874.851	15378
874.979	15294
875.108	15344
875.237	15195
875.365	15203
875.494	15249
875.623	15344
875.751	15252
875.88	15370
876.008	15466
876.136	15367
876.265	15587
876.393	15819
876.521	15766
876.65	15701
876.778	15819
876.906	15660
877.034	15538
877.162	15690
877.29	15732
877.418	15686
877.546	15823
877.674	15667
877.802	15751
877.93	15625
878.058	15644
878.185	15545
878.313	15671
878.441	15819
878.568	15663
878.696	15671
878.824	15675
878.951	15648
879.079	15907
879.206	15956
879.333	15941
879.461	15720
879.588	15778
879.715	15945
879.842	16040
879.97	15785
880.097	15595
880.224	15496
880.351	15606
880.478	15584
880.605	15481
880.732	15519
880.859	15895
880.986	15633
881.112	15572
881.239	15454
881.366	15424
881.493	15233
881.619	15184
881.746	15161
881.872	15203
881.999	15131
882.125	15188
882.252	15325
882.378	15260
882.505	15355
882.631	15184
882.757	15074
882.883	15066
883.01	15093
883.136	15043
883.262	14906
883.388	14849
883.514	14925
883.64	14990
883.766	15036
883.892	14845
884.018	14849
884.143	15017
884.269	15036
884.395	14876
884.52	14689
884.646	14792
884.772	14743
884.897	14579
885.023	14777
885.148	14781
885.274	14811
885.399	14891
885.524	14758
885.65	14682
885.775	14773
885.9	14716
886.025	14948
886.15	14800
886.275	14758
886.4	14682
886.525	14739
886.65	14583
886.775	14606
886.9	14880
887.025	14887
887.149	14800
887.274	14651
887.399	14522
887.523	14522
887.648	14469
887.773	14476
887.897	14670
888.021	14750
888.146	14480
888.27	14613
888.395	14590
888.519	14594
888.643	14617
888.767	14655
888.891	14533
889.015	14484
889.139	14488
889.263	14351
889.387	14514
889.511	14640
889.635	14556
889.759	14488
889.883	14404
890.006	14396
890.13	14499
890.254	14320
890.377	14301
890.501	14229
890.624	14256
890.748	14290
890.871	14065
890.995	14058
891.118	14088
891.241	14100
891.364	14145
891.488	14214
891.611	14180
891.734	14248
891.857	14153
891.98	14218
892.103	14191
892.226	14237
892.349	14138
892.471	13947
892.594	14081
892.717	14069
892.839	14062
892.962	14195
893.085	14134
893.207	14096
893.33	13944
893.452	14115
893.575	14077
893.697	14126
893.819	14240
893.941	14294
894.064	14301
894.186	14103
894.308	14210
894.43	14233
894.552	14374
894.674	14305
894.796	14039
894.918	14248
895.04	14145
895.161	14168
895.283	14202
895.405	14161
895.526	14237
895.648	14168
895.769	14183
895.891	14324
896.012	14320
896.134	14457
896.255	14355
896.376	14324
896.498	14199
896.619	14393
896.74	14347
896.861	14366
896.982	14663
897.103	14754
897.224	14617
897.345	14636
897.466	14545
897.587	14613
897.708	14712
897.828	14571
897.949	14571
898.07	14461
898.19	14511
898.311	14781
898.431	14594
898.552	14670
898.672	14743
898.792	14731
898.913	14659
899.033	14556
899.153	14412
899.273	14511
899.393	14393
899.513	14480
899.633	14488
899.753	14499
899.873	14423
899.993	14533
900.113	14476
900.232	14579
900.352	14499
900.472	14404
900.591	14309
900.711	14412
900.83	14305
900.95	14431
901.069	14541
901.189	14446
901.308	14073
901.427	14043
901.546	14043
901.665	14130
901.784	13989
901.904	13917
902.023	13852
902.141	13689
902.26	13670
902.379	13685
902.498	13601
902.617	13567
902.735	13636
902.854	13632
902.973	13609
903.091	13411
903.21	13403
903.328	13301
903.446	13301
903.565	13206
903.683	13213
903.801	13065
903.919	13156
904.038	13076
904.156	13027
904.274	13084
904.392	13027
904.51	13088
904.627	13031
904.745	13107
904.863	13107
904.981	12802
905.098	12688
905.216	12646
905.334	12764
905.451	12749
905.569	12658
905.686	12814
905.803	12711
905.921	12589
906.038	12616
906.155	12578
906.272	12517
906.389	12486
906.506	12353
906.623	12323
906.74	12334
906.857	12167
906.974	12190
907.091	12403
907.208	12391
907.324	12292
907.441	12213
907.557	12030
907.674	12083
907.79	12003
907.907	12072
908.023	12133
908.139	12083
908.256	12053
908.372	12015
908.488	12049
908.604	11923
908.72	11798
908.836	11916
908.952	11764
909.068	11805
909.184	11927
909.3	11748
909.415	11836
909.531	11752
909.647	11638
909.762	11528
909.878	11558
909.993	11566
910.108	11566
910.224	11596
910.339	11581
910.454	11505
910.57	11436
910.685	11341
910.8	11596
910.915	11649
911.03	11490
911.145	11315
911.259	11330
911.374	11345
911.489	11246
911.604	11223
911.718	11010
911.833	11003
911.947	10915
912.062	10892
912.176	11056
912.291	11086
912.405	11048
912.519	11311
912.633	11185
912.748	11086
912.862	11086
912.976	10889
913.09	10702
913.204	10850
913.318	10911
913.431	11029
913.545	10987
913.659	11041
913.772	10938
913.886	10820
914	10717
914.113	10847
914.226	10892
914.34	10927
914.453	10725
914.566	10866
914.68	10744
914.793	10691
914.906	10538
915.019	10470
915.132	10523
915.245	10459
915.358	10554
915.47	10558
915.583	10546
915.696	10565
915.809	10748
915.921	10660
916.034	10512
916.146	10470
916.259	10493
916.371	10561
916.483	10573
916.595	10424
916.708	10527
916.82	10500
916.932	10440
917.044	10443
917.156	10459
917.268	10367
917.38	10341
917.491	10360
917.603	10367
917.715	10462
917.826	10504
917.938	10375
918.049	10295
918.161	10280
918.272	10554
918.384	10402
918.495	10421
918.606	10295
918.717	10185
918.828	10219
918.939	10219
919.05	10162
919.161	10227
919.272	9968
919.383	10063
919.494	10287
919.604	10440
919.715	10329
919.826	10223
919.936	10276
920.047	10352
920.157	10246
920.267	10542
920.378	10310
920.488	10242
920.598	10531
920.708	10725
920.818	10500
920.928	10421
921.038	10706
921.148	10550
921.258	10314
921.368	10204
921.477	10181
921.587	10078
921.697	9979
921.806	10173
921.916	9953
922.025	9846
922.134	9835
922.244	9835
922.353	9899
922.462	9781
922.571	9686
922.68	9580
922.789	9534
922.898	9572
923.007	9481
923.116	9568
923.224	9523
923.333	9511
923.442	9378
923.55	9420
923.659	9393
923.767	9420
923.876	9287
923.984	9530
924.092	9348
924.201	9424
924.309	9386
924.417	9466
924.525	9313
924.633	9393
924.741	10303
924.849	9199
924.956	9344
925.064	9192
925.172	9070
925.279	9146
925.387	9214
925.494	9207
925.602	9367
925.709	9321
925.816	9097
925.924	9157
926.031	9256
926.138	9214
926.245	9214
926.352	9077
926.459	9195
926.566	9260
926.673	9142
926.779	9032
926.886	8899
926.993	8941
927.099	8880
927.206	8864
927.312	8800
927.419	8925
927.525	8899
927.631	8883
927.737	8766
927.843	8693
927.95	8712
928.056	8754
928.162	8804
928.267	8838
928.373	9359
928.479	8914
928.585	8670
928.69	8750
928.796	8853
928.901	8651
929.007	8541
929.112	8727
929.218	8674
929.323	8629
929.428	8610
929.533	8678
929.638	8568
929.743	8526
929.848	8689
929.953	8606
930.058	8480
930.163	8362
930.267	8461
930.372	8564
930.477	8324
930.581	8556
930.685	8446
930.79	8282
930.894	8263
930.998	8324
931.103	8389
931.207	8088
931.311	8046
931.415	7993
931.519	7833
931.623	7849
