Data from test_V78500241_83.txt Node
Date: Fri Mar 25 14:34:18 CST 2022
User: usil
Spectrometer: V785-0024
Trigger mode: 0
Integration Time (sec): 4.000000E-1
Scans to average: 1
Nonlinearity correction enabled: false
Boxcar width: 0
Storing dark spectrum: false
XAxis mode: Wavelengths
Number of Pixels in Spectrum: 1024
>>>>>Begin Spectral Data<<<<<
801.071	28820
801.214	28809
801.356	28573
801.499	28443
801.641	28306
801.783	28257
801.926	28363
802.068	28215
802.211	28230
802.353	28124
802.496	27994
802.638	27903
802.78	27911
802.923	27698
803.065	27701
803.208	27739
803.35	27732
803.492	27884
803.635	28048
803.777	27895
803.919	27892
804.061	28257
804.204	27835
804.346	27766
804.488	27850
804.63	27850
804.773	27770
804.915	27899
805.057	27934
805.199	27827
805.341	27930
805.483	27914
805.626	28017
805.768	27774
805.91	28044
806.052	27949
806.194	27903
806.336	28158
806.478	27895
806.62	28048
806.762	28029
806.904	28268
807.046	28470
807.188	28360
807.33	28405
807.472	28440
807.614	28344
807.756	28344
807.898	28097
808.04	28090
808.182	27979
808.324	28192
808.465	28169
808.607	28242
808.749	28116
808.891	28489
809.033	28713
809.174	28542
809.316	28493
809.458	28531
809.6	28451
809.741	28432
809.883	28512
810.025	28721
810.166	28771
810.308	28774
810.45	28744
810.591	28508
810.733	28493
810.875	28459
811.016	28371
811.158	28215
811.299	28421
811.441	28489
811.582	28523
811.724	28295
811.865	28322
812.007	28344
812.148	28386
812.29	28379
812.431	28470
812.573	28828
812.714	28717
812.855	28877
812.997	28858
813.138	29117
813.279	29006
813.421	28949
813.562	28839
813.703	28691
813.845	28542
813.986	28280
814.127	28192
814.268	27914
814.41	27880
814.551	27781
814.692	27892
814.833	27991
814.974	27766
815.115	27861
815.256	27747
815.397	27854
815.539	27789
815.68	27736
815.821	27644
815.962	27603
816.103	27641
816.244	27545
816.385	27420
816.526	27443
816.666	27070
816.807	27161
816.948	27154
817.089	27249
817.23	27085
817.371	27005
817.512	27104
817.653	27009
817.793	27047
817.934	27028
818.075	27074
818.216	27058
818.356	26979
818.497	26937
818.638	26705
818.778	26758
818.919	26750
819.06	26845
819.2	26940
819.341	26986
819.481	26899
819.622	27188
819.762	27268
819.903	27264
820.043	27203
820.184	27214
820.324	27074
820.465	27093
820.605	27070
820.746	27028
820.886	26967
821.026	27066
821.167	26948
821.307	26952
821.447	27055
821.588	26754
821.728	26712
821.868	26480
822.008	26358
822.149	26271
822.289	26339
822.429	26103
822.569	25974
822.709	26084
822.849	25875
822.99	25765
823.13	25662
823.27	25761
823.41	25609
823.55	25575
823.69	25578
823.83	25666
823.97	25639
824.11	25472
824.25	25293
824.389	25327
824.529	25312
824.669	25346
824.809	25506
824.949	25468
825.089	25430
825.228	25415
825.368	25141
825.508	25301
825.648	25164
825.787	25110
825.927	25266
826.067	25099
826.206	25129
826.346	25278
826.485	25148
826.625	25274
826.765	25327
826.904	25236
827.044	24871
827.183	24973
827.323	24871
827.462	24981
827.601	24886
827.741	24707
827.88	24791
828.02	24741
828.159	24806
828.298	24840
828.437	24848
828.577	24623
828.716	24882
828.855	24684
828.994	24563
829.134	24498
829.273	24566
829.412	24403
829.551	24369
829.69	24544
829.829	24467
829.968	24566
830.107	24536
830.246	24502
830.385	24346
830.524	24338
830.663	24254
830.802	24186
830.941	24144
831.08	23954
831.219	24266
831.357	24209
831.496	24281
831.635	24098
831.774	24022
831.913	23939
832.051	23840
832.19	23847
832.329	23874
832.467	23790
832.606	23577
832.744	23646
832.883	23805
833.022	23676
833.16	23802
833.299	23699
833.437	23703
833.576	23695
833.714	23752
833.852	23752
833.991	23676
834.129	23809
834.267	23779
834.406	23748
834.544	23756
834.682	23642
834.821	23661
834.959	23939
835.097	23577
835.235	23733
835.373	23745
835.511	23691
835.65	23459
835.788	23471
835.926	23337
836.064	23231
836.202	23391
836.34	23512
836.478	23585
836.615	23376
836.753	23372
836.891	23531
837.029	23600
837.167	23452
837.305	23425
837.443	23356
837.58	23307
837.718	23383
837.856	23277
837.993	23223
838.131	23242
838.269	23136
838.406	23197
838.544	23159
838.681	22911
838.819	22839
838.956	22672
839.094	22850
839.231	22790
839.369	22847
839.506	23056
839.643	22980
839.781	22645
839.918	22660
840.055	22649
840.193	22630
840.33	22599
840.467	22649
840.604	22763
840.742	23029
840.879	22363
841.016	22489
841.153	22424
841.29	22664
841.427	22679
841.564	22485
841.701	22645
841.838	22577
841.975	22352
842.112	22455
842.249	22291
842.385	22150
842.522	22508
842.659	22360
842.796	22268
842.933	22314
843.069	22287
843.206	22238
843.343	22306
843.479	22322
843.616	22363
843.752	22074
843.889	22090
844.025	22238
844.162	22032
844.298	22276
844.435	22017
844.571	22013
844.708	22109
844.844	22295
844.98	22166
845.117	22074
845.253	21911
845.389	21869
845.525	21884
845.661	21895
845.798	21694
845.934	21759
846.07	21739
846.206	21797
846.342	21968
846.478	21686
846.614	21526
846.75	21511
846.886	21507
847.022	21656
847.158	21545
847.294	21439
847.429	21523
847.565	21447
847.701	21709
847.837	21176
847.972	21028
848.108	21214
848.244	21230
848.379	20967
848.515	21051
848.65	20956
848.786	20899
848.921	20941
849.057	21093
849.192	20982
849.328	21036
849.463	20971
849.598	20952
849.734	21013
849.869	20937
850.004	20830
850.14	20735
850.275	20727
850.41	20724
850.545	20712
850.68	20727
850.815	20750
850.95	20655
851.085	20823
851.22	20887
851.355	20750
851.49	20602
851.625	20739
851.76	20731
851.895	20655
852.03	20598
852.165	20758
852.299	20712
852.434	20644
852.569	20781
852.703	20651
852.838	20716
852.973	20823
853.107	20845
853.242	20750
853.376	20545
853.511	20351
853.645	20400
853.78	20594
853.914	20552
854.048	20389
854.183	20492
854.317	20571
854.451	20583
854.585	20461
854.72	20552
854.854	20545
854.988	20415
855.122	20545
855.256	20362
855.39	20423
855.524	20518
855.658	20450
855.792	20488
855.926	20473
856.06	20621
856.194	20533
856.327	20385
856.461	20503
856.595	20457
856.729	20533
856.862	20590
856.996	20484
857.13	20480
857.263	20530
857.397	20549
857.53	20374
857.664	20499
857.797	20480
857.931	20511
858.064	20488
858.197	20484
858.331	20358
858.464	20332
858.597	20290
858.731	20473
858.864	20400
858.997	20473
859.13	20488
859.263	20533
859.396	20545
859.529	20423
859.662	20404
859.795	20328
859.928	20377
860.061	20552
860.194	20526
860.327	20374
860.46	20454
860.592	20469
860.725	20613
860.858	20556
860.99	20347
861.123	20396
861.256	20229
861.388	20343
861.521	21066
861.653	20275
861.786	20157
861.918	20309
862.05	20419
862.183	20438
862.315	20434
862.447	20514
862.58	20374
862.712	20225
862.844	20092
862.976	20199
863.108	20206
863.24	20564
863.372	20073
863.504	20172
863.636	20191
863.768	20096
863.9	20122
864.032	20092
864.164	20130
864.296	20176
864.428	20172
864.559	20187
864.691	20202
864.823	20084
864.954	20043
865.086	20180
865.217	19951
865.349	19967
865.48	19986
865.612	19978
865.743	20256
865.875	20107
866.006	20035
866.137	20012
866.269	20031
866.4	19982
866.531	20043
866.662	19902
866.793	19944
866.924	19871
867.055	20001
867.186	20027
867.317	19906
867.448	19898
867.579	19799
867.71	19890
867.841	19734
867.972	20008
868.103	19932
868.233	19947
868.364	19898
868.495	19997
868.625	20126
868.756	20252
868.886	20115
869.017	20199
869.147	20210
869.278	20244
869.408	20153
869.539	20103
869.669	20237
869.799	20176
869.929	20172
870.06	20244
870.19	20400
870.32	20476
870.45	20400
870.58	20552
870.71	20621
870.84	20701
870.97	20488
871.1	20632
871.23	20758
871.36	20807
871.489	20625
871.619	20807
871.749	20815
871.879	20807
872.008	20956
872.138	20876
872.267	20644
872.397	20693
872.526	20648
872.656	20568
872.785	20514
872.915	20804
873.044	20800
873.173	20834
873.303	20735
873.432	20819
873.561	20781
873.69	20838
873.819	20781
873.948	20967
874.077	20830
874.206	20720
874.335	20765
874.464	20876
874.593	21116
874.722	20902
874.851	20979
874.979	20979
875.108	20990
875.237	20902
875.365	21017
875.494	20960
875.623	21131
875.751	20990
875.88	21047
876.008	21066
876.136	21154
876.265	21469
876.393	21572
876.521	21526
876.65	21500
876.778	21481
876.906	21454
877.034	21408
877.162	21420
877.29	21382
877.418	21496
877.546	21526
877.674	21401
877.802	21420
877.93	21428
878.058	21218
878.185	21176
878.313	21386
878.441	21405
878.568	21226
878.696	21355
878.824	21428
878.951	21507
879.079	21488
879.206	21652
879.333	21557
879.461	21526
879.588	21507
879.715	21618
879.842	21637
879.97	21454
880.097	21173
880.224	21154
880.351	21226
880.478	21241
880.605	21302
880.732	21192
880.859	21393
880.986	21226
881.112	21230
881.239	21222
881.366	21009
881.493	20963
881.619	20826
881.746	20788
881.872	20891
881.999	20708
882.125	20773
882.252	20777
882.378	20834
882.505	20880
882.631	20689
882.757	20480
882.883	20568
883.01	20541
883.136	20499
883.262	20389
883.388	20328
883.514	20541
883.64	20492
883.766	20457
883.892	20347
884.018	20377
884.143	20465
884.269	20689
884.395	20202
884.52	20248
884.646	20218
884.772	20206
884.897	20103
885.023	20176
885.148	20282
885.274	20290
885.399	20244
885.524	20172
885.65	20252
885.775	20240
885.9	20134
886.025	20199
886.15	20271
886.275	20168
886.4	20016
886.525	20183
886.65	20031
886.775	20054
886.9	20122
887.025	20358
887.149	20115
887.274	20024
887.399	19989
887.523	20008
887.648	19841
887.773	19772
887.897	20005
888.021	19928
888.146	19925
888.27	20001
888.395	20062
888.519	19906
888.643	19917
888.767	19921
888.891	19727
889.015	19795
889.139	19814
889.263	19628
889.387	19879
889.511	19951
889.635	19826
889.759	19715
889.883	19674
890.006	19643
890.13	19700
890.254	19655
890.377	19666
890.501	19438
890.624	19419
890.748	19460
890.871	19422
890.995	19217
891.118	19335
891.241	19304
891.364	19343
891.488	19354
891.611	19354
891.734	19373
891.857	19308
891.98	19251
892.103	19266
892.226	19350
892.349	19225
892.471	19137
892.594	19278
892.717	19293
892.839	19270
892.962	19266
893.085	19255
893.207	19183
893.33	19110
893.452	19179
893.575	19327
893.697	19152
893.819	19502
893.941	19441
894.064	19411
894.186	19244
894.308	19171
894.43	19293
894.552	19346
894.674	19384
894.796	19148
894.918	19190
895.04	19141
895.161	19365
895.283	19148
895.405	19221
895.526	19236
895.648	19247
895.769	19206
895.891	19194
896.012	19289
896.134	19384
896.255	19434
896.376	19251
896.498	19346
896.619	19343
896.74	19297
896.861	19495
896.982	19540
897.103	19788
897.224	19658
897.345	19525
897.466	19445
897.587	19552
897.708	19635
897.828	19567
897.949	19422
898.07	19411
898.19	19521
898.311	19552
898.431	19415
898.552	19529
898.672	19525
898.792	19559
898.913	19476
899.033	19335
899.153	19202
899.273	19324
899.393	19266
899.513	19198
899.633	19217
899.753	19213
899.873	19145
899.993	19240
900.113	19164
900.232	19183
900.352	19187
900.472	19061
900.591	19076
900.711	19069
900.83	18954
900.95	19114
901.069	19152
901.189	18996
901.308	18757
901.427	18642
901.546	18722
901.665	18711
901.784	18665
901.904	18570
902.023	18498
902.141	18254
902.26	18285
902.379	18190
902.498	18121
902.617	18144
902.735	18270
902.854	18159
902.973	18091
903.091	17828
903.21	17760
903.328	17809
903.446	17737
903.565	17703
903.683	17642
903.801	17532
903.919	17581
904.038	17512
904.156	17486
904.274	17471
904.392	17364
904.51	17349
904.627	17353
904.745	17433
904.863	17471
904.981	17231
905.098	17033
905.216	17014
905.334	17094
905.451	17109
905.569	16984
905.686	17083
905.803	16972
905.921	16866
906.038	16942
906.155	16843
906.272	16752
906.389	16740
906.506	16599
906.623	16546
906.74	16519
906.857	16394
906.974	16432
907.091	16558
907.208	16630
907.324	16573
907.441	16440
907.557	16348
907.674	16299
907.79	16181
907.907	16234
908.023	16284
908.139	16158
908.256	16215
908.372	16109
908.488	16128
908.604	15892
908.72	15911
908.836	15915
908.952	15968
909.068	15934
909.184	15895
909.3	15945
909.415	15941
909.531	15972
909.647	15652
909.762	15614
909.878	15641
909.993	15679
910.108	15564
910.224	15667
910.339	15591
910.454	15549
910.57	15473
910.685	15401
910.8	15591
910.915	15606
911.03	15458
911.145	15294
911.259	15268
911.374	15184
911.489	15146
911.604	15112
911.718	14941
911.833	15028
911.947	14781
912.062	14739
912.176	14937
912.291	14910
912.405	14986
912.519	15165
912.633	15207
912.748	15104
912.862	14883
912.976	14712
913.09	14644
913.204	14777
913.318	14716
913.431	14781
913.545	14849
913.659	14819
913.772	14773
913.886	14632
914	14533
914.113	14720
914.226	14708
914.34	14598
914.453	14492
914.566	14640
914.68	14454
914.793	14419
914.906	14339
915.019	14210
915.132	14149
915.245	14149
915.358	14263
915.47	14237
915.583	14180
915.696	14271
915.809	14309
915.921	14336
916.034	14126
916.146	14183
916.259	14096
916.371	14275
916.483	14153
916.595	14046
916.708	14050
916.82	13993
916.932	13974
917.044	14024
917.156	13982
917.268	13849
917.38	13841
917.491	13925
917.603	13871
917.715	13951
917.826	14005
917.938	13807
918.049	13776
918.161	13868
918.272	13951
918.384	13932
918.495	13826
918.606	13723
918.717	13647
918.828	13757
918.939	13727
919.05	13681
919.161	13616
919.272	13407
919.383	13480
919.494	13696
919.604	13795
919.715	13590
919.826	13544
919.936	13514
920.047	13647
920.157	13632
920.267	13780
920.378	13693
920.488	13605
920.598	13757
920.708	13811
920.818	13761
920.928	13693
921.038	13883
921.148	13822
921.258	13556
921.368	13453
921.477	13400
921.587	13320
921.697	13187
921.806	13381
921.916	13141
922.025	12973
922.134	13004
922.244	13000
922.353	13095
922.462	12878
922.571	12768
922.68	12726
922.789	12642
922.898	12662
923.007	12502
923.116	12684
923.224	12726
923.333	12585
923.442	12498
923.55	12464
923.659	12593
923.767	12612
923.876	12407
923.984	12494
924.092	12369
924.201	12327
924.309	12426
924.417	12464
924.525	12254
924.633	12353
924.741	13381
924.849	12053
924.956	12304
925.064	12163
925.172	12057
925.279	12148
925.387	12114
925.494	12125
925.602	12243
925.709	12190
925.816	12026
925.924	12019
926.031	12125
926.138	11999
926.245	12068
926.352	11980
926.459	12034
926.566	12053
926.673	12030
926.779	11878
926.886	11840
926.993	11745
927.099	11676
927.206	11695
927.312	11661
927.419	11661
927.525	11680
927.631	11668
927.737	11604
927.843	11493
927.95	11425
928.056	11558
928.162	11596
928.267	11604
928.373	12034
928.479	11615
928.585	11387
928.69	11528
928.796	11547
928.901	11353
929.007	11231
929.112	11391
929.218	11334
929.323	11353
929.428	11322
929.533	11425
929.638	11189
929.743	11189
929.848	11303
929.953	11143
930.058	11105
930.163	11006
930.267	10881
930.372	11151
930.477	10934
930.581	11102
930.685	11022
930.79	10809
930.894	10896
930.998	10782
931.103	10938
931.207	10565
931.311	10493
931.415	10413
931.519	10234
931.623	10185
