Data from test_V78500241_3464.txt Node
Date: Fri Mar 25 14:57:50 CST 2022
User: usil
Spectrometer: V785-0024
Trigger mode: 0
Integration Time (sec): 4.000000E-1
Scans to average: 1
Nonlinearity correction enabled: false
Boxcar width: 0
Storing dark spectrum: false
XAxis mode: Wavelengths
Number of Pixels in Spectrum: 1024
>>>>>Begin Spectral Data<<<<<
801.071	21937
801.214	21755
801.356	21530
801.499	21378
801.641	21408
801.783	21397
801.926	21268
802.068	21127
802.211	21230
802.353	21077
802.496	20956
802.638	20762
802.78	20629
802.923	20781
803.065	20522
803.208	20575
803.35	20617
803.492	20678
803.635	20758
803.777	20560
803.919	20739
804.061	20994
804.204	20659
804.346	20594
804.488	20492
804.63	20571
804.773	20438
804.915	20530
805.057	20636
805.199	20488
805.341	20545
805.483	20689
805.626	20606
805.768	20469
805.91	20655
806.052	20446
806.194	20366
806.336	20682
806.478	20518
806.62	20358
806.762	20545
806.904	20686
807.046	20895
807.188	20804
807.33	20716
807.472	20868
807.614	20815
807.756	20826
807.898	20533
808.04	20522
808.182	20590
808.324	20564
808.465	20621
808.607	20689
808.749	20781
808.891	21001
809.033	20895
809.174	20918
809.316	20746
809.458	20849
809.6	20674
809.741	20861
809.883	20929
810.025	20971
810.166	21005
810.308	20956
810.45	21013
810.591	20853
810.733	20750
810.875	20636
811.016	20556
811.158	20469
811.299	20522
811.441	20826
811.582	20663
811.724	20617
811.865	20571
812.007	20537
812.148	20492
812.29	20571
812.431	20640
812.573	20864
812.714	21032
812.855	21142
812.997	21203
813.138	21252
813.279	21043
813.421	21222
813.562	21066
813.703	20815
813.845	20632
813.986	20423
814.127	20370
814.268	20130
814.41	20199
814.551	20157
814.692	20229
814.833	20027
814.974	20054
815.115	20218
815.256	19997
815.397	20005
815.539	19947
815.68	19940
815.821	19822
815.962	19894
816.103	19852
816.244	19696
816.385	19647
816.526	19651
816.666	19381
816.807	19293
816.948	19343
817.089	19362
817.23	19270
817.371	19259
817.512	19240
817.653	19293
817.793	19217
817.934	19217
818.075	19350
818.216	19312
818.356	19274
818.497	19103
818.638	18886
818.778	18958
818.919	19038
819.06	18882
819.2	19004
819.341	19312
819.481	19133
819.622	19278
819.762	19483
819.903	19362
820.043	19346
820.184	19377
820.324	19369
820.465	19388
820.605	19164
820.746	19179
820.886	19198
821.026	19289
821.167	19240
821.307	19339
821.447	19118
821.588	19103
821.728	18909
821.868	18802
822.008	18681
822.149	18612
822.289	18635
822.429	18494
822.569	18300
822.709	18388
822.849	18133
822.99	18171
823.13	18190
823.27	18186
823.41	17893
823.55	17999
823.69	18117
823.83	17980
823.97	17927
824.11	17771
824.25	17695
824.389	17783
824.529	17859
824.669	17722
824.809	17878
824.949	17893
825.089	17874
825.228	17828
825.368	17722
825.508	17520
825.648	17615
825.787	17649
825.927	17604
826.067	17524
826.206	17623
826.346	17592
826.485	17577
826.625	17653
826.765	17657
826.904	17566
827.044	17341
827.183	17337
827.323	17280
827.462	17330
827.601	17261
827.741	17280
827.88	17151
828.02	17121
828.159	17250
828.298	17242
828.437	17307
828.577	17223
828.716	17433
828.855	17162
828.994	16976
829.134	16961
829.273	17090
829.412	16949
829.551	16847
829.69	16987
829.829	16976
829.968	17048
830.107	17071
830.246	17083
830.385	16938
830.524	16885
830.663	16862
830.802	16790
830.941	16607
831.08	16554
831.219	16660
831.357	16694
831.496	16805
831.635	16615
831.774	16535
831.913	16474
832.051	16447
832.19	16523
832.329	16409
832.467	16348
832.606	16310
832.744	16344
832.883	16325
833.022	16284
833.16	16249
833.299	16367
833.437	16291
833.576	16352
833.714	16428
833.852	16478
833.991	16481
834.129	16500
834.267	16371
834.406	16409
834.544	16443
834.682	16341
834.821	16432
834.959	16577
835.097	16481
835.235	16424
835.373	16428
835.511	16428
835.65	16333
835.788	16207
835.926	16181
836.064	16177
836.202	16230
836.34	16242
836.478	16394
836.615	16382
836.753	16272
836.891	16303
837.029	16348
837.167	16162
837.305	16166
837.443	16185
837.58	16223
837.718	16169
837.856	16276
837.993	16082
838.131	16280
838.269	16143
838.406	16055
838.544	16078
838.681	15861
838.819	15854
838.956	15793
839.094	15648
839.231	15747
839.369	15922
839.506	16074
839.643	15937
839.781	15789
839.918	15656
840.055	15755
840.193	15663
840.33	15690
840.467	15747
840.604	15762
840.742	16017
840.879	15576
841.016	15709
841.153	15637
841.29	15835
841.427	15789
841.564	15774
841.701	15918
841.838	15694
841.975	15595
842.112	15701
842.249	15545
842.385	15443
842.522	15694
842.659	15652
842.796	15492
842.933	15599
843.069	15386
843.206	15511
843.343	15614
843.479	15492
843.616	15618
843.752	15344
843.889	15294
844.025	15549
844.162	15226
844.298	15435
844.435	15382
844.571	15298
844.708	15325
844.844	15367
844.98	15481
845.117	15469
845.253	15279
845.389	15169
845.525	15230
845.661	15283
845.798	15036
845.934	15302
846.07	15157
846.206	15138
846.342	15287
846.478	15135
846.614	14819
846.75	14849
846.886	14773
847.022	15013
847.158	14845
847.294	14765
847.429	15036
847.565	14902
847.701	15161
847.837	14663
847.972	14590
848.108	14765
848.244	14735
848.379	14621
848.515	14541
848.65	14480
848.786	14454
848.921	14526
849.057	14594
849.192	14610
849.328	14507
849.463	14556
849.598	14450
849.734	14381
849.869	14332
850.004	14244
850.14	14305
850.275	14199
850.41	14107
850.545	14336
850.68	14267
850.815	14286
850.95	14153
851.085	14423
851.22	14408
851.355	14244
851.49	14298
851.625	14161
851.76	14187
851.895	14183
852.03	14145
852.165	14263
852.299	14309
852.434	14256
852.569	14275
852.703	14248
852.838	14271
852.973	14427
853.107	14377
853.242	14229
853.376	14069
853.511	14077
853.645	14123
853.78	14252
853.914	14103
854.048	14081
854.183	14065
854.317	14218
854.451	14339
854.585	14183
854.72	14084
854.854	14282
854.988	14103
855.122	14134
855.256	13951
855.39	14058
855.524	14134
855.658	14199
855.792	14172
855.926	14149
856.06	14271
856.194	14221
856.327	14168
856.461	14050
856.595	14145
856.729	14153
856.862	14187
856.996	14149
857.13	14233
857.263	14206
857.397	14351
857.53	14103
857.664	14199
857.797	14100
857.931	14233
858.064	14176
858.197	14202
858.331	14172
858.464	14054
858.597	14012
858.731	14100
858.864	14161
858.997	14062
859.13	14252
859.263	14221
859.396	14290
859.529	14103
859.662	14062
859.795	14062
859.928	14103
860.061	14252
860.194	14362
860.327	14035
860.46	14206
860.592	14202
860.725	14229
860.858	14267
860.99	14088
861.123	14046
861.256	14024
861.388	14081
861.521	14838
861.653	14100
861.786	13955
861.918	13875
862.05	14005
862.183	14077
862.315	14153
862.447	14103
862.58	14111
862.712	13928
862.844	13875
862.976	14012
863.108	14020
863.24	14374
863.372	13868
863.504	13883
863.636	13883
863.768	14043
863.9	14058
864.032	13849
864.164	13890
864.296	13856
864.428	14001
864.559	14046
864.691	13970
864.823	14005
864.954	13982
865.086	13993
865.217	13890
865.349	13837
865.48	13944
865.612	13951
865.743	14077
865.875	13928
866.006	13772
866.137	13951
866.269	13917
866.4	13879
866.531	13814
866.662	13879
866.793	13788
866.924	13837
867.055	13883
867.186	13871
867.317	13913
867.448	13795
867.579	13788
867.71	13788
867.841	13811
867.972	13902
868.103	13890
868.233	13894
868.364	13963
868.495	14046
868.625	14202
868.756	14210
868.886	14107
869.017	14081
869.147	14259
869.278	14263
869.408	14180
869.539	14206
869.669	14298
869.799	14073
869.929	14358
870.06	14187
870.19	14514
870.32	14461
870.45	14571
870.58	14492
870.71	14705
870.84	14651
870.97	14613
871.1	14606
871.23	14705
871.36	14731
871.489	14655
871.619	14785
871.749	14674
871.879	14845
872.008	14883
872.138	14739
872.267	14731
872.397	14667
872.526	14530
872.656	14499
872.785	14659
872.915	14796
873.044	14872
873.173	14868
873.303	14880
873.432	14857
873.561	14960
873.69	14807
873.819	14838
873.948	14838
874.077	14864
874.206	14682
874.335	14880
874.464	14967
874.593	15001
874.722	15020
874.851	15150
874.979	15218
875.108	15188
875.237	15051
875.365	15089
875.494	15146
875.623	15165
875.751	15093
875.88	15237
876.008	15195
876.136	15317
876.265	15561
876.393	15682
876.521	15618
876.65	15595
876.778	15580
876.906	15481
877.034	15481
877.162	15507
877.29	15443
877.418	15511
877.546	15633
877.674	15507
877.802	15526
877.93	15488
878.058	15515
878.185	15458
878.313	15507
878.441	15557
878.568	15336
878.696	15485
878.824	15576
878.951	15682
879.079	15751
879.206	15899
879.333	15717
879.461	15576
879.588	15694
879.715	15686
879.842	15812
879.97	15625
880.097	15302
880.224	15306
880.351	15374
880.478	15420
880.605	15507
880.732	15405
880.859	15553
880.986	15431
881.112	15401
881.239	15348
881.366	15256
881.493	15097
881.619	15070
881.746	14971
881.872	14952
881.999	15039
882.125	15017
882.252	15085
882.378	15043
882.505	15066
882.631	14960
882.757	14902
882.883	14899
883.01	14895
883.136	14792
883.262	14724
883.388	14769
883.514	14876
883.64	14872
883.766	14868
883.892	14758
884.018	14804
884.143	14868
884.269	14929
884.395	14594
884.52	14564
884.646	14636
884.772	14568
884.897	14419
885.023	14568
885.148	14720
885.274	14754
885.399	14670
885.524	14533
885.65	14571
885.775	14602
885.9	14530
886.025	14762
886.15	14594
886.275	14545
886.4	14328
886.525	14415
886.65	14613
886.775	14454
886.9	14655
887.025	14762
887.149	14651
887.274	14404
887.399	14431
887.523	14358
887.648	14290
887.773	14298
887.897	14461
888.021	14545
888.146	14415
888.27	14374
888.395	14499
888.519	14450
888.643	14450
888.767	14469
888.891	14351
889.015	14237
889.139	14351
889.263	14191
889.387	14362
889.511	14473
889.635	14294
889.759	14229
889.883	14256
890.006	14256
890.13	14370
890.254	14191
890.377	14301
890.501	14138
890.624	14062
890.748	14187
890.871	13982
890.995	13936
891.118	13868
891.241	13993
891.364	14001
891.488	14111
891.611	13967
891.734	14062
891.857	14096
891.98	14008
892.103	14046
892.226	14008
892.349	13974
892.471	13856
892.594	13913
892.717	13928
892.839	13955
892.962	13997
893.085	14043
893.207	13974
893.33	13887
893.452	13875
893.575	14024
893.697	13925
893.819	14107
893.941	14092
894.064	14096
894.186	13879
894.308	13974
894.43	14054
894.552	14119
894.674	14123
894.796	13940
894.918	13974
895.04	13959
895.161	14157
895.283	14115
895.405	14103
895.526	14096
895.648	14054
895.769	14180
895.891	14256
896.012	14290
896.134	14210
896.255	14115
896.376	14092
896.498	14062
896.619	14157
896.74	14214
896.861	14221
896.982	14568
897.103	14533
897.224	14465
897.345	14393
897.466	14362
897.587	14450
897.708	14537
897.828	14461
897.949	14396
898.07	14267
898.19	14324
898.311	14571
898.431	14434
898.552	14541
898.672	14610
898.792	14610
898.913	14545
899.033	14362
899.153	14389
899.273	14294
899.393	14263
899.513	14427
899.633	14332
899.753	14362
899.873	14298
899.993	14495
900.113	14393
900.232	14366
900.352	14328
900.472	14290
900.591	14054
900.711	14324
900.83	14164
900.95	14358
901.069	14377
901.189	14096
901.308	14054
901.427	13871
901.546	13883
901.665	13970
901.784	13940
901.904	13795
902.023	13693
902.141	13460
902.26	13434
902.379	13468
902.498	13400
902.617	13396
902.735	13472
902.854	13415
902.973	13354
903.091	13164
903.21	13129
903.328	13206
903.446	13114
903.565	12985
903.683	13050
903.801	12909
903.919	13015
904.038	12970
904.156	12871
904.274	13004
904.392	12791
904.51	12741
904.627	12871
904.745	12863
904.863	12951
904.981	12623
905.098	12582
905.216	12426
905.334	12570
905.451	12551
905.569	12513
905.686	12620
905.803	12612
905.921	12388
906.038	12547
906.155	12426
906.272	12323
906.389	12273
906.506	12175
906.623	12125
906.74	12091
906.857	11916
906.974	12003
907.091	12285
907.208	12342
907.324	12228
907.441	12057
907.557	11882
907.674	11901
907.79	11828
907.907	11832
908.023	11878
908.139	11920
908.256	11889
908.372	11866
908.488	11832
908.604	11676
908.72	11657
908.836	11608
908.952	11646
909.068	11676
909.184	11767
909.3	11722
909.415	11714
909.531	11661
909.647	11406
909.762	11421
909.878	11391
909.993	11493
910.108	11520
910.224	11383
910.339	11402
910.454	11288
910.57	11258
910.685	11159
910.8	11486
910.915	11436
911.03	11360
911.145	11239
911.259	11113
911.374	11113
911.489	10972
911.604	10942
911.718	10816
911.833	10896
911.947	10793
912.062	10706
912.176	10862
912.291	10809
912.405	10896
912.519	11094
912.633	11090
912.748	10854
912.862	10889
912.976	10786
913.09	10584
913.204	10691
913.318	10771
913.431	10900
913.545	10809
913.659	10946
913.772	10710
913.886	10706
914	10664
914.113	10675
914.226	10774
914.34	10710
914.453	10481
914.566	10771
914.68	10664
914.793	10519
914.906	10405
915.019	10367
915.132	10356
915.245	10402
915.358	10379
915.47	10367
915.583	10398
915.696	10386
915.809	10489
915.921	10546
916.034	10341
916.146	10402
916.259	10291
916.371	10424
916.483	10447
916.595	10318
916.708	10306
916.82	10325
916.932	10352
917.044	10344
917.156	10265
917.268	10200
917.38	10272
917.491	10238
917.603	10223
917.715	10352
917.826	10322
917.938	10230
918.049	10101
918.161	10238
918.272	10322
918.384	10363
918.495	10242
918.606	10116
918.717	10067
918.828	10055
918.939	10120
919.05	10040
919.161	10086
919.272	9926
919.383	10010
919.494	10177
919.604	10299
919.715	10139
919.826	10147
919.936	10139
920.047	10181
920.157	10154
920.267	10268
920.378	10188
920.488	10063
920.598	10310
920.708	10523
920.818	10329
920.928	10341
921.038	10497
921.148	10440
921.258	10166
921.368	10051
921.477	9994
921.587	9975
921.697	9895
921.806	10025
921.916	9945
922.025	9713
922.134	9686
922.244	9625
922.353	9751
922.462	9587
922.571	9519
922.68	9378
922.789	9351
922.898	9412
923.007	9370
923.116	9405
923.224	9382
923.333	9408
923.442	9275
923.55	9195
923.659	9249
923.767	9317
923.876	9233
923.984	9294
924.092	9192
924.201	9226
924.309	9370
924.417	9359
924.525	9161
924.633	9188
924.741	10177
924.849	8994
924.956	9226
925.064	9001
925.172	8956
925.279	8910
925.387	9028
925.494	9024
925.602	9157
925.709	9154
925.816	9017
925.924	9051
926.031	9100
926.138	9070
926.245	9127
926.352	9028
926.459	9081
926.566	9108
926.673	9043
926.779	8857
926.886	8899
926.993	8807
927.099	8746
927.206	8766
927.312	8693
927.419	8868
927.525	8815
927.631	8781
927.737	8682
927.843	8640
927.95	8564
928.056	8667
928.162	8651
928.267	8712
928.373	9272
928.479	8826
928.585	8511
928.69	8670
928.796	8731
928.901	8598
929.007	8434
929.112	8590
929.218	8514
929.323	8434
929.428	8427
929.533	8613
929.638	8427
929.743	8503
929.848	8480
929.953	8446
930.058	8366
930.163	8218
930.267	8275
930.372	8385
930.477	8187
930.581	8465
930.685	8366
930.79	8164
930.894	8195
930.998	8157
931.103	8374
931.207	8062
931.311	7913
931.415	7887
931.519	7662
931.623	7750
