Data from test_V78500241_1417.txt Node
Date: Fri Mar 25 14:43:34 CST 2022
User: usil
Spectrometer: V785-0024
Trigger mode: 0
Integration Time (sec): 4.000000E-1
Scans to average: 1
Nonlinearity correction enabled: false
Boxcar width: 0
Storing dark spectrum: false
XAxis mode: Wavelengths
Number of Pixels in Spectrum: 1024
>>>>>Begin Spectral Data<<<<<
801.071	22417
801.214	22360
801.356	22109
801.499	22070
801.641	21804
801.783	21812
801.926	21941
802.068	21713
802.211	21747
802.353	21667
802.496	21397
802.638	21332
802.78	21260
802.923	21085
803.065	21085
803.208	21062
803.35	21119
803.492	21169
803.635	21401
803.777	21127
803.919	21321
804.061	21538
804.204	21275
804.346	21119
804.488	20944
804.63	21100
804.773	21028
804.915	21017
805.057	21192
805.199	21070
805.341	21195
805.483	21241
805.626	21192
805.768	20914
805.91	20994
806.052	21119
806.194	21013
806.336	21272
806.478	21036
806.62	21028
806.762	21131
806.904	21241
807.046	21526
807.188	21473
807.33	21397
807.472	21526
807.614	21237
807.756	21454
807.898	21287
808.04	21340
808.182	21264
808.324	21287
808.465	21359
808.607	21587
808.749	21724
808.891	21884
809.033	21793
809.174	21679
809.316	21633
809.458	21576
809.6	21572
809.741	21526
809.883	21610
810.025	21618
810.166	21652
810.308	21644
810.45	21545
810.591	21542
810.733	21344
810.875	21237
811.016	21233
811.158	21024
811.299	21275
811.441	21401
811.582	21435
811.724	21313
811.865	21218
812.007	21245
812.148	21195
812.29	21222
812.431	21500
812.573	21599
812.714	21652
812.855	21759
812.997	21816
813.138	21926
813.279	21892
813.421	21808
813.562	21622
813.703	21359
813.845	21492
813.986	21028
814.127	20883
814.268	20750
814.41	20906
814.551	20750
814.692	20861
814.833	20682
814.974	20788
815.115	20765
815.256	20625
815.397	20587
815.539	20731
815.68	20473
815.821	20560
815.962	20568
816.103	20488
816.244	20339
816.385	20358
816.526	20218
816.666	20218
816.807	19947
816.948	20039
817.089	20092
817.23	20001
817.371	19837
817.512	19944
817.653	19932
817.793	19864
817.934	19879
818.075	20001
818.216	19909
818.356	19879
818.497	19681
818.638	19552
818.778	19575
818.919	19590
819.06	19582
819.2	19738
819.341	19757
819.481	19974
819.622	19986
819.762	20142
819.903	20043
820.043	19978
820.184	19970
820.324	19932
820.465	19803
820.605	19875
820.746	19913
820.886	19757
821.026	19913
821.167	19818
821.307	19959
821.447	19723
821.588	19753
821.728	19651
821.868	19552
822.008	19251
822.149	19331
822.289	19293
822.429	19168
822.569	18981
822.709	19042
822.849	18829
822.99	18829
823.13	18741
823.27	18741
823.41	18711
823.55	18669
823.69	18650
823.83	18627
823.97	18494
824.11	18441
824.25	18380
824.389	18456
824.529	18490
824.669	18391
824.809	18467
824.949	18506
825.089	18426
825.228	18353
825.368	18159
825.508	18224
825.648	18228
825.787	18270
825.927	18296
826.067	18079
826.206	18190
826.346	18190
826.485	18243
826.625	18133
826.765	18376
826.904	18334
827.044	17996
827.183	17923
827.323	17798
827.462	17988
827.601	17961
827.741	17821
827.88	17939
828.02	17699
828.159	17916
828.298	17965
828.437	17927
828.577	17904
828.716	17992
828.855	17798
828.994	17718
829.134	17680
829.273	17741
829.412	17699
829.551	17619
829.69	17687
829.829	17661
829.968	17691
830.107	17726
830.246	17714
830.385	17482
830.524	17501
830.663	17482
830.802	17414
830.941	17227
831.08	17223
831.219	17417
831.357	17288
831.496	17353
831.635	17349
831.774	17117
831.913	17143
832.051	17018
832.19	16991
832.329	17105
832.467	16965
832.606	16873
832.744	16881
832.883	16889
833.022	16877
833.16	16961
833.299	16934
833.437	16991
833.576	17006
833.714	16946
833.852	16904
833.991	17045
834.129	17033
834.267	17075
834.406	17010
834.544	16965
834.682	16915
834.821	16934
834.959	17185
835.097	17025
835.235	17105
835.373	17037
835.511	17181
835.65	16843
835.788	16835
835.926	16733
836.064	16698
836.202	16774
836.34	16820
836.478	17022
836.615	16835
836.753	16957
836.891	16908
837.029	16866
837.167	16816
837.305	16835
837.443	16774
837.58	16687
837.718	16774
837.856	16733
837.993	16778
838.131	16664
838.269	16698
838.406	16672
838.544	16641
838.681	16550
838.819	16504
838.956	16265
839.094	16325
839.231	16371
839.369	16459
839.506	16630
839.643	16538
839.781	16360
839.918	16238
840.055	16303
840.193	16207
840.33	16268
840.467	16398
840.604	16371
840.742	16527
840.879	16101
841.016	16219
841.153	16116
841.29	16470
841.427	16447
841.564	16306
841.701	16367
841.838	16242
841.975	16192
842.112	16082
842.249	16074
842.385	16044
842.522	16329
842.659	16029
842.796	16097
842.933	16086
843.069	15994
843.206	16040
843.343	16158
843.479	16128
843.616	16120
843.752	15979
843.889	15850
844.025	16025
844.162	15789
844.298	15991
844.435	15812
844.571	15732
844.708	15892
844.844	15994
844.98	16051
845.117	15941
845.253	15835
845.389	15774
845.525	15949
845.661	15850
845.798	15854
845.934	15987
846.07	15861
846.206	16010
846.342	16112
846.478	15842
846.614	15614
846.75	15443
846.886	15405
847.022	15435
847.158	15492
847.294	15389
847.429	15435
847.565	15298
847.701	15717
847.837	15184
847.972	15146
848.108	15241
848.244	15241
848.379	15089
848.515	14986
848.65	14891
848.786	14990
848.921	15066
849.057	15104
849.192	15100
849.328	15154
849.463	14956
849.598	14941
849.734	14906
849.869	14838
850.004	14773
850.14	14750
850.275	14845
850.41	14610
850.545	14735
850.68	14788
850.815	14842
850.95	14777
851.085	14956
851.22	14861
851.355	14815
851.49	14754
851.625	14651
851.76	14743
851.895	14724
852.03	14670
852.165	14655
852.299	14792
852.434	14861
852.569	14796
852.703	14902
852.838	14842
852.973	14933
853.107	14956
853.242	14777
853.376	14708
853.511	14503
853.645	14636
853.78	14781
853.914	14640
854.048	14655
854.183	14606
854.317	14636
854.451	14811
854.585	14579
854.72	14575
854.854	14731
854.988	14533
855.122	14659
855.256	14454
855.39	14621
855.524	14663
855.658	14754
855.792	14663
855.926	14663
856.06	14655
856.194	14746
856.327	14689
856.461	14568
856.595	14617
856.729	14659
856.862	14724
856.996	14724
857.13	14640
857.263	14735
857.397	14758
857.53	14708
857.664	14678
857.797	14731
857.931	14705
858.064	14731
858.197	14724
858.331	14613
858.464	14571
858.597	14518
858.731	14590
858.864	14613
858.997	14594
859.13	14705
859.263	14644
859.396	14815
859.529	14602
859.662	14579
859.795	14625
859.928	14621
860.061	14895
860.194	14712
860.327	14655
860.46	14556
860.592	14731
860.725	14773
860.858	14739
860.99	14731
861.123	14514
861.256	14617
861.388	14621
861.521	15549
861.653	14541
861.786	14408
861.918	14438
862.05	14476
862.183	14560
862.315	14682
862.447	14663
862.58	14587
862.712	14385
862.844	14309
862.976	14507
863.108	14503
863.24	14929
863.372	14301
863.504	14442
863.636	14461
863.768	14465
863.9	14374
864.032	14336
864.164	14385
864.296	14507
864.428	14579
864.559	14514
864.691	14587
864.823	14454
864.954	14446
865.086	14511
865.217	14446
865.349	14305
865.48	14412
865.612	14454
865.743	14522
865.875	14366
866.006	14362
866.137	14404
866.269	14427
866.4	14400
866.531	14324
866.662	14317
866.793	14259
866.924	14343
867.055	14404
867.186	14461
867.317	14298
867.448	14256
867.579	14294
867.71	14278
867.841	14267
867.972	14423
868.103	14332
868.233	14366
868.364	14480
868.495	14526
868.625	14610
868.756	14670
868.886	14598
869.017	14610
869.147	14800
869.278	14750
869.408	14625
869.539	14583
869.669	14769
869.799	14678
869.929	14792
870.06	14697
870.19	14979
870.32	14914
870.45	14963
870.58	15112
870.71	15157
870.84	15169
870.97	15005
871.1	14990
871.23	15188
871.36	15275
871.489	15116
871.619	15233
871.749	15260
871.879	15283
872.008	15325
872.138	15233
872.267	15230
872.397	15112
872.526	15051
872.656	15017
872.785	15043
872.915	15298
873.044	15348
873.173	15214
873.303	15348
873.432	15283
873.561	15367
873.69	15233
873.819	15207
873.948	15405
874.077	15348
874.206	15252
874.335	15252
874.464	15386
874.593	15622
874.722	15485
874.851	15523
874.979	15648
875.108	15614
875.237	15538
875.365	15473
875.494	15553
875.623	15686
875.751	15542
875.88	15667
876.008	15732
876.136	15785
876.265	16010
876.393	16207
876.521	16029
876.65	16112
876.778	16017
876.906	15960
877.034	16010
877.162	16051
877.29	15945
877.418	16025
877.546	16021
877.674	15972
877.802	16051
877.93	16105
878.058	16025
878.185	15926
878.313	15926
878.441	16082
878.568	15850
878.696	16051
878.824	16116
878.951	16166
879.079	16314
879.206	16382
879.333	16268
879.461	16181
879.588	16322
879.715	16257
879.842	16386
879.97	16242
880.097	15975
880.224	15960
880.351	15876
880.478	15922
880.605	15884
880.732	15915
880.859	16173
880.986	15907
881.112	15918
881.239	15743
881.366	15606
881.493	15542
881.619	15523
881.746	15530
881.872	15542
881.999	15523
882.125	15507
882.252	15576
882.378	15500
882.505	15682
882.631	15477
882.757	15435
882.883	15488
883.01	15241
883.136	15332
883.262	15173
883.388	15249
883.514	15310
883.64	15378
883.766	15310
883.892	15207
884.018	15195
884.143	15287
884.269	15458
884.395	15123
884.52	15028
884.646	15100
884.772	14971
884.897	14941
885.023	15089
885.148	15226
885.274	15245
885.399	15154
885.524	15020
885.65	15066
885.775	15039
885.9	15081
886.025	15211
886.15	15207
886.275	15039
886.4	15005
886.525	14971
886.65	15005
886.775	14986
886.9	15077
887.025	15256
887.149	15020
887.274	14857
887.399	14781
887.523	14830
887.648	14724
887.773	14804
887.897	14853
888.021	14861
888.146	14834
888.27	14895
888.395	14948
888.519	14887
888.643	14845
888.767	14921
888.891	14868
889.015	14613
889.139	14800
889.263	14682
889.387	14788
889.511	14906
889.635	14807
889.759	14632
889.883	14606
890.006	14735
890.13	14773
890.254	14579
890.377	14712
890.501	14473
890.624	14518
890.748	14625
890.871	14457
890.995	14328
891.118	14351
891.241	14514
891.364	14355
891.488	14473
891.611	14351
891.734	14396
891.857	14400
891.98	14431
892.103	14412
892.226	14431
892.349	14415
892.471	14309
892.594	14294
892.717	14488
892.839	14358
892.962	14423
893.085	14438
893.207	14336
893.33	14176
893.452	14324
893.575	14446
893.697	14324
893.819	14545
893.941	14579
894.064	14488
894.186	14457
894.308	14309
894.43	14488
894.552	14587
894.674	14503
894.796	14377
894.918	14457
895.04	14381
895.161	14518
895.283	14526
895.405	14446
895.526	14511
895.648	14408
895.769	14499
895.891	14651
896.012	14621
896.134	14606
896.255	14507
896.376	14412
896.498	14556
896.619	14610
896.74	14514
896.861	14644
896.982	14933
897.103	15123
897.224	14819
897.345	14807
897.466	14792
897.587	14861
897.708	14925
897.828	14819
897.949	14746
898.07	14724
898.19	14750
898.311	14906
898.431	14857
898.552	14906
898.672	14956
898.792	14929
898.913	14876
899.033	14868
899.153	14834
899.273	14697
899.393	14720
899.513	14697
899.633	14743
899.753	14788
899.873	14648
899.993	14804
900.113	14739
900.232	14788
900.352	14777
900.472	14716
900.591	14583
900.711	14659
900.83	14621
900.95	14731
901.069	14750
901.189	14629
901.308	14400
901.427	14298
901.546	14339
901.665	14355
901.784	14294
901.904	14221
902.023	14039
902.141	14008
902.26	13833
902.379	13921
902.498	13807
902.617	13811
902.735	13909
902.854	13871
902.973	13807
903.091	13529
903.21	13582
903.328	13594
903.446	13544
903.565	13403
903.683	13518
903.801	13331
903.919	13434
904.038	13362
904.156	13209
904.274	13221
904.392	13274
904.51	13187
904.627	13278
904.745	13198
904.863	13316
904.981	13015
905.098	12863
905.216	12920
905.334	12947
905.451	12981
905.569	12928
905.686	12916
905.803	12966
905.921	12768
906.038	12749
906.155	12612
906.272	12623
906.389	12730
906.506	12517
906.623	12582
906.74	12456
906.857	12350
906.974	12464
907.091	12513
907.208	12559
907.324	12559
907.441	12330
907.557	12289
907.674	12254
907.79	12228
907.907	12258
908.023	12277
908.139	12201
908.256	12216
908.372	12285
908.488	12136
908.604	12011
908.72	11958
908.836	11958
908.952	11954
909.068	12034
909.184	12106
909.3	11988
909.415	11992
909.531	11923
909.647	11745
909.762	11767
909.878	11760
909.993	11870
910.108	11821
910.224	11710
910.339	11745
910.454	11653
910.57	11592
910.685	11623
910.8	11874
910.915	11729
911.03	11684
911.145	11501
911.259	11345
911.374	11459
911.489	11391
911.604	11299
911.718	11239
911.833	11269
911.947	11140
912.062	11033
912.176	11140
912.291	11231
912.405	11208
912.519	11360
912.633	11387
912.748	11356
912.862	11201
912.976	11151
913.09	10991
913.204	10965
913.318	11014
913.431	11265
913.545	11079
913.659	11147
913.772	11022
913.886	10995
914	11006
914.113	11083
914.226	11064
914.34	11041
914.453	10889
914.566	11067
914.68	10877
914.793	10839
914.906	10698
915.019	10675
915.132	10683
915.245	10645
915.358	10649
915.47	10607
915.583	10744
915.696	10778
915.809	10835
915.921	10801
916.034	10679
916.146	10637
916.259	10641
916.371	10740
916.483	10721
916.595	10622
916.708	10694
916.82	10596
916.932	10664
917.044	10573
917.156	10622
917.268	10500
917.38	10474
917.491	10535
917.603	10573
917.715	10618
917.826	10645
917.938	10504
918.049	10371
918.161	10527
918.272	10660
918.384	10683
918.495	10599
918.606	10443
918.717	10280
918.828	10436
918.939	10481
919.05	10405
919.161	10390
919.272	10185
919.383	10299
919.494	10390
919.604	10596
919.715	10424
919.826	10474
919.936	10367
920.047	10413
920.157	10409
920.267	10542
920.378	10413
920.488	10478
920.598	10634
920.708	10839
920.818	10691
920.928	10569
921.038	10736
921.148	10721
921.258	10436
921.368	10390
921.477	10333
921.587	10314
921.697	10265
921.806	10196
921.916	10143
922.025	10048
922.134	10010
922.244	9903
922.353	10025
922.462	9857
922.571	9789
922.68	9671
922.789	9637
922.898	9637
923.007	9564
923.116	9705
923.224	9545
923.333	9660
923.442	9564
923.55	9542
923.659	9477
923.767	9614
923.876	9477
923.984	9545
924.092	9492
924.201	9469
924.309	9488
924.417	9534
924.525	9450
924.633	9481
924.741	10451
924.849	9245
924.956	9378
925.064	9253
925.172	9230
925.279	9272
925.387	9378
925.494	9287
925.602	9481
925.709	9405
925.816	9237
925.924	9340
926.031	9363
926.138	9253
926.245	9363
926.352	9283
926.459	9393
926.566	9389
926.673	9211
926.779	9169
926.886	9169
926.993	9051
927.099	9047
927.206	8979
927.312	8933
927.419	9036
927.525	9009
927.631	8960
927.737	8982
927.843	8948
927.95	8823
928.056	8914
928.162	8861
928.267	8975
928.373	9625
928.479	8929
928.585	8781
928.69	8876
928.796	8956
928.901	8857
929.007	8686
929.112	8861
929.218	8800
929.323	8708
929.428	8697
929.533	8861
929.638	8670
929.743	8701
929.848	8720
929.953	8693
930.058	8625
930.163	8465
930.267	8495
930.372	8606
930.477	8465
930.581	8701
930.685	8511
930.79	8427
930.894	8476
930.998	8374
931.103	8617
931.207	8195
931.311	8172
931.415	8103
931.519	7951
931.623	7940
