Data from test_V78500241_648.txt Node
Date: Fri Mar 25 14:38:13 CST 2022
User: usil
Spectrometer: V785-0024
Trigger mode: 0
Integration Time (sec): 4.000000E-1
Scans to average: 1
Nonlinearity correction enabled: false
Boxcar width: 0
Storing dark spectrum: false
XAxis mode: Wavelengths
Number of Pixels in Spectrum: 1024
>>>>>Begin Spectral Data<<<<<
801.071	27987
801.214	27861
801.356	27549
801.499	27606
801.641	27374
801.783	27351
801.926	27370
802.068	27207
802.211	27112
802.353	26986
802.496	26921
802.638	26944
802.78	26857
802.923	26826
803.065	26708
803.208	26765
803.35	26788
803.492	26883
803.635	26933
803.777	26902
803.919	27005
804.061	27298
804.204	27161
804.346	27024
804.488	27024
804.63	27100
804.773	26918
804.915	27230
805.057	27313
805.199	27173
805.341	27272
805.483	27351
805.626	27568
805.768	27511
805.91	27644
806.052	27568
806.194	27865
806.336	28150
806.478	28131
806.62	28238
806.762	28542
806.904	28984
807.046	29349
807.188	29752
807.33	30083
807.472	30437
807.614	31099
807.756	31959
807.898	32887
808.04	34169
808.182	36015
808.324	38206
808.465	40717
808.607	43693
808.749	46379
808.891	47783
809.033	47935
809.174	46348
809.316	43879
809.458	40987
809.6	37849
809.741	35600
809.883	33690
810.025	32412
810.166	31403
810.308	30783
810.45	30011
810.591	29668
810.733	29193
810.875	28873
811.016	28550
811.158	28413
811.299	28493
811.441	28268
811.582	28226
811.724	27972
811.865	27911
812.007	27717
812.148	27709
812.29	27679
812.431	27808
812.573	27778
812.714	27838
812.855	28010
812.997	28002
813.138	28223
813.279	27941
813.421	27800
813.562	27713
813.703	27591
813.845	27427
813.986	27032
814.127	26788
814.268	26731
814.41	26739
814.551	26560
814.692	26731
814.833	26507
814.974	26446
815.115	26469
815.256	26492
815.397	26301
815.539	26495
815.68	26202
815.821	26221
815.962	26100
816.103	26024
816.244	26081
816.385	25925
816.526	25788
816.666	25757
816.807	25616
816.948	25483
817.089	25575
817.23	25521
817.371	25502
817.512	25419
817.653	25392
817.793	25247
817.934	25403
818.075	25441
818.216	25479
818.356	25362
818.497	25274
818.638	25129
818.778	25053
818.919	25084
819.06	25198
819.2	25263
819.341	25304
819.481	25259
819.622	25350
819.762	25571
819.903	25552
820.043	25346
820.184	25487
820.324	25354
820.465	25297
820.605	25308
820.746	25244
820.886	25110
821.026	25171
821.167	25190
821.307	25293
821.447	25141
821.588	24970
821.728	24791
821.868	24719
822.008	24578
822.149	24616
822.289	24544
822.429	24174
822.569	24190
822.709	24262
822.849	24034
822.99	23984
823.13	24022
823.27	23939
823.41	23923
823.55	23642
823.69	23779
823.83	23813
823.97	23630
824.11	23398
824.25	23505
824.389	23547
824.529	23562
824.669	23608
824.809	23661
824.949	23493
825.089	23497
825.228	23463
825.368	23353
825.508	23277
825.648	23429
825.787	23318
825.927	23402
826.067	23178
826.206	23204
826.346	23296
826.485	23360
826.625	23296
826.765	23379
826.904	23136
827.044	23147
827.183	22968
827.323	22908
827.462	23105
827.601	22976
827.741	22953
827.88	22877
828.02	22736
828.159	22911
828.298	22915
828.437	22927
828.577	22866
828.716	23052
828.855	22755
828.994	22710
829.134	22664
829.273	22649
829.412	22672
829.551	22603
829.69	22531
829.829	22622
829.968	22535
830.107	22729
830.246	22542
830.385	22489
830.524	22622
830.663	22451
830.802	22428
830.941	22154
831.08	22196
831.219	22093
831.357	22226
831.496	22318
831.635	22173
831.774	22158
831.913	22185
832.051	21991
832.19	22040
832.329	21987
832.467	22044
832.606	22097
832.744	21968
832.883	22059
833.022	22074
833.16	22360
833.299	22371
833.437	22459
833.576	22618
833.714	22679
833.852	22892
833.991	22968
834.129	22972
834.267	23010
834.406	22862
834.544	22938
834.682	22930
834.821	22694
834.959	22721
835.097	22417
835.235	22424
835.373	22360
835.511	22158
835.65	22067
835.788	21972
835.926	21831
836.064	21694
836.202	21583
836.34	21781
836.478	21797
836.615	21698
836.753	21797
836.891	21838
837.029	21660
837.167	21686
837.305	21622
837.443	21694
837.58	21462
837.718	21583
837.856	21424
837.993	21519
838.131	21492
838.269	21526
838.406	21462
838.544	21336
838.681	21256
838.819	21131
838.956	20948
839.094	20986
839.231	21127
839.369	21100
839.506	21374
839.643	21237
839.781	20929
839.918	20941
840.055	20952
840.193	20960
840.33	20845
840.467	20918
840.604	20853
840.742	21013
840.879	20857
841.016	20826
841.153	20781
841.29	21036
841.427	20895
841.564	20845
841.701	20739
841.838	20845
841.975	20762
842.112	20849
842.249	20746
842.385	20568
842.522	20902
842.659	20781
842.796	20636
842.933	20667
843.069	20731
843.206	20663
843.343	20895
843.479	20899
843.616	20777
843.752	20731
843.889	20758
844.025	20838
844.162	20929
844.298	21077
844.435	21066
844.571	21218
844.708	21507
844.844	21816
844.98	22169
845.117	22805
845.253	23524
845.389	25076
845.525	28390
845.661	33340
845.798	39275
845.934	43693
846.07	45401
846.206	44301
846.342	40249
846.478	34204
846.614	29067
846.75	25685
846.886	23767
847.022	22531
847.158	21762
847.294	21287
847.429	20811
847.565	20598
847.701	20880
847.837	20267
847.972	19928
848.108	20020
848.244	20054
848.379	19917
848.515	19826
848.65	19807
848.786	19639
848.921	19639
849.057	19750
849.192	19753
849.328	19620
849.463	19586
849.598	19502
849.734	19491
849.869	19449
850.004	19400
850.14	19289
850.275	19270
850.41	19240
850.545	19247
850.68	19289
850.815	19244
850.95	19301
851.085	19422
851.22	19350
851.355	19251
851.49	19171
851.625	19221
851.76	19160
851.895	19202
852.03	19148
852.165	19251
852.299	19316
852.434	19339
852.569	19320
852.703	19301
852.838	19297
852.973	19483
853.107	19548
853.242	19308
853.376	19384
853.511	19228
853.645	19304
853.78	19502
853.914	19419
854.048	19312
854.183	19407
854.317	19491
854.451	19685
854.585	19567
854.72	19419
854.854	19460
854.988	19362
855.122	19308
855.256	19148
855.39	19240
855.524	19384
855.658	19141
855.792	19091
855.926	19168
856.06	19232
856.194	19251
856.327	19076
856.461	19084
856.595	19095
856.729	19042
856.862	19084
856.996	19103
857.13	19187
857.263	19118
857.397	19129
857.53	19069
857.664	19114
857.797	19114
857.931	19126
858.064	19091
858.197	19103
858.331	18958
858.464	18897
858.597	18863
858.731	18901
858.864	18890
858.997	18954
859.13	18958
859.263	18939
859.396	19088
859.529	18856
859.662	18844
859.795	18859
859.928	19038
860.061	19038
860.194	19072
860.327	18928
860.46	18951
860.592	18989
860.725	19019
860.858	19034
860.99	18878
861.123	18817
861.256	18783
861.388	18863
861.521	19620
861.653	18787
861.786	18677
861.918	18791
862.05	18856
862.183	18867
862.315	18935
862.447	19015
862.58	18859
862.712	18635
862.844	18528
862.976	18700
863.108	18715
863.24	18932
863.372	18528
863.504	18593
863.636	18544
863.768	18722
863.9	18585
864.032	18525
864.164	18608
864.296	18646
864.428	18730
864.559	18658
864.691	18627
864.823	18593
864.954	18563
865.086	18658
865.217	18448
865.349	18452
865.48	18490
865.612	18456
865.743	18642
865.875	18448
866.006	18418
866.137	18502
866.269	18460
866.4	18608
866.531	18467
866.662	18315
866.793	18369
866.924	18521
867.055	18475
867.186	18521
867.317	18407
867.448	18281
867.579	18452
867.71	18292
867.841	18380
867.972	18563
868.103	18494
868.233	18410
868.364	18502
868.495	18582
868.625	18627
868.756	18837
868.886	18612
869.017	18669
869.147	18875
869.278	18821
869.408	18871
869.539	18726
869.669	18882
869.799	18795
869.929	18833
870.06	18833
870.19	19091
870.32	19034
870.45	19053
870.58	19198
870.71	19266
870.84	19179
870.97	19164
871.1	19129
871.23	19354
871.36	19373
871.489	19384
871.619	19411
871.749	19324
871.879	19327
872.008	19590
872.138	19506
872.267	19460
872.397	19331
872.526	19331
872.656	19247
872.785	19343
872.915	19571
873.044	19655
873.173	19502
873.303	19624
873.432	19734
873.561	19727
873.69	19616
873.819	19681
873.948	19837
874.077	19814
874.206	19830
874.335	19803
874.464	19974
874.593	20020
874.722	20168
874.851	20259
874.979	20130
875.108	20267
875.237	20039
875.365	20237
875.494	20233
875.623	20438
875.751	20126
875.88	20362
876.008	20682
876.136	20697
876.265	20998
876.393	21028
876.521	21062
876.65	21142
876.778	21009
876.906	21036
877.034	21112
877.162	21176
877.29	21165
877.418	21264
877.546	21405
877.674	21523
877.802	21542
877.93	21675
878.058	21770
878.185	22025
878.313	22303
878.441	22565
878.568	22862
878.696	23376
878.824	24060
878.951	25091
879.079	26484
879.206	28162
879.333	29996
879.461	31476
879.588	32590
879.715	32693
879.842	31723
879.97	30072
880.097	28158
880.224	26796
880.351	25769
880.478	24935
880.605	24566
880.732	24174
880.859	24068
880.986	23684
881.112	23687
881.239	23505
881.366	23520
881.493	23208
881.619	23239
881.746	23353
881.872	23197
881.999	23296
882.125	23337
882.252	23410
882.378	23478
882.505	23638
882.631	23360
882.757	23429
882.883	23303
883.01	23246
883.136	23303
883.262	23170
883.388	23079
883.514	23048
883.64	23220
883.766	23098
883.892	22953
884.018	22953
884.143	23174
884.269	23162
884.395	23022
884.52	22911
884.646	22934
884.772	22866
884.897	22862
885.023	22968
885.148	23033
885.274	22911
885.399	22839
885.524	22504
885.65	22611
885.775	22508
885.9	22333
886.025	22527
886.15	22105
886.275	22093
886.4	21804
886.525	21755
886.65	21504
886.775	21526
886.9	21492
887.025	21564
887.149	21287
887.274	21085
887.399	20967
887.523	20864
887.648	20853
887.773	20522
887.897	20785
888.021	20689
888.146	20476
888.27	20568
888.395	20598
888.519	20480
888.643	20412
888.767	20438
888.891	20233
889.015	20092
889.139	20157
889.263	19989
889.387	20050
889.511	20145
889.635	20065
889.759	19871
889.883	19833
890.006	19803
890.13	19791
890.254	19693
890.377	19696
890.501	19506
890.624	19491
890.748	19525
890.871	19270
890.995	19255
891.118	19126
891.241	19251
891.364	19122
891.488	19194
891.611	19114
891.734	19148
891.857	19194
891.98	19053
892.103	19114
892.226	19061
892.349	18913
892.471	18768
892.594	18875
892.717	18924
892.839	18787
892.962	18852
893.085	18779
893.207	18711
893.33	18650
893.452	18574
893.575	18791
893.697	18604
893.819	18772
893.941	18844
894.064	18696
894.186	18452
894.308	18540
894.43	18627
894.552	18734
894.674	18669
894.796	18350
894.918	18448
895.04	18544
895.161	18532
895.283	18479
895.405	18525
895.526	18464
895.648	18407
895.769	18334
895.891	18593
896.012	18464
896.134	18448
896.255	18494
896.376	18289
896.498	18342
896.619	18361
896.74	18338
896.861	18456
896.982	18719
897.103	18966
897.224	18540
897.345	18547
897.466	18555
897.587	18570
897.708	18620
897.828	18612
897.949	18464
898.07	18426
898.19	18467
898.311	18711
898.431	18544
898.552	18536
898.672	18665
898.792	18555
898.913	18490
899.033	18426
899.153	18330
899.273	18311
899.393	18266
899.513	18376
899.633	18292
899.753	18315
899.873	18410
899.993	18296
900.113	18311
900.232	18262
900.352	18258
900.472	18125
900.591	18041
900.711	18228
900.83	17977
900.95	18174
901.069	18133
901.189	17992
901.308	17748
901.427	17775
901.546	17646
901.665	17653
901.784	17805
901.904	17570
902.023	17387
902.141	17303
902.26	17136
902.379	17334
902.498	17083
902.617	17136
902.735	17147
902.854	17109
902.973	17025
903.091	16812
903.21	16782
903.328	16816
903.446	16713
903.565	16637
903.683	16554
903.801	16421
903.919	16474
904.038	16584
904.156	16436
904.274	16299
904.392	16287
904.51	16284
904.627	16253
904.745	16367
904.863	16329
904.981	16071
905.098	15949
905.216	15945
905.334	15945
905.451	16006
905.569	15945
905.686	16017
905.803	15937
905.921	15755
906.038	15812
906.155	15755
906.272	15656
906.389	15618
906.506	15431
906.623	15496
906.74	15416
906.857	15363
906.974	15397
907.091	15538
907.208	15515
907.324	15568
907.441	15321
907.557	15226
907.674	15256
907.79	15097
907.907	15104
908.023	15218
908.139	15119
908.256	15207
908.372	15089
908.488	15047
908.604	14918
908.72	14876
908.836	14910
908.952	14781
909.068	14815
909.184	15028
909.3	14910
909.415	14872
909.531	14910
909.647	14727
909.762	14693
909.878	14571
909.993	14564
910.108	14533
910.224	14575
910.339	14564
910.454	14583
910.57	14377
910.685	14374
910.8	14689
910.915	14579
911.03	14492
911.145	14324
911.259	14275
911.374	14233
911.489	14161
911.604	14126
911.718	13944
911.833	14077
911.947	13944
912.062	13765
912.176	13951
912.291	13982
912.405	13887
912.519	14161
912.633	14145
912.748	14035
912.862	14012
912.976	13769
913.09	13704
913.204	13849
913.318	13826
913.431	13928
913.545	13871
913.659	13856
913.772	13723
913.886	13647
914	13712
914.113	13666
914.226	13742
914.34	13677
914.453	13559
914.566	13696
914.68	13586
914.793	13529
914.906	13270
915.019	13278
915.132	13263
915.245	13381
915.358	13354
915.47	13289
915.583	13388
915.696	13320
915.809	13457
915.921	13529
916.034	13343
916.146	13293
916.259	13270
916.371	13411
916.483	13384
916.595	13293
916.708	13301
916.82	13304
916.932	13259
917.044	13251
917.156	13236
917.268	13118
917.38	13126
917.491	13069
917.603	13076
917.715	13198
917.826	13156
917.938	13034
918.049	12920
918.161	13084
918.272	13084
918.384	13118
918.495	12947
918.606	12848
918.717	12852
918.828	12768
918.939	12840
919.05	12837
919.161	12764
919.272	12566
919.383	12635
919.494	12791
919.604	12943
919.715	12916
919.826	12635
919.936	12768
920.047	12890
920.157	12783
920.267	12920
920.378	12852
920.488	12654
920.598	12977
920.708	13145
920.818	12962
920.928	12932
921.038	12973
921.148	13038
921.258	12669
921.368	12547
921.477	12635
921.587	12559
921.697	12437
921.806	12597
921.916	12376
922.025	12334
922.134	12201
922.244	12201
922.353	12194
922.462	12140
922.571	12064
922.68	11897
922.789	11950
922.898	11836
923.007	11923
923.116	11912
923.224	11863
923.333	11828
923.442	11714
923.55	11623
923.659	11809
923.767	11729
923.876	11733
923.984	11790
924.092	11634
924.201	11691
924.309	11627
924.417	11672
924.525	11589
924.633	11604
924.741	12372
924.849	11474
924.956	11516
925.064	11406
925.172	11296
925.279	11452
925.387	11467
925.494	11421
925.602	11455
925.709	11429
925.816	11337
925.924	11330
926.031	11425
926.138	11398
926.245	11406
926.352	11341
926.459	11414
926.566	11467
926.673	11311
926.779	11193
926.886	11143
926.993	11003
927.099	11003
927.206	10984
927.312	10923
927.419	11105
927.525	11006
927.631	10972
927.737	10915
927.843	10885
927.95	10721
928.056	10850
928.162	10900
928.267	10881
928.373	11433
928.479	10953
928.585	10710
928.69	10900
928.796	10908
928.901	10755
929.007	10622
929.112	10687
929.218	10733
929.323	10664
929.428	10611
929.533	10744
929.638	10531
929.743	10584
929.848	10641
929.953	10565
930.058	10440
930.163	10367
930.267	10367
930.372	10466
930.477	10371
930.581	10542
930.685	10424
930.79	10204
930.894	10272
930.998	10227
931.103	10314
931.207	10032
931.311	9983
931.415	9880
931.519	9709
931.623	9614
