Data from test_V78500241_1323.txt Node
Date: Fri Mar 25 14:42:55 CST 2022
User: usil
Spectrometer: V785-0024
Trigger mode: 0
Integration Time (sec): 4.000000E-1
Scans to average: 1
Nonlinearity correction enabled: false
Boxcar width: 0
Storing dark spectrum: false
XAxis mode: Wavelengths
Number of Pixels in Spectrum: 1024
>>>>>Begin Spectral Data<<<<<
801.071	22459
801.214	22413
801.356	22131
801.499	21987
801.641	21785
801.783	21762
801.926	21819
802.068	21781
802.211	21671
802.353	21660
802.496	21363
802.638	21302
802.78	21260
802.923	21142
803.065	21077
803.208	21093
803.35	21176
803.492	21074
803.635	21169
803.777	21070
803.919	21165
804.061	21370
804.204	21222
804.346	21070
804.488	20948
804.63	21032
804.773	20834
804.915	21024
805.057	21077
805.199	21077
805.341	21180
805.483	21096
805.626	21085
805.768	20975
805.91	21009
806.052	21036
806.194	20891
806.336	21283
806.478	21024
806.62	21077
806.762	21070
806.904	21123
807.046	21458
807.188	21370
807.33	21355
807.472	21370
807.614	21321
807.756	21283
807.898	21260
808.04	21146
808.182	21222
808.324	21260
808.465	21184
808.607	21405
808.749	21523
808.891	21671
809.033	21789
809.174	21774
809.316	21690
809.458	21587
809.6	21466
809.741	21557
809.883	21523
810.025	21709
810.166	21648
810.308	21675
810.45	21462
810.591	21504
810.733	21268
810.875	21283
811.016	21108
811.158	21096
811.299	21241
811.441	21378
811.582	21374
811.724	21173
811.865	21146
812.007	21192
812.148	21283
812.29	21317
812.431	21340
812.573	21287
812.714	21698
812.855	21743
812.997	21728
813.138	21861
813.279	21827
813.421	21736
813.562	21610
813.703	21389
813.845	21302
813.986	21100
814.127	20941
814.268	20777
814.41	20804
814.551	20689
814.692	20899
814.833	20686
814.974	20609
815.115	20777
815.256	20533
815.397	20537
815.539	20621
815.68	20530
815.821	20461
815.962	20473
816.103	20404
816.244	20244
816.385	20081
816.526	20237
816.666	20103
816.807	19982
816.948	19913
817.089	20008
817.23	19978
817.371	19951
817.512	19871
817.653	19913
817.793	19887
817.934	19970
818.075	19906
818.216	19890
818.356	19871
818.497	19655
818.638	19567
818.778	19738
818.919	19590
819.06	19632
819.2	19734
819.341	19765
819.481	19681
819.622	19913
819.762	20206
819.903	20020
820.043	19951
820.184	19890
820.324	19883
820.465	19906
820.605	19921
820.746	19921
820.886	19738
821.026	19898
821.167	19932
821.307	19894
821.447	19887
821.588	19746
821.728	19613
821.868	19453
822.008	19358
822.149	19217
822.289	19206
822.429	19061
822.569	18894
822.709	19110
822.849	18814
822.99	18833
823.13	18783
823.27	18661
823.41	18696
823.55	18502
823.69	18639
823.83	18582
823.97	18426
824.11	18262
824.25	18315
824.389	18327
824.529	18437
824.669	18384
824.809	18464
824.949	18532
825.089	18357
825.228	18330
825.368	18197
825.508	18197
825.648	18121
825.787	18163
825.927	18232
826.067	18030
826.206	18110
826.346	18152
826.485	18091
826.625	18079
826.765	18213
826.904	18114
827.044	17870
827.183	17897
827.323	17805
827.462	17843
827.601	17874
827.741	17843
827.88	17882
828.02	17748
828.159	17745
828.298	17931
828.437	17878
828.577	17798
828.716	17950
828.855	17752
828.994	17672
829.134	17604
829.273	17539
829.412	17490
829.551	17516
829.69	17505
829.829	17585
829.968	17699
830.107	17714
830.246	17646
830.385	17474
830.524	17478
830.663	17414
830.802	17315
830.941	17265
831.08	17143
831.219	17315
831.357	17258
831.496	17433
831.635	17231
831.774	17102
831.913	17178
832.051	16987
832.19	16976
832.329	17045
832.467	17014
832.606	16949
832.744	16930
832.883	16904
833.022	16862
833.16	16923
833.299	16942
833.437	17033
833.576	16976
833.714	17003
833.852	17048
833.991	16930
834.129	17159
834.267	17090
834.406	16923
834.544	17048
834.682	17064
834.821	16972
834.959	17117
835.097	16820
835.235	16965
835.373	16968
835.511	16965
835.65	16881
835.788	16843
835.926	16637
836.064	16607
836.202	16710
836.34	16900
836.478	16900
836.615	16881
836.753	16911
836.891	16911
837.029	16824
837.167	16816
837.305	16881
837.443	16839
837.58	16782
837.718	16877
837.856	16831
837.993	16759
838.131	16694
838.269	16618
838.406	16675
838.544	16622
838.681	16402
838.819	16402
838.956	16226
839.094	16272
839.231	16322
839.369	16443
839.506	16668
839.643	16512
839.781	16352
839.918	16116
840.055	16329
840.193	16333
840.33	16192
840.467	16325
840.604	16341
840.742	16443
840.879	16124
841.016	16185
841.153	16048
841.29	16356
841.427	16314
841.564	16265
841.701	16276
841.838	16166
841.975	16150
842.112	16211
842.249	16013
842.385	16067
842.522	16226
842.659	16082
842.796	16090
842.933	16078
843.069	15987
843.206	16002
843.343	16128
843.479	16143
843.616	16059
843.752	15956
843.889	15873
844.025	16029
844.162	15861
844.298	15850
844.435	15846
844.571	15857
844.708	15823
844.844	16044
844.98	15968
845.117	15956
845.253	15838
845.389	15781
845.525	15827
845.661	15854
845.798	15770
845.934	15994
846.07	15968
846.206	15915
846.342	15869
846.478	15724
846.614	15515
846.75	15477
846.886	15389
847.022	15511
847.158	15428
847.294	15378
847.429	15481
847.565	15435
847.701	15637
847.837	15116
847.972	15180
848.108	15230
848.244	15226
848.379	14979
848.515	15028
848.65	14963
848.786	14967
848.921	14986
849.057	14979
849.192	15112
849.328	14960
849.463	15051
849.598	14941
849.734	14868
849.869	14956
850.004	14762
850.14	14788
850.275	14804
850.41	14762
850.545	14727
850.68	14678
850.815	14758
850.95	14731
851.085	14929
851.22	14815
851.355	14823
851.49	14701
851.625	14762
851.76	14739
851.895	14689
852.03	14587
852.165	14731
852.299	14727
852.434	14838
852.569	14834
852.703	14910
852.838	14819
852.973	14902
853.107	14944
853.242	14785
853.376	14663
853.511	14610
853.645	14579
853.78	14792
853.914	14727
854.048	14644
854.183	14602
854.317	14602
854.451	14834
854.585	14651
854.72	14541
854.854	14689
854.988	14564
855.122	14617
855.256	14610
855.39	14697
855.524	14663
855.658	14640
855.792	14765
855.926	14545
856.06	14724
856.194	14705
856.327	14613
856.461	14678
856.595	14602
856.729	14617
856.862	14701
856.996	14644
857.13	14693
857.263	14750
857.397	14697
857.53	14689
857.664	14705
857.797	14701
857.931	14823
858.064	14750
858.197	14743
858.331	14598
858.464	14537
858.597	14522
858.731	14583
858.864	14636
858.997	14689
859.13	14663
859.263	14552
859.396	14667
859.529	14610
859.662	14636
859.795	14552
859.928	14667
860.061	14758
860.194	14788
860.327	14758
860.46	14629
860.592	14853
860.725	14727
860.858	14823
860.99	14610
861.123	14469
861.256	14522
861.388	14644
861.521	15298
861.653	14511
861.786	14526
861.918	14454
862.05	14552
862.183	14545
862.315	14564
862.447	14727
862.58	14511
862.712	14427
862.844	14389
862.976	14526
863.108	14457
863.24	14887
863.372	14366
863.504	14381
863.636	14374
863.768	14408
863.9	14396
864.032	14347
864.164	14370
864.296	14469
864.428	14480
864.559	14473
864.691	14503
864.823	14488
864.954	14465
865.086	14400
865.217	14393
865.349	14347
865.48	14385
865.612	14434
865.743	14556
865.875	14377
866.006	14332
866.137	14313
866.269	14408
866.4	14446
866.531	14427
866.662	14343
866.793	14400
866.924	14389
867.055	14347
867.186	14358
867.317	14343
867.448	14415
867.579	14343
867.71	14282
867.841	14294
867.972	14366
868.103	14309
868.233	14328
868.364	14358
868.495	14495
868.625	14632
868.756	14743
868.886	14431
869.017	14632
869.147	14746
869.278	14720
869.408	14629
869.539	14610
869.669	14648
869.799	14670
869.929	14636
870.06	14792
870.19	14895
870.32	14929
870.45	14933
870.58	14998
870.71	15157
870.84	15176
870.97	14967
871.1	15028
871.23	15112
871.36	15272
871.489	15207
871.619	15233
871.749	15127
871.879	15294
872.008	15321
872.138	15237
872.267	15241
872.397	15074
872.526	15062
872.656	14971
872.785	15077
872.915	15237
873.044	15287
873.173	15275
873.303	15222
873.432	15264
873.561	15275
873.69	15249
873.819	15214
873.948	15363
874.077	15310
874.206	15237
874.335	15359
874.464	15363
874.593	15545
874.722	15424
874.851	15690
874.979	15660
875.108	15584
875.237	15481
875.365	15534
875.494	15564
875.623	15743
875.751	15507
875.88	15629
876.008	15713
876.136	15812
876.265	16032
876.393	16051
876.521	16006
876.65	16071
876.778	16101
876.906	15926
877.034	15968
877.162	15994
877.29	16029
877.418	16055
877.546	16059
877.674	16135
877.802	15987
877.93	16036
878.058	15979
878.185	15865
878.313	15987
878.441	15998
878.568	15884
878.696	15983
878.824	16128
878.951	16150
879.079	16207
879.206	16314
879.333	16310
879.461	16268
879.588	16226
879.715	16226
879.842	16352
879.97	16021
880.097	15907
880.224	15903
880.351	15884
880.478	15987
880.605	15869
880.732	15816
880.859	16082
880.986	15895
881.112	15937
881.239	15808
881.366	15591
881.493	15614
881.619	15523
881.746	15538
881.872	15553
881.999	15462
882.125	15481
882.252	15481
882.378	15458
882.505	15660
882.631	15435
882.757	15302
882.883	15420
883.01	15355
883.136	15252
883.262	15199
883.388	15203
883.514	15298
883.64	15424
883.766	15367
883.892	15169
884.018	15116
884.143	15348
884.269	15397
884.395	15154
884.52	15150
884.646	15017
884.772	14967
884.897	14857
885.023	15097
885.148	15180
885.274	15252
885.399	15119
885.524	15093
885.65	15119
885.775	15058
885.9	15036
886.025	15214
886.15	15097
886.275	15108
886.4	14960
886.525	15085
886.65	14948
886.775	15032
886.9	15020
887.025	15306
887.149	15077
887.274	14891
887.399	14792
887.523	14834
887.648	14914
887.773	14807
887.897	14895
888.021	14937
888.146	14708
888.27	14910
888.395	14910
888.519	14967
888.643	15066
888.767	14872
888.891	14811
889.015	14750
889.139	14735
889.263	14693
889.387	14899
889.511	14887
889.635	14785
889.759	14724
889.883	14765
890.006	14720
890.13	14804
890.254	14606
890.377	14735
890.501	14492
890.624	14438
890.748	14556
890.871	14495
890.995	14320
891.118	14374
891.241	14366
891.364	14393
891.488	14552
891.611	14347
891.734	14469
891.857	14385
891.98	14450
892.103	14518
892.226	14389
892.349	14381
892.471	14240
892.594	14366
892.717	14476
892.839	14385
892.962	14328
893.085	14484
893.207	14381
893.33	14339
893.452	14336
893.575	14461
893.697	14385
893.819	14549
893.941	14564
894.064	14488
894.186	14366
894.308	14415
894.43	14545
894.552	14625
894.674	14507
894.796	14393
894.918	14374
895.04	14431
895.161	14511
895.283	14480
895.405	14396
895.526	14511
895.648	14438
895.769	14545
895.891	14606
896.012	14655
896.134	14651
896.255	14469
896.376	14469
896.498	14560
896.619	14484
896.74	14606
896.861	14594
896.982	14887
897.103	15062
897.224	14925
897.345	14769
897.466	14701
897.587	14872
897.708	14925
897.828	14834
897.949	14899
898.07	14693
898.19	14807
898.311	14963
898.431	14823
898.552	14880
898.672	14963
898.792	15032
898.913	14902
899.033	14788
899.153	14765
899.273	14686
899.393	14678
899.513	14697
899.633	14708
899.753	14727
899.873	14682
899.993	14743
900.113	14701
900.232	14762
900.352	14651
900.472	14632
900.591	14541
900.711	14606
900.83	14469
900.95	14781
901.069	14552
901.189	14560
901.308	14324
901.427	14214
901.546	14286
901.665	14275
901.784	14355
901.904	14183
902.023	14149
902.141	13982
902.26	13818
902.379	13925
902.498	13864
902.617	13841
902.735	13875
902.854	13868
902.973	13845
903.091	13578
903.21	13548
903.328	13495
903.446	13597
903.565	13403
903.683	13445
903.801	13259
903.919	13278
904.038	13426
904.156	13228
904.274	13407
904.392	13251
904.51	13240
904.627	13228
904.745	13221
904.863	13320
904.981	13053
905.098	12943
905.216	12844
905.334	12871
905.451	12993
905.569	12791
905.686	12894
905.803	12886
905.921	12787
906.038	12825
906.155	12681
906.272	12658
906.389	12642
906.506	12494
906.623	12479
906.74	12433
906.857	12460
906.974	12380
907.091	12528
907.208	12593
907.324	12456
907.441	12353
907.557	12350
907.674	12163
907.79	12209
907.907	12258
908.023	12216
908.139	12251
908.256	12209
908.372	12197
908.488	12159
908.604	12034
908.72	12049
908.836	12076
908.952	11939
909.068	12034
909.184	12144
909.3	11946
909.415	12038
909.531	11999
909.647	11805
909.762	11828
909.878	11729
909.993	11805
910.108	11737
910.224	11756
910.339	11756
910.454	11722
910.57	11634
910.685	11528
910.8	11817
910.915	11813
911.03	11573
911.145	11520
911.259	11493
911.374	11478
911.489	11337
911.604	11402
911.718	11303
911.833	11246
911.947	11147
912.062	11022
912.176	11178
912.291	11246
912.405	11261
912.519	11493
912.633	11429
912.748	11299
912.862	11261
912.976	11075
913.09	11048
913.204	11018
913.318	11090
913.431	11231
913.545	11143
913.659	11197
913.772	11113
913.886	11029
914	10904
914.113	11003
914.226	11109
914.34	11041
914.453	10911
914.566	11033
914.68	10843
914.793	10911
914.906	10729
915.019	10729
915.132	10615
915.245	10797
915.358	10691
915.47	10736
915.583	10782
915.696	10771
915.809	10885
915.921	10835
916.034	10691
916.146	10691
916.259	10637
916.371	10740
916.483	10733
916.595	10584
916.708	10694
916.82	10630
916.932	10637
917.044	10580
917.156	10626
917.268	10527
917.38	10512
917.491	10474
917.603	10516
917.715	10588
917.826	10588
917.938	10485
918.049	10436
918.161	10512
918.272	10714
918.384	10637
918.495	10569
918.606	10455
918.717	10405
918.828	10447
918.939	10451
919.05	10360
919.161	10436
919.272	10306
919.383	10227
919.494	10424
919.604	10580
919.715	10478
919.826	10348
919.936	10379
920.047	10516
920.157	10443
920.267	10615
920.378	10405
920.488	10459
920.598	10603
920.708	10771
920.818	10554
920.928	10580
921.038	10797
921.148	10740
921.258	10360
921.368	10390
921.477	10352
921.587	10223
921.697	10124
921.806	10314
921.916	10238
922.025	10048
922.134	9987
922.244	9968
922.353	10063
922.462	9899
922.571	9808
922.68	9629
922.789	9679
922.898	9644
923.007	9591
923.116	9690
923.224	9595
923.333	9675
923.442	9526
923.55	9515
923.659	9618
923.767	9545
923.876	9485
923.984	9637
924.092	9549
924.201	9553
924.309	9534
924.417	9587
924.525	9511
924.633	9447
924.741	10394
924.849	9279
924.956	9447
925.064	9325
925.172	9207
925.279	9241
925.387	9329
925.494	9351
925.602	9492
925.709	9310
925.816	9233
925.924	9310
926.031	9378
926.138	9294
926.245	9272
926.352	9241
926.459	9416
926.566	9389
926.673	9283
926.779	9116
926.886	9222
926.993	8990
927.099	9055
927.206	8994
927.312	8979
927.419	9013
927.525	8971
927.631	9055
927.737	8944
927.843	8838
927.95	8845
928.056	8895
928.162	8864
928.267	8956
928.373	9599
928.479	9005
928.585	8834
928.69	8921
928.796	8952
928.901	8830
929.007	8693
929.112	8845
929.218	8788
929.323	8708
929.428	8727
929.533	8872
929.638	8686
929.743	8655
929.848	8788
929.953	8716
930.058	8644
930.163	8457
930.267	8469
930.372	8644
930.477	8499
930.581	8689
930.685	8598
930.79	8415
930.894	8404
930.998	8438
931.103	8530
931.207	8259
931.311	8126
931.415	8164
931.519	7928
931.623	7921
