Data from test_V78500241_1319.txt Node
Date: Fri Mar 25 14:42:53 CST 2022
User: usil
Spectrometer: V785-0024
Trigger mode: 0
Integration Time (sec): 4.000000E-1
Scans to average: 1
Nonlinearity correction enabled: false
Boxcar width: 0
Storing dark spectrum: false
XAxis mode: Wavelengths
Number of Pixels in Spectrum: 1024
>>>>>Begin Spectral Data<<<<<
801.071	22413
801.214	22337
801.356	22109
801.499	21991
801.641	21812
801.783	21755
801.926	21656
802.068	21629
802.211	21572
802.353	21568
802.496	21344
802.638	21252
802.78	21272
802.923	21093
803.065	21020
803.208	21005
803.35	21089
803.492	21108
803.635	21199
803.777	21096
803.919	21116
804.061	21420
804.204	21211
804.346	21009
804.488	20864
804.63	21108
804.773	20967
804.915	21074
805.057	21176
805.199	20914
805.341	21077
805.483	21150
805.626	21055
805.768	20971
805.91	21081
806.052	20994
806.194	21017
806.336	21066
806.478	21032
806.62	20876
806.762	21001
806.904	21211
807.046	21481
807.188	21431
807.33	21344
807.472	21496
807.614	21321
807.756	21416
807.898	21142
808.04	21283
808.182	21245
808.324	21249
808.465	21370
808.607	21496
808.749	21576
808.891	21671
809.033	21785
809.174	21576
809.316	21519
809.458	21538
809.6	21412
809.741	21469
809.883	21519
810.025	21739
810.166	21720
810.308	21500
810.45	21622
810.591	21340
810.733	21317
810.875	21252
811.016	21085
811.158	21150
811.299	21154
811.441	21355
811.582	21332
811.724	21024
811.865	21180
812.007	21154
812.148	21218
812.29	21226
812.431	21329
812.573	21492
812.714	21587
812.855	21793
812.997	21762
813.138	21915
813.279	21823
813.421	21762
813.562	21500
813.703	21473
813.845	21302
813.986	21135
814.127	20929
814.268	20834
814.41	20758
814.551	20659
814.692	20750
814.833	20659
814.974	20663
815.115	20663
815.256	20636
815.397	20587
815.539	20568
815.68	20423
815.821	20457
815.962	20412
816.103	20442
816.244	20298
816.385	20271
816.526	20244
816.666	20027
816.807	19875
816.948	20016
817.089	19986
817.23	19978
817.371	19902
817.512	19837
817.653	19917
817.793	19799
817.934	19826
818.075	19936
818.216	19982
818.356	19814
818.497	19746
818.638	19502
818.778	19563
818.919	19502
819.06	19696
819.2	19761
819.341	19811
819.481	19746
819.622	19947
819.762	20027
819.903	20058
820.043	19970
820.184	19890
820.324	19818
820.465	19879
820.605	19894
820.746	19932
820.886	19822
821.026	19826
821.167	19750
821.307	19883
821.447	19803
821.588	19655
821.728	19734
821.868	19388
822.008	19228
822.149	19263
822.289	19217
822.429	19057
822.569	18981
822.709	18970
822.849	18783
822.99	18814
823.13	18768
823.27	18745
823.41	18684
823.55	18528
823.69	18631
823.83	18494
823.97	18490
824.11	18361
824.25	18273
824.389	18353
824.529	18433
824.669	18391
824.809	18391
824.949	18441
825.089	18483
825.228	18426
825.368	18182
825.508	18148
825.648	18235
825.787	18133
825.927	18216
826.067	18095
826.206	18117
826.346	18159
826.485	18121
826.625	18136
826.765	18197
826.904	18125
827.044	17980
827.183	17847
827.323	17790
827.462	17779
827.601	17802
827.741	17821
827.88	17870
828.02	17687
828.159	17798
828.298	17809
828.437	17855
828.577	17821
828.716	17996
828.855	17722
828.994	17600
829.134	17577
829.273	17615
829.412	17497
829.551	17444
829.69	17497
829.829	17615
829.968	17691
830.107	17638
830.246	17581
830.385	17585
830.524	17493
830.663	17379
830.802	17239
830.941	17227
831.08	17132
831.219	17174
831.357	17231
831.496	17410
831.635	17277
831.774	17155
831.913	17094
832.051	16942
832.19	17010
832.329	17083
832.467	16908
832.606	16946
832.744	16889
832.883	16965
833.022	16881
833.16	16972
833.299	17003
833.437	16987
833.576	16972
833.714	16961
833.852	16999
833.991	17018
834.129	17140
834.267	16835
834.406	16968
834.544	16938
834.682	16904
834.821	16858
834.959	17094
835.097	16949
835.235	17006
835.373	16987
835.511	16942
835.65	16930
835.788	16824
835.926	16656
836.064	16668
836.202	16672
836.34	16930
836.478	16927
836.615	16862
836.753	16797
836.891	16835
837.029	16915
837.167	16850
837.305	16778
837.443	16809
837.58	16615
837.718	16900
837.856	16774
837.993	16679
838.131	16793
838.269	16611
838.406	16691
838.544	16535
838.681	16375
838.819	16421
838.956	16329
839.094	16219
839.231	16363
839.369	16409
839.506	16694
839.643	16519
839.781	16234
839.918	16154
840.055	16276
840.193	16287
840.33	16188
840.467	16287
840.604	16284
840.742	16550
840.879	16051
841.016	16029
841.153	16116
841.29	16379
841.427	16333
841.564	16257
841.701	16329
841.838	16135
841.975	16147
842.112	16181
842.249	16032
842.385	15994
842.522	16242
842.659	16063
842.796	15972
842.933	16071
843.069	16025
843.206	16048
843.343	16120
843.479	16074
843.616	16105
843.752	15873
843.889	15899
844.025	16040
844.162	15876
844.298	15945
844.435	15918
844.571	15838
844.708	15918
844.844	15918
844.98	16002
845.117	15975
845.253	15895
845.389	15728
845.525	15724
845.661	15846
845.798	15789
845.934	15915
846.07	15762
846.206	15911
846.342	15930
846.478	15724
846.614	15561
846.75	15397
846.886	15348
847.022	15458
847.158	15488
847.294	15420
847.429	15473
847.565	15389
847.701	15637
847.837	15135
847.972	15157
848.108	15313
848.244	15310
848.379	15074
848.515	15020
848.65	14944
848.786	14967
848.921	15036
849.057	15104
849.192	15081
849.328	15047
849.463	15074
849.598	14952
849.734	14819
849.869	14788
850.004	14925
850.14	14796
850.275	14804
850.41	14678
850.545	14746
850.68	14720
850.815	14735
850.95	14689
851.085	14982
851.22	14857
851.355	14796
851.49	14720
851.625	14762
851.76	14640
851.895	14651
852.03	14659
852.165	14777
852.299	14800
852.434	14842
852.569	14876
852.703	14785
852.838	14857
852.973	14925
853.107	14880
853.242	14697
853.376	14636
853.511	14526
853.645	14602
853.78	14743
853.914	14674
854.048	14674
854.183	14640
854.317	14621
854.451	14762
854.585	14629
854.72	14712
854.854	14720
854.988	14670
855.122	14461
855.256	14556
855.39	14552
855.524	14610
855.658	14701
855.792	14708
855.926	14697
856.06	14636
856.194	14674
856.327	14674
856.461	14541
856.595	14568
856.729	14610
856.862	14785
856.996	14667
857.13	14689
857.263	14689
857.397	14815
857.53	14651
857.664	14632
857.797	14743
857.931	14785
858.064	14670
858.197	14754
858.331	14697
858.464	14617
858.597	14583
858.731	14560
858.864	14670
858.997	14587
859.13	14648
859.263	14663
859.396	14777
859.529	14640
859.662	14602
859.795	14552
859.928	14606
860.061	14807
860.194	14876
860.327	14651
860.46	14640
860.592	14686
860.725	14754
860.858	14708
860.99	14560
861.123	14564
861.256	14583
861.388	14549
861.521	15268
861.653	14499
861.786	14450
861.918	14499
862.05	14617
862.183	14533
862.315	14579
862.447	14610
862.58	14549
862.712	14419
862.844	14396
862.976	14431
863.108	14358
863.24	14891
863.372	14313
863.504	14381
863.636	14343
863.768	14476
863.9	14290
864.032	14317
864.164	14324
864.296	14484
864.428	14564
864.559	14571
864.691	14495
864.823	14415
864.954	14381
865.086	14446
865.217	14446
865.349	14343
865.48	14324
865.612	14457
865.743	14499
865.875	14431
866.006	14381
866.137	14362
866.269	14282
866.4	14271
866.531	14412
866.662	14282
866.793	14343
866.924	14309
867.055	14442
867.186	14381
867.317	14286
867.448	14320
867.579	14317
867.71	14263
867.841	14355
867.972	14434
868.103	14396
868.233	14362
868.364	14423
868.495	14476
868.625	14571
868.756	14667
868.886	14518
869.017	14533
869.147	14659
869.278	14739
869.408	14701
869.539	14602
869.669	14735
869.799	14625
869.929	14849
870.06	14804
870.19	15009
870.32	14895
870.45	14982
870.58	15051
870.71	15097
870.84	15199
870.97	14941
871.1	15009
871.23	15241
871.36	15367
871.489	15146
871.619	15184
871.749	15188
871.879	15275
872.008	15367
872.138	15329
872.267	15237
872.397	15066
872.526	14979
872.656	15001
872.785	14967
872.915	15241
873.044	15370
873.173	15252
873.303	15329
873.432	15363
873.561	15393
873.69	15252
873.819	15287
873.948	15359
874.077	15336
874.206	15310
874.335	15370
874.464	15469
874.593	15538
874.722	15511
874.851	15606
874.979	15625
875.108	15629
875.237	15515
875.365	15443
875.494	15606
875.623	15698
875.751	15466
875.88	15557
876.008	15743
876.136	15781
876.265	15991
876.393	16090
876.521	16063
876.65	16086
876.778	16021
876.906	16021
877.034	15918
877.162	16036
877.29	15926
877.418	16082
877.546	15987
877.674	16025
877.802	15998
877.93	16074
878.058	16002
878.185	15956
878.313	15922
878.441	16032
878.568	15861
878.696	15941
878.824	16097
878.951	16166
879.079	16257
879.206	16299
879.333	16295
879.461	16162
879.588	16215
879.715	16272
879.842	16432
879.97	16169
880.097	15991
880.224	15857
880.351	15945
880.478	15926
880.605	15800
880.732	15915
880.859	16067
880.986	15964
881.112	15945
881.239	15755
881.366	15549
881.493	15557
881.619	15576
881.746	15564
881.872	15663
881.999	15561
882.125	15507
882.252	15660
882.378	15587
882.505	15701
882.631	15496
882.757	15329
882.883	15359
883.01	15435
883.136	15291
883.262	15150
883.388	15154
883.514	15359
883.64	15340
883.766	15344
883.892	15165
884.018	15157
884.143	15359
884.269	15397
884.395	15169
884.52	14986
884.646	14994
884.772	14872
884.897	15009
885.023	15142
885.148	15176
885.274	15237
885.399	15077
885.524	14979
885.65	15062
885.775	15066
885.9	15013
886.025	15058
886.15	15097
886.275	14998
886.4	14960
886.525	15043
886.65	14864
886.775	14864
886.9	15085
887.025	15298
887.149	15024
887.274	14891
887.399	14819
887.523	14853
887.648	14773
887.773	14762
887.897	14929
888.021	14979
888.146	14853
888.27	14948
888.395	14937
888.519	14918
888.643	14853
888.767	14887
888.891	14834
889.015	14712
889.139	14785
889.263	14682
889.387	14823
889.511	14834
889.635	14902
889.759	14708
889.883	14731
890.006	14724
890.13	14796
890.254	14625
890.377	14762
890.501	14473
890.624	14503
890.748	14617
890.871	14469
890.995	14328
891.118	14320
891.241	14419
891.364	14442
891.488	14484
891.611	14347
891.734	14412
891.857	14328
891.98	14427
892.103	14526
892.226	14499
892.349	14446
892.471	14244
892.594	14290
892.717	14370
892.839	14324
892.962	14480
893.085	14427
893.207	14419
893.33	14259
893.452	14298
893.575	14465
893.697	14457
893.819	14495
893.941	14613
894.064	14514
894.186	14358
894.308	14374
894.43	14423
894.552	14602
894.674	14480
894.796	14366
894.918	14400
895.04	14469
895.161	14598
895.283	14533
895.405	14423
895.526	14469
895.648	14522
895.769	14568
895.891	14499
896.012	14575
896.134	14632
896.255	14636
896.376	14507
896.498	14583
896.619	14610
896.74	14545
896.861	14549
896.982	14937
897.103	14979
897.224	14921
897.345	14735
897.466	14777
897.587	14720
897.708	15001
897.828	14891
897.949	14727
898.07	14754
898.19	14754
898.311	14941
898.431	14826
898.552	14876
898.672	14975
898.792	15024
898.913	14914
899.033	14792
899.153	14758
899.273	14739
899.393	14811
899.513	14765
899.633	14670
899.753	14743
899.873	14682
899.993	14861
900.113	14712
900.232	14701
900.352	14735
900.472	14712
900.591	14651
900.711	14617
900.83	14552
900.95	14743
901.069	14758
901.189	14499
901.308	14320
901.427	14294
901.546	14324
901.665	14271
901.784	14290
901.904	14157
902.023	13970
902.141	13936
902.26	13890
902.379	13947
902.498	13803
902.617	13822
902.735	13791
902.854	13757
902.973	13693
903.091	13658
903.21	13613
903.328	13529
903.446	13521
903.565	13403
903.683	13426
903.801	13312
903.919	13373
904.038	13324
904.156	13316
904.274	13274
904.392	13080
904.51	13183
904.627	13145
904.745	13259
904.863	13270
904.981	13012
905.098	12878
905.216	12913
905.334	12882
905.451	12882
905.569	12897
905.686	12981
905.803	12920
905.921	12760
906.038	12810
906.155	12734
906.272	12623
906.389	12673
906.506	12513
906.623	12502
906.74	12437
906.857	12361
906.974	12483
907.091	12521
907.208	12616
907.324	12536
907.441	12460
907.557	12213
907.674	12228
907.79	12175
907.907	12262
908.023	12353
908.139	12194
908.256	12155
908.372	12167
908.488	12133
908.604	11999
908.72	11973
908.836	12022
908.952	11939
909.068	11969
909.184	12091
909.3	12022
909.415	12022
909.531	11992
909.647	11828
909.762	11733
909.878	11741
909.993	11809
910.108	11832
910.224	11718
910.339	11866
910.454	11619
910.57	11695
910.685	11630
910.8	11931
910.915	11748
911.03	11524
911.145	11505
911.259	11444
911.374	11395
911.489	11440
911.604	11402
911.718	11204
911.833	11185
911.947	11105
912.062	11037
912.176	11242
912.291	11216
912.405	11273
912.519	11467
912.633	11402
912.748	11296
912.862	11170
912.976	11102
913.09	11048
913.204	10942
913.318	11109
913.431	11193
913.545	11181
913.659	11216
913.772	11151
913.886	10965
914	10972
914.113	11071
914.226	11075
914.34	10991
914.453	10995
914.566	11037
914.68	10968
914.793	10915
914.906	10698
915.019	10664
915.132	10596
915.245	10687
915.358	10786
915.47	10717
915.583	10725
915.696	10831
915.809	10843
915.921	10793
916.034	10763
916.146	10675
916.259	10675
916.371	10763
916.483	10759
916.595	10626
916.708	10577
916.82	10660
916.932	10698
917.044	10550
917.156	10550
917.268	10474
917.38	10573
917.491	10508
917.603	10596
917.715	10637
917.826	10691
917.938	10554
918.049	10436
918.161	10474
918.272	10637
918.384	10683
918.495	10569
918.606	10443
918.717	10272
918.828	10443
918.939	10451
919.05	10303
919.161	10318
919.272	10246
919.383	10291
919.494	10436
919.604	10596
919.715	10459
919.826	10348
919.936	10421
920.047	10504
920.157	10474
920.267	10675
920.378	10470
920.488	10447
920.598	10656
920.708	10797
920.818	10630
920.928	10584
921.038	10809
921.148	10714
921.258	10500
921.368	10337
921.477	10325
921.587	10268
921.697	10131
921.806	10234
921.916	10150
922.025	10044
922.134	10048
922.244	9945
922.353	10051
922.462	9956
922.571	9804
922.68	9587
922.789	9671
922.898	9599
923.007	9633
923.116	9740
923.224	9701
923.333	9587
923.442	9603
923.55	9568
923.659	9568
923.767	9599
923.876	9591
923.984	9591
924.092	9454
924.201	9500
924.309	9515
924.417	9591
924.525	9450
924.633	9485
924.741	10405
924.849	9264
924.956	9435
925.064	9287
925.172	9237
925.279	9195
925.387	9336
925.494	9291
925.602	9439
925.709	9340
925.816	9317
925.924	9272
926.031	9435
926.138	9351
926.245	9336
926.352	9253
926.459	9378
926.566	9340
926.673	9249
926.779	9249
926.886	9123
926.993	9074
927.099	9089
927.206	8963
927.312	9013
927.419	9047
927.525	9009
927.631	9116
927.737	8960
927.843	8895
927.95	8708
928.056	8891
928.162	8883
928.267	8963
928.373	9587
928.479	8971
928.585	8735
928.69	8857
928.796	9020
928.901	8842
929.007	8659
929.112	8796
929.218	8826
929.323	8762
929.428	8697
929.533	8766
929.638	8636
929.743	8773
929.848	8785
929.953	8670
930.058	8629
930.163	8404
930.267	8533
930.372	8712
930.477	8473
930.581	8686
930.685	8476
930.79	8442
930.894	8492
930.998	8351
931.103	8556
931.207	8199
931.311	8221
931.415	8035
931.519	7940
931.623	7932
