Data from test_V78500241_2271.txt Node
Date: Fri Mar 25 14:49:31 CST 2022
User: usil
Spectrometer: V785-0024
Trigger mode: 0
Integration Time (sec): 4.000000E-1
Scans to average: 1
Nonlinearity correction enabled: false
Boxcar width: 0
Storing dark spectrum: false
XAxis mode: Wavelengths
Number of Pixels in Spectrum: 1024
>>>>>Begin Spectral Data<<<<<
801.071	22162
801.214	22086
801.356	21736
801.499	21728
801.641	21622
801.783	21591
801.926	21591
802.068	21485
802.211	21367
802.353	21260
802.496	21043
802.638	21009
802.78	21001
802.923	20994
803.065	20849
803.208	20891
803.35	20902
803.492	21039
803.635	20979
803.777	20952
803.919	21074
804.061	21310
804.204	20925
804.346	20845
804.488	20781
804.63	20868
804.773	20781
804.915	20697
805.057	20937
805.199	20819
805.341	20861
805.483	20982
805.626	20967
805.768	20807
805.91	20746
806.052	20872
806.194	20678
806.336	20864
806.478	20807
806.62	20743
806.762	20876
806.904	20944
807.046	21150
807.188	21142
807.33	21161
807.472	21188
807.614	21017
807.756	21074
807.898	20868
808.04	20914
808.182	20891
808.324	20891
808.465	20956
808.607	21165
808.749	21214
808.891	21264
809.033	21287
809.174	21329
809.316	21039
809.458	21203
809.6	21081
809.741	21287
809.883	21306
810.025	21401
810.166	21268
810.308	21397
810.45	21416
810.591	21291
810.733	21207
810.875	21043
811.016	20895
811.158	20842
811.299	21096
811.441	21211
811.582	20986
811.724	20872
811.865	20990
812.007	20948
812.148	21058
812.29	20979
812.431	21146
812.573	21287
812.714	21412
812.855	21313
812.997	21542
813.138	21701
813.279	21591
813.421	21507
813.562	21416
813.703	21275
813.845	21100
813.986	20921
814.127	20693
814.268	20590
814.41	20629
814.551	20503
814.692	20454
814.833	20294
814.974	20507
815.115	20457
815.256	20355
815.397	20294
815.539	20366
815.68	20294
815.821	20233
815.962	20393
816.103	20199
816.244	20081
816.385	19887
816.526	19841
816.666	19879
816.807	19681
816.948	19765
817.089	19742
817.23	19750
817.371	19628
817.512	19597
817.653	19537
817.793	19594
817.934	19613
818.075	19605
818.216	19731
818.356	19502
818.497	19453
818.638	19145
818.778	19384
818.919	19289
819.06	19365
819.2	19331
819.341	19487
819.481	19575
819.622	19643
819.762	19852
819.903	19807
820.043	19681
820.184	19681
820.324	19613
820.465	19632
820.605	19655
820.746	19571
820.886	19396
821.026	19708
821.167	19655
821.307	19597
821.447	19548
821.588	19388
821.728	19209
821.868	19129
822.008	19031
822.149	19027
822.289	18943
822.429	18787
822.569	18734
822.709	18749
822.849	18559
822.99	18536
823.13	18475
823.27	18448
823.41	18209
823.55	18254
823.69	18353
823.83	18311
823.97	18281
824.11	18072
824.25	18091
824.389	18095
824.529	18140
824.669	18102
824.809	18201
824.949	18213
825.089	18232
825.228	18216
825.368	17874
825.508	17882
825.648	17935
825.787	17824
825.927	17931
826.067	17802
826.206	17840
826.346	17786
826.485	17927
826.625	17817
826.765	17996
826.904	17779
827.044	17573
827.183	17604
827.323	17577
827.462	17585
827.601	17543
827.741	17615
827.88	17543
828.02	17383
828.159	17444
828.298	17459
828.437	17634
828.577	17425
828.716	17634
828.855	17448
828.994	17353
829.134	17311
829.273	17383
829.412	17280
829.551	17299
829.69	17208
829.829	17223
829.968	17395
830.107	17349
830.246	17269
830.385	17231
830.524	17242
830.663	17052
830.802	17029
830.941	16908
831.08	16869
831.219	17003
831.357	16938
831.496	17083
831.635	16847
831.774	16877
831.913	16752
832.051	16607
832.19	16706
832.329	16729
832.467	16569
832.606	16542
832.744	16489
832.883	16561
833.022	16531
833.16	16538
833.299	16538
833.437	16679
833.576	16626
833.714	16622
833.852	16622
833.991	16645
834.129	16740
834.267	16679
834.406	16577
834.544	16672
834.682	16653
834.821	16573
834.959	16809
835.097	16691
835.235	16588
835.373	16637
835.511	16675
835.65	16565
835.788	16474
835.926	16409
836.064	16390
836.202	16322
836.34	16569
836.478	16485
836.615	16497
836.753	16462
836.891	16626
837.029	16527
837.167	16481
837.305	16409
837.443	16363
837.58	16367
837.718	16554
837.856	16428
837.993	16272
838.131	16367
838.269	16314
838.406	16295
838.544	16230
838.681	16051
838.819	16082
838.956	15937
839.094	15926
839.231	16010
839.369	16051
839.506	16268
839.643	16257
839.781	15907
839.918	15903
840.055	15964
840.193	15918
840.33	15911
840.467	15994
840.604	15953
840.742	16207
840.879	15861
841.016	15838
841.153	15789
841.29	16002
841.427	15983
841.564	16013
841.701	15926
841.838	15865
841.975	15880
842.112	15842
842.249	15778
842.385	15660
842.522	15876
842.659	15823
842.796	15629
842.933	15781
843.069	15671
843.206	15629
843.343	15789
843.479	15701
843.616	15660
843.752	15450
843.889	15469
844.025	15542
844.162	15424
844.298	15679
844.435	15511
844.571	15500
844.708	15545
844.844	15603
844.98	15587
845.117	15580
845.253	15492
845.389	15313
845.525	15355
845.661	15344
845.798	15226
845.934	15306
846.07	15203
846.206	15374
846.342	15374
846.478	15298
846.614	15150
846.75	15089
846.886	15089
847.022	15081
847.158	15116
847.294	15024
847.429	15093
847.565	15024
847.701	15378
847.837	14819
847.972	14708
848.108	14910
848.244	14777
848.379	14598
848.515	14731
848.65	14636
848.786	14629
848.921	14632
849.057	14758
849.192	14739
849.328	14708
849.463	14667
849.598	14636
849.734	14629
849.869	14541
850.004	14389
850.14	14461
850.275	14434
850.41	14339
850.545	14446
850.68	14377
850.815	14503
850.95	14347
851.085	14602
851.22	14545
851.355	14518
851.49	14423
851.625	14313
851.76	14434
851.895	14389
852.03	14298
852.165	14393
852.299	14473
852.434	14396
852.569	14404
852.703	14400
852.838	14556
852.973	14511
853.107	14556
853.242	14412
853.376	14389
853.511	14195
853.645	14275
853.78	14434
853.914	14278
854.048	14252
854.183	14202
854.317	14221
854.451	14514
854.585	14214
854.72	14301
854.854	14328
854.988	14324
855.122	14267
855.256	14130
855.39	14229
855.524	14271
855.658	14400
855.792	14358
855.926	14355
856.06	14366
856.194	14476
856.327	14324
856.461	14339
856.595	14298
856.729	14119
856.862	14431
856.996	14271
857.13	14446
857.263	14305
857.397	14457
857.53	14240
857.664	14415
857.797	14377
857.931	14412
858.064	14412
858.197	14370
858.331	14298
858.464	14267
858.597	14058
858.731	14294
858.864	14286
858.997	14290
859.13	14259
859.263	14294
859.396	14336
859.529	14240
859.662	14256
859.795	14210
859.928	14412
860.061	14488
860.194	14377
860.327	14271
860.46	14221
860.592	14431
860.725	14355
860.858	14442
860.99	14271
861.123	14214
861.256	14191
861.388	14328
861.521	14815
861.653	14256
861.786	14123
861.918	14202
862.05	14206
862.183	14237
862.315	14240
862.447	14355
862.58	14161
862.712	14001
862.844	14012
862.976	14176
863.108	14149
863.24	14469
863.372	14005
863.504	14016
863.636	14050
863.768	14145
863.9	14100
864.032	14024
864.164	14008
864.296	14050
864.428	14157
864.559	14164
864.691	14103
864.823	14119
864.954	14126
865.086	14088
865.217	14001
865.349	13947
865.48	14027
865.612	14172
865.743	14221
865.875	14065
866.006	14084
866.137	14027
866.269	13928
866.4	14024
866.531	14005
866.662	13963
866.793	14012
866.924	14005
867.055	14164
867.186	14005
867.317	14046
867.448	13986
867.579	14031
867.71	13951
867.841	13890
867.972	14027
868.103	14035
868.233	14096
868.364	14088
868.495	14183
868.625	14210
868.756	14366
868.886	14263
869.017	14218
869.147	14465
869.278	14533
869.408	14275
869.539	14339
869.669	14377
869.799	14366
869.929	14389
870.06	14438
870.19	14632
870.32	14503
870.45	14651
870.58	14644
870.71	14743
870.84	14788
870.97	14746
871.1	14674
871.23	14891
871.36	14941
871.489	14845
871.619	14861
871.749	14891
871.879	14876
872.008	15043
872.138	14880
872.267	14944
872.397	14758
872.526	14743
872.656	14689
872.785	14815
872.915	14933
873.044	15013
873.173	14933
873.303	15039
873.432	14853
873.561	14975
873.69	14979
873.819	14967
873.948	15024
874.077	14948
874.206	14895
874.335	15085
874.464	15112
874.593	15272
874.722	15211
874.851	15222
874.979	15389
875.108	15367
875.237	15184
875.365	15192
875.494	15199
875.623	15294
875.751	15260
875.88	15245
876.008	15401
876.136	15488
876.265	15717
876.393	15793
876.521	15804
876.65	15774
876.778	15762
876.906	15614
877.034	15667
877.162	15667
877.29	15610
877.418	15629
877.546	15778
877.674	15667
877.802	15679
877.93	15660
878.058	15713
878.185	15549
878.313	15667
878.441	15675
878.568	15515
878.696	15660
878.824	15698
878.951	15755
879.079	15857
879.206	15987
879.333	15823
879.461	15755
879.588	15774
879.715	15804
879.842	15960
879.97	15774
880.097	15553
880.224	15504
880.351	15485
880.478	15545
880.605	15515
880.732	15458
880.859	15759
880.986	15504
881.112	15561
881.239	15397
881.366	15329
881.493	15112
881.619	15138
881.746	15100
881.872	15123
881.999	15131
882.125	15165
882.252	15169
882.378	15207
882.505	15405
882.631	15089
882.757	14994
882.883	15180
883.01	15032
883.136	14910
883.262	14788
883.388	14883
883.514	14982
883.64	14986
883.766	15020
883.892	14720
884.018	14857
884.143	15024
884.269	15165
884.395	14724
884.52	14678
884.646	14746
884.772	14640
884.897	14632
885.023	14697
885.148	14807
885.274	14811
885.399	14800
885.524	14735
885.65	14659
885.775	14739
885.9	14735
886.025	14785
886.15	14746
886.275	14697
886.4	14651
886.525	14724
886.65	14583
886.775	14610
886.9	14777
887.025	14925
887.149	14697
887.274	14533
887.399	14484
887.523	14530
887.648	14389
887.773	14446
887.897	14636
888.021	14590
888.146	14568
888.27	14583
888.395	14739
888.519	14514
888.643	14568
888.767	14621
888.891	14415
889.015	14408
889.139	14473
889.263	14381
889.387	14575
889.511	14644
889.635	14469
889.759	14362
889.883	14415
890.006	14400
890.13	14503
890.254	14301
890.377	14294
890.501	14221
890.624	14183
890.748	14309
890.871	14065
890.995	14054
891.118	13917
891.241	14123
891.364	14001
891.488	14191
891.611	14050
891.734	14214
891.857	14161
891.98	14142
892.103	14202
892.226	14073
892.349	14024
892.471	13989
892.594	14103
892.717	14145
892.839	14008
892.962	14126
893.085	14145
893.207	14180
893.33	13928
893.452	14039
893.575	14202
893.697	14149
893.819	14229
893.941	14221
894.064	14229
894.186	14035
894.308	14043
894.43	14221
894.552	14328
894.674	14187
894.796	14024
894.918	14168
895.04	14081
895.161	14313
895.283	14176
895.405	14161
895.526	14183
895.648	14278
895.769	14290
895.891	14240
896.012	14332
896.134	14282
896.255	14263
896.376	14214
896.498	14263
896.619	14351
896.74	14305
896.861	14377
896.982	14610
897.103	14769
897.224	14640
897.345	14503
897.466	14503
897.587	14560
897.708	14648
897.828	14514
897.949	14427
898.07	14389
898.19	14503
898.311	14629
898.431	14598
898.552	14590
898.672	14697
898.792	14663
898.913	14693
899.033	14537
899.153	14503
899.273	14347
899.393	14450
899.513	14427
899.633	14438
899.753	14564
899.873	14457
899.993	14564
900.113	14522
900.232	14545
900.352	14503
900.472	14415
900.591	14240
900.711	14412
900.83	14263
900.95	14454
901.069	14473
901.189	14320
901.308	14027
901.427	13993
901.546	14012
901.665	14153
901.784	14096
901.904	13909
902.023	13738
902.141	13658
902.26	13731
902.379	13647
902.498	13647
902.617	13601
902.735	13597
902.854	13655
902.973	13483
903.091	13335
903.21	13301
903.328	13350
903.446	13274
903.565	13168
903.683	13137
903.801	13145
903.919	13137
904.038	13095
904.156	12985
904.274	13034
904.392	12958
904.51	12951
904.627	12920
904.745	12970
904.863	12981
904.981	12730
905.098	12677
905.216	12582
905.334	12673
905.451	12715
905.569	12669
905.686	12681
905.803	12597
905.921	12380
906.038	12582
906.155	12456
906.272	12315
906.389	12315
906.506	12296
906.623	12220
906.74	12323
906.857	12251
906.974	12205
907.091	12330
907.208	12483
907.324	12270
907.441	12144
907.557	11996
907.674	11954
907.79	11912
907.907	12019
908.023	12121
908.139	12076
908.256	11847
908.372	11927
908.488	11889
908.604	11775
908.72	11748
908.836	11821
908.952	11741
909.068	11756
909.184	11828
909.3	11710
909.415	11786
909.531	11684
909.647	11634
909.762	11493
909.878	11558
909.993	11535
910.108	11623
910.224	11482
910.339	11577
910.454	11486
910.57	11360
910.685	11231
910.8	11600
910.915	11528
911.03	11337
911.145	11254
911.259	11239
911.374	11254
911.489	11132
911.604	11117
911.718	10999
911.833	10987
911.947	10847
912.062	10847
912.176	11006
912.291	11010
912.405	10999
912.519	11136
912.633	11223
912.748	11140
912.862	10972
912.976	10850
913.09	10744
913.204	10774
913.318	10847
913.431	10915
913.545	10999
913.659	10972
913.772	10782
913.886	10778
914	10752
914.113	10763
914.226	10854
914.34	10873
914.453	10634
914.566	10816
914.68	10710
914.793	10679
914.906	10500
915.019	10462
915.132	10402
915.245	10470
915.358	10462
915.47	10554
915.583	10478
915.696	10538
915.809	10645
915.921	10725
916.034	10489
916.146	10417
916.259	10443
916.371	10504
916.483	10527
916.595	10398
916.708	10474
916.82	10363
916.932	10417
917.044	10413
917.156	10386
917.268	10257
917.38	10348
917.491	10284
917.603	10329
917.715	10371
917.826	10455
917.938	10306
918.049	10166
918.161	10375
918.272	10516
918.384	10455
918.495	10344
918.606	10200
918.717	10124
918.828	10207
918.939	10204
919.05	10131
919.161	10177
919.272	9983
919.383	10055
919.494	10272
919.604	10432
919.715	10257
919.826	10147
919.936	10223
920.047	10337
920.157	10284
920.267	10436
920.378	10223
920.488	10219
920.598	10459
920.708	10538
920.818	10386
920.928	10371
921.038	10645
921.148	10447
921.258	10265
921.368	10181
921.477	10128
921.587	10105
921.697	9991
921.806	10097
921.916	9941
922.025	9854
922.134	9759
922.244	9724
922.353	9785
922.462	9663
922.571	9584
922.68	9507
922.789	9420
922.898	9462
923.007	9408
923.116	9496
923.224	9477
923.333	9504
923.442	9351
923.55	9291
923.659	9367
923.767	9466
923.876	9321
923.984	9443
924.092	9264
924.201	9317
924.309	9336
924.417	9313
924.525	9283
924.633	9291
924.741	10162
924.849	9135
924.956	9283
925.064	9127
925.172	9085
925.279	9074
925.387	9081
925.494	9123
925.602	9272
925.709	9157
925.816	9081
925.924	9146
926.031	9222
926.138	9135
926.245	9211
926.352	9066
926.459	9157
926.566	9233
926.673	9077
926.779	8979
926.886	8937
926.993	8826
927.099	8872
927.206	8804
927.312	8788
927.419	8891
927.525	8864
927.631	8941
927.737	8727
927.843	8724
927.95	8594
928.056	8720
928.162	8773
928.267	8838
928.373	9443
928.479	8849
928.585	8602
928.69	8796
928.796	8754
928.901	8716
929.007	8457
929.112	8644
929.218	8598
929.323	8625
929.428	8499
929.533	8651
929.638	8511
929.743	8537
929.848	8632
929.953	8594
930.058	8393
930.163	8324
930.267	8336
930.372	8438
930.477	8313
930.581	8598
930.685	8400
930.79	8233
930.894	8290
930.998	8225
931.103	8431
931.207	8073
931.311	8001
931.415	7947
931.519	7753
931.623	7788
