Data from test_V78500241_1307.txt Node
Date: Fri Mar 25 14:42:48 CST 2022
User: usil
Spectrometer: V785-0024
Trigger mode: 0
Integration Time (sec): 4.000000E-1
Scans to average: 1
Nonlinearity correction enabled: false
Boxcar width: 0
Storing dark spectrum: false
XAxis mode: Wavelengths
Number of Pixels in Spectrum: 1024
>>>>>Begin Spectral Data<<<<<
801.071	22470
801.214	22188
801.356	22017
801.499	21892
801.641	21690
801.783	21686
801.926	21686
802.068	21637
802.211	21629
802.353	21599
802.496	21355
802.638	21275
802.78	21260
802.923	21058
803.065	21058
803.208	21085
803.35	21142
803.492	21161
803.635	21245
803.777	21028
803.919	21184
804.061	21382
804.204	21169
804.346	20952
804.488	20914
804.63	21020
804.773	20937
804.915	21066
805.057	21173
805.199	20994
805.341	21051
805.483	21207
805.626	21116
805.768	20883
805.91	20918
806.052	20990
806.194	20906
806.336	21081
806.478	20979
806.62	20963
806.762	21017
806.904	21135
807.046	21473
807.188	21237
807.33	21260
807.472	21374
807.614	21298
807.756	21279
807.898	21203
808.04	21211
808.182	21169
808.324	21211
808.465	21275
808.607	21420
808.749	21622
808.891	21599
809.033	21739
809.174	21447
809.316	21466
809.458	21473
809.6	21462
809.741	21485
809.883	21389
810.025	21564
810.166	21660
810.308	21469
810.45	21576
810.591	21515
810.733	21329
810.875	21241
811.016	21203
811.158	21066
811.299	21310
811.441	21287
811.582	21249
811.724	21180
811.865	21154
812.007	21157
812.148	21112
812.29	21119
812.431	21485
812.573	21408
812.714	21606
812.855	21538
812.997	21732
813.138	21835
813.279	21785
813.421	21603
813.562	21599
813.703	21462
813.845	21325
813.986	21001
814.127	20830
814.268	20686
814.41	20883
814.551	20792
814.692	20765
814.833	20731
814.974	20587
815.115	20609
815.256	20514
815.397	20598
815.539	20594
815.68	20366
815.821	20412
815.962	20530
816.103	20393
816.244	20237
816.385	20122
816.526	20145
816.666	19978
816.807	19849
816.948	19978
817.089	20126
817.23	20005
817.371	19917
817.512	19879
817.653	19795
817.793	19696
817.934	19898
818.075	19890
818.216	19894
818.356	19830
818.497	19803
818.638	19518
818.778	19597
818.919	19575
819.06	19537
819.2	19662
819.341	19704
819.481	19643
819.622	19974
819.762	20100
819.903	20008
820.043	19864
820.184	19826
820.324	19826
820.465	19871
820.605	19860
820.746	19898
820.886	19666
821.026	19799
821.167	19845
821.307	19833
821.447	19833
821.588	19635
821.728	19605
821.868	19449
822.008	19209
822.149	19209
822.289	19194
822.429	18977
822.569	18947
822.709	18993
822.849	18779
822.99	18738
823.13	18753
823.27	18779
823.41	18623
823.55	18498
823.69	18547
823.83	18627
823.97	18471
824.11	18346
824.25	18327
824.389	18422
824.529	18380
824.669	18315
824.809	18525
824.949	18357
825.089	18281
825.228	18414
825.368	18167
825.508	18102
825.648	18163
825.787	18239
825.927	18159
826.067	18041
826.206	18125
826.346	18178
826.485	18057
826.625	18060
826.765	18296
826.904	18140
827.044	17878
827.183	17866
827.323	17786
827.462	17882
827.601	17874
827.741	17901
827.88	17798
828.02	17638
828.159	17722
828.298	17817
828.437	17836
828.577	17726
828.716	17935
828.855	17767
828.994	17642
829.134	17528
829.273	17532
829.412	17615
829.551	17524
829.69	17535
829.829	17581
829.968	17623
830.107	17642
830.246	17608
830.385	17459
830.524	17421
830.663	17322
830.802	17273
830.941	17212
831.08	17060
831.219	17216
831.357	17364
831.496	17379
831.635	17212
831.774	17025
831.913	17075
832.051	17003
832.19	16972
832.329	17064
832.467	17006
832.606	16839
832.744	16911
832.883	16866
833.022	16946
833.16	16881
833.299	16946
833.437	16862
833.576	17075
833.714	16984
833.852	16972
833.991	16927
834.129	17014
834.267	17014
834.406	16896
834.544	16965
834.682	17006
834.821	16923
834.959	17162
835.097	16892
835.235	17029
835.373	16961
835.511	16923
835.65	16885
835.788	16771
835.926	16668
836.064	16782
836.202	16641
836.34	16946
836.478	16946
836.615	16881
836.753	16915
836.891	16889
837.029	16908
837.167	16843
837.305	16717
837.443	16698
837.58	16615
837.718	16755
837.856	16812
837.993	16687
838.131	16771
838.269	16558
838.406	16622
838.544	16634
838.681	16455
838.819	16417
838.956	16249
839.094	16318
839.231	16333
839.369	16386
839.506	16679
839.643	16516
839.781	16162
839.918	16230
840.055	16295
840.193	16200
840.33	16242
840.467	16333
840.604	16299
840.742	16489
840.879	16093
841.016	16150
841.153	16082
841.29	16421
841.427	16185
841.564	16337
841.701	16261
841.838	16204
841.975	16181
842.112	16185
842.249	16116
842.385	15972
842.522	16322
842.659	15991
842.796	16112
842.933	16055
843.069	16021
843.206	15945
843.343	16006
843.479	16029
843.616	16055
843.752	15869
843.889	15812
844.025	15945
844.162	15827
844.298	16029
844.435	15835
844.571	15873
844.708	15842
844.844	15960
844.98	15960
845.117	15895
845.253	15774
845.389	15759
845.525	15812
845.661	15869
845.798	15717
845.934	15865
846.07	15789
846.206	15800
846.342	16013
846.478	15739
846.614	15553
846.75	15424
846.886	15462
847.022	15500
847.158	15454
847.294	15458
847.429	15412
847.565	15420
847.701	15584
847.837	15119
847.972	15028
848.108	15195
848.244	15146
848.379	15009
848.515	14971
848.65	14857
848.786	14975
848.921	14937
849.057	15123
849.192	15131
849.328	15066
849.463	15013
849.598	14982
849.734	14921
849.869	14788
850.004	14758
850.14	14868
850.275	14705
850.41	14765
850.545	14716
850.68	14800
850.815	14830
850.95	14708
851.085	14990
851.22	14826
851.355	14765
851.49	14758
851.625	14758
851.76	14758
851.895	14716
852.03	14507
852.165	14743
852.299	14819
852.434	14876
852.569	14788
852.703	14815
852.838	14792
852.973	15009
853.107	14994
853.242	14651
853.376	14590
853.511	14632
853.645	14590
853.78	14800
853.914	14651
854.048	14705
854.183	14579
854.317	14629
854.451	14807
854.585	14537
854.72	14587
854.854	14678
854.988	14560
855.122	14583
855.256	14473
855.39	14492
855.524	14773
855.658	14655
855.792	14659
855.926	14701
856.06	14735
856.194	14701
856.327	14720
856.461	14511
856.595	14499
856.729	14568
856.862	14765
856.996	14693
857.13	14712
857.263	14724
857.397	14708
857.53	14655
857.664	14648
857.797	14727
857.931	14678
858.064	14670
858.197	14727
858.331	14590
858.464	14568
858.597	14518
858.731	14659
858.864	14587
858.997	14602
859.13	14663
859.263	14632
859.396	14678
859.529	14602
859.662	14655
859.795	14549
859.928	14579
860.061	14754
860.194	14792
860.327	14705
860.46	14632
860.592	14758
860.725	14826
860.858	14754
860.99	14598
861.123	14549
861.256	14579
861.388	14575
861.521	15348
861.653	14625
861.786	14404
861.918	14530
862.05	14590
862.183	14610
862.315	14587
862.447	14644
862.58	14602
862.712	14377
862.844	14286
862.976	14484
863.108	14423
863.24	14880
863.372	14237
863.504	14339
863.636	14358
863.768	14355
863.9	14499
864.032	14355
864.164	14385
864.296	14522
864.428	14575
864.559	14499
864.691	14457
864.823	14484
864.954	14438
865.086	14454
865.217	14351
865.349	14355
865.48	14480
865.612	14393
865.743	14492
865.875	14385
866.006	14404
866.137	14374
866.269	14362
866.4	14434
866.531	14339
866.662	14244
866.793	14404
866.924	14423
867.055	14328
867.186	14355
867.317	14358
867.448	14275
867.579	14374
867.71	14294
867.841	14358
867.972	14385
868.103	14381
868.233	14423
868.364	14419
868.495	14469
868.625	14629
868.756	14606
868.886	14541
869.017	14613
869.147	14701
869.278	14788
869.408	14648
869.539	14564
869.669	14731
869.799	14750
869.929	14731
870.06	14697
870.19	15066
870.32	14891
870.45	14963
870.58	15039
870.71	15192
870.84	15161
870.97	14914
871.1	15020
871.23	15058
871.36	15203
871.489	15161
871.619	15211
871.749	15093
871.879	15275
872.008	15294
872.138	15291
872.267	15176
872.397	15154
872.526	15032
872.656	14963
872.785	15074
872.915	15214
873.044	15378
873.173	15260
873.303	15359
873.432	15336
873.561	15344
873.69	15268
873.819	15089
873.948	15370
874.077	15306
874.206	15264
874.335	15340
874.464	15466
874.593	15530
874.722	15515
874.851	15530
874.979	15523
875.108	15743
875.237	15504
875.365	15534
875.494	15591
875.623	15679
875.751	15519
875.88	15606
876.008	15720
876.136	15804
876.265	16097
876.393	16090
876.521	16071
876.65	16101
876.778	16010
876.906	15831
877.034	15945
877.162	15941
877.29	15816
877.418	15983
877.546	15975
877.674	15972
877.802	16017
877.93	16036
878.058	15953
878.185	15884
878.313	16071
878.441	15987
878.568	15899
878.696	15949
878.824	15979
878.951	16093
879.079	16280
879.206	16409
879.333	16177
879.461	16124
879.588	16188
879.715	16306
879.842	16291
879.97	16078
880.097	15846
880.224	15816
880.351	15865
880.478	16055
880.605	15876
880.732	15835
880.859	16124
880.986	15918
881.112	15956
881.239	15781
881.366	15618
881.493	15561
881.619	15488
881.746	15469
881.872	15553
881.999	15507
882.125	15477
882.252	15545
882.378	15572
882.505	15648
882.631	15454
882.757	15363
882.883	15488
883.01	15306
883.136	15329
883.262	15218
883.388	15203
883.514	15412
883.64	15359
883.766	15252
883.892	15173
884.018	15188
884.143	15370
884.269	15435
884.395	15233
884.52	15070
884.646	15058
884.772	14937
884.897	14902
885.023	15142
885.148	15089
885.274	15173
885.399	15119
885.524	15058
885.65	15085
885.775	15036
885.9	15013
886.025	15176
886.15	15127
886.275	14998
886.4	14864
886.525	14937
886.65	14990
886.775	15028
886.9	15108
887.025	15157
887.149	15100
887.274	14819
887.399	14800
887.523	14754
887.648	14842
887.773	14807
887.897	14906
888.021	15009
888.146	14800
888.27	14895
888.395	14982
888.519	14921
888.643	14921
888.767	14990
888.891	14804
889.015	14739
889.139	14735
889.263	14762
889.387	14781
889.511	14914
889.635	14883
889.759	14617
889.883	14678
890.006	14830
890.13	14868
890.254	14610
890.377	14606
890.501	14606
890.624	14522
890.748	14549
890.871	14469
890.995	14309
891.118	14343
891.241	14370
891.364	14377
891.488	14412
891.611	14377
891.734	14438
891.857	14427
891.98	14503
892.103	14442
892.226	14442
892.349	14385
892.471	14332
892.594	14374
892.717	14389
892.839	14389
892.962	14408
893.085	14568
893.207	14343
893.33	14309
893.452	14347
893.575	14476
893.697	14381
893.819	14495
893.941	14636
894.064	14571
894.186	14374
894.308	14381
894.43	14556
894.552	14587
894.674	14461
894.796	14362
894.918	14400
895.04	14476
895.161	14492
895.283	14461
895.405	14438
895.526	14442
895.648	14450
895.769	14575
895.891	14587
896.012	14659
896.134	14507
896.255	14636
896.376	14511
896.498	14594
896.619	14568
896.74	14537
896.861	14610
896.982	14845
897.103	15074
897.224	14845
897.345	14956
897.466	14678
897.587	14746
897.708	14921
897.828	14823
897.949	14781
898.07	14705
898.19	14773
898.311	14914
898.431	14819
898.552	14830
898.672	15051
898.792	14963
898.913	14914
899.033	14796
899.153	14720
899.273	14724
899.393	14746
899.513	14708
899.633	14651
899.753	14823
899.873	14762
899.993	14785
900.113	14796
900.232	14804
900.352	14613
900.472	14602
900.591	14522
900.711	14583
900.83	14552
900.95	14724
901.069	14788
901.189	14613
901.308	14317
901.427	14328
901.546	14282
901.665	14370
901.784	14271
901.904	14157
902.023	14199
902.141	13833
902.26	13731
902.379	13890
902.498	13833
902.617	13803
902.735	13807
902.854	13822
902.973	13769
903.091	13609
903.21	13537
903.328	13529
903.446	13552
903.565	13381
903.683	13480
903.801	13327
903.919	13445
904.038	13377
904.156	13251
904.274	13312
904.392	13251
904.51	13175
904.627	13206
904.745	13232
904.863	13301
904.981	13057
905.098	12996
905.216	12962
905.334	12947
905.451	13000
905.569	12939
905.686	12939
905.803	13031
905.921	12787
906.038	12833
906.155	12798
906.272	12604
906.389	12665
906.506	12642
906.623	12486
906.74	12582
906.857	12319
906.974	12471
907.091	12559
907.208	12673
907.324	12631
907.441	12532
907.557	12346
907.674	12235
907.79	12220
907.907	12220
908.023	12342
908.139	12254
908.256	12311
908.372	12182
908.488	12129
908.604	12091
908.72	11988
908.836	12030
908.952	12053
909.068	12045
909.184	12133
909.3	12045
909.415	12064
909.531	12064
909.647	11821
909.762	11870
909.878	11752
909.993	11828
910.108	11802
910.224	11798
910.339	11824
910.454	11760
910.57	11729
910.685	11630
910.8	11866
910.915	11824
911.03	11649
911.145	11585
911.259	11516
911.374	11554
911.489	11440
911.604	11398
911.718	11242
911.833	11216
911.947	11166
912.062	11079
912.176	11261
912.291	11261
912.405	11231
912.519	11433
912.633	11512
912.748	11353
912.862	11223
912.976	11067
913.09	11056
913.204	11079
913.318	11113
913.431	11231
913.545	11311
913.659	11277
913.772	11056
913.886	10987
914	11006
914.113	11174
914.226	11166
914.34	11094
914.453	10911
914.566	11037
914.68	11014
914.793	10904
914.906	10755
915.019	10755
915.132	10729
915.245	10740
915.358	10771
915.47	10664
915.583	10820
915.696	10774
915.809	10923
915.921	10877
916.034	10702
916.146	10698
916.259	10577
916.371	10778
916.483	10744
916.595	10649
916.708	10691
916.82	10717
916.932	10592
917.044	10634
917.156	10698
917.268	10653
917.38	10527
917.491	10577
917.603	10626
917.715	10615
917.826	10702
917.938	10546
918.049	10523
918.161	10588
918.272	10740
918.384	10736
918.495	10626
918.606	10481
918.717	10371
918.828	10375
918.939	10474
919.05	10341
919.161	10436
919.272	10135
919.383	10249
919.494	10527
919.604	10622
919.715	10500
919.826	10371
919.936	10405
920.047	10596
920.157	10421
920.267	10626
920.378	10500
920.488	10413
920.598	10611
920.708	10850
920.818	10607
920.928	10622
921.038	10759
921.148	10752
921.258	10531
921.368	10379
921.477	10322
921.587	10253
921.697	10147
921.806	10310
921.916	10139
922.025	10101
922.134	10032
922.244	9983
922.353	10097
922.462	9915
922.571	9869
922.68	9644
922.789	9629
922.898	9743
923.007	9671
923.116	9660
923.224	9694
923.333	9652
923.442	9614
923.55	9500
923.659	9534
923.767	9614
923.876	9526
923.984	9587
924.092	9496
924.201	9538
924.309	9568
924.417	9568
924.525	9473
924.633	9530
924.741	10246
924.849	9370
924.956	9477
925.064	9332
925.172	9313
925.279	9287
925.387	9344
925.494	9332
925.602	9485
925.709	9428
925.816	9302
925.924	9306
926.031	9420
926.138	9389
926.245	9325
926.352	9268
926.459	9431
926.566	9355
926.673	9275
926.779	9214
926.886	9123
926.993	9081
927.099	9043
927.206	8994
927.312	9001
927.419	9058
927.525	8979
927.631	9032
927.737	8956
927.843	8887
927.95	8842
928.056	8902
928.162	9013
928.267	9024
928.373	9637
928.479	9055
928.585	8800
928.69	8929
928.796	8944
928.901	8842
929.007	8716
929.112	8857
929.218	8834
929.323	8724
929.428	8750
929.533	8937
929.638	8708
929.743	8720
929.848	8758
929.953	8743
930.058	8731
930.163	8530
930.267	8533
930.372	8678
930.477	8457
930.581	8701
930.685	8598
930.79	8446
930.894	8484
930.998	8415
931.103	8556
931.207	8202
931.311	8164
931.415	8176
931.519	7944
931.623	7974
