Data from test_V78500241_1416.txt Node
Date: Fri Mar 25 14:43:34 CST 2022
User: usil
Spectrometer: V785-0024
Trigger mode: 0
Integration Time (sec): 4.000000E-1
Scans to average: 1
Nonlinearity correction enabled: false
Boxcar width: 0
Storing dark spectrum: false
XAxis mode: Wavelengths
Number of Pixels in Spectrum: 1024
>>>>>Begin Spectral Data<<<<<
801.071	22386
801.214	22390
801.356	22090
801.499	22040
801.641	21861
801.783	21876
801.926	21770
802.068	21743
802.211	21652
802.353	21663
802.496	21507
802.638	21401
802.78	21264
802.923	21089
803.065	21249
803.208	21096
803.35	20982
803.492	21214
803.635	21332
803.777	21211
803.919	21192
804.061	21408
804.204	21146
804.346	21081
804.488	21028
804.63	21089
804.773	21020
804.915	21036
805.057	21336
805.199	20990
805.341	21104
805.483	21108
805.626	21131
805.768	21051
805.91	21150
806.052	21062
806.194	21028
806.336	21096
806.478	21119
806.62	21047
806.762	21047
806.904	21203
807.046	21496
807.188	21473
807.33	21515
807.472	21428
807.614	21458
807.756	21439
807.898	21378
808.04	21214
808.182	21272
808.324	21249
808.465	21466
808.607	21603
808.749	21720
808.891	21774
809.033	21876
809.174	21808
809.316	21564
809.458	21595
809.6	21637
809.741	21610
809.883	21538
810.025	21610
810.166	21675
810.308	21599
810.45	21614
810.591	21599
810.733	21367
810.875	21264
811.016	21081
811.158	21096
811.299	21291
811.441	21359
811.582	21363
811.724	21329
811.865	21188
812.007	21233
812.148	21275
812.29	21374
812.431	21325
812.573	21603
812.714	21660
812.855	21682
812.997	21739
813.138	22021
813.279	21873
813.421	21618
813.562	21618
813.703	21576
813.845	21386
813.986	21184
814.127	21047
814.268	20823
814.41	20933
814.551	20838
814.692	20868
814.833	20716
814.974	20727
815.115	20682
815.256	20579
815.397	20590
815.539	20651
815.68	20556
815.821	20488
815.962	20537
816.103	20579
816.244	20450
816.385	20309
816.526	20309
816.666	19989
816.807	20062
816.948	20058
817.089	20180
817.23	20035
817.371	20039
817.512	20001
817.653	19883
817.793	19898
817.934	20039
818.075	19909
818.216	19959
818.356	19852
818.497	19788
818.638	19662
818.778	19685
818.919	19655
819.06	19609
819.2	19772
819.341	19928
819.481	19719
819.622	20024
819.762	20259
819.903	20016
820.043	19993
820.184	19944
820.324	19925
820.465	19951
820.605	19974
820.746	19890
820.886	19772
821.026	19879
821.167	19864
821.307	19947
821.447	19757
821.588	19719
821.728	19613
821.868	19457
822.008	19339
822.149	19293
822.289	19327
822.429	19129
822.569	19099
822.709	19023
822.849	18757
822.99	18886
823.13	18757
823.27	18711
823.41	18589
823.55	18536
823.69	18578
823.83	18688
823.97	18513
824.11	18365
824.25	18243
824.389	18418
824.529	18292
824.669	18448
824.809	18559
824.949	18536
825.089	18490
825.228	18300
825.368	18239
825.508	18232
825.648	18262
825.787	18171
825.927	18194
826.067	18125
826.206	18079
826.346	18140
826.485	18232
826.625	18167
826.765	18289
826.904	18129
827.044	17969
827.183	17920
827.323	17874
827.462	17904
827.601	17866
827.741	17821
827.88	17874
828.02	17680
828.159	17843
828.298	17939
828.437	17927
828.577	17863
828.716	17946
828.855	17760
828.994	17634
829.134	17661
829.273	17604
829.412	17532
829.551	17520
829.69	17543
829.829	17623
829.968	17718
830.107	17661
830.246	17714
830.385	17554
830.524	17398
830.663	17433
830.802	17376
830.941	17330
831.08	17220
831.219	17349
831.357	17231
831.496	17429
831.635	17124
831.774	17136
831.913	17083
832.051	17010
832.19	17018
832.329	17094
832.467	17025
832.606	16961
832.744	16949
832.883	16942
833.022	16957
833.16	16927
833.299	17033
833.437	16889
833.576	16972
833.714	16930
833.852	16961
833.991	17048
834.129	17075
834.267	17006
834.406	16949
834.544	17143
834.682	16976
834.821	16938
834.959	17143
835.097	16991
835.235	17045
835.373	16995
835.511	16927
835.65	16782
835.788	16869
835.926	16767
836.064	16691
836.202	16691
836.34	16873
836.478	17060
836.615	16809
836.753	16911
836.891	16946
837.029	16816
837.167	16816
837.305	16710
837.443	16744
837.58	16706
837.718	16858
837.856	16748
837.993	16733
838.131	16786
838.269	16637
838.406	16615
838.544	16603
838.681	16550
838.819	16405
838.956	16299
839.094	16344
839.231	16360
839.369	16432
839.506	16592
839.643	16455
839.781	16363
839.918	16154
840.055	16341
840.193	16272
840.33	16169
840.467	16223
840.604	16432
840.742	16485
840.879	16139
841.016	16154
841.153	16116
841.29	16344
841.427	16230
841.564	16257
841.701	16386
841.838	16169
841.975	16154
842.112	16200
842.249	16101
842.385	16032
842.522	16249
842.659	16097
842.796	16006
842.933	16128
843.069	15926
843.206	15991
843.343	16169
843.479	16013
843.616	16013
843.752	15797
843.889	15819
844.025	15949
844.162	15846
844.298	15975
844.435	15827
844.571	15762
844.708	15804
844.844	16048
844.98	15987
845.117	15918
845.253	15789
845.389	15686
845.525	15816
845.661	15869
845.798	15876
845.934	15937
846.07	15964
846.206	16055
846.342	15968
846.478	15720
846.614	15564
846.75	15386
846.886	15363
847.022	15488
847.158	15412
847.294	15473
847.429	15420
847.565	15374
847.701	15660
847.837	15207
847.972	15119
848.108	15386
848.244	15150
848.379	15074
848.515	14990
848.65	14975
848.786	14990
848.921	15066
849.057	15142
849.192	15001
849.328	15150
849.463	14963
849.598	15051
849.734	14929
849.869	14914
850.004	14815
850.14	14804
850.275	14777
850.41	14655
850.545	14712
850.68	14724
850.815	14826
850.95	14785
851.085	15013
851.22	14868
851.355	14800
851.49	14739
851.625	14705
851.76	14754
851.895	14667
852.03	14621
852.165	14788
852.299	14842
852.434	14826
852.569	14678
852.703	14746
852.838	14853
852.973	14944
853.107	14952
853.242	14765
853.376	14697
853.511	14431
853.645	14556
853.78	14720
853.914	14617
854.048	14590
854.183	14644
854.317	14716
854.451	14762
854.585	14686
854.72	14514
854.854	14590
854.988	14507
855.122	14648
855.256	14556
855.39	14667
855.524	14750
855.658	14712
855.792	14610
855.926	14712
856.06	14682
856.194	14807
856.327	14594
856.461	14568
856.595	14610
856.729	14632
856.862	14716
856.996	14693
857.13	14693
857.263	14674
857.397	14777
857.53	14667
857.664	14682
857.797	14727
857.931	14838
858.064	14667
858.197	14689
858.331	14640
858.464	14571
858.597	14530
858.731	14613
858.864	14606
858.997	14575
859.13	14625
859.263	14636
859.396	14727
859.529	14594
859.662	14465
859.795	14575
859.928	14556
860.061	14834
860.194	14762
860.327	14689
860.46	14629
860.592	14800
860.725	14739
860.858	14777
860.99	14663
861.123	14617
861.256	14499
861.388	14594
861.521	15439
861.653	14473
861.786	14457
861.918	14469
862.05	14476
862.183	14568
862.315	14617
862.447	14670
862.58	14617
862.712	14404
862.844	14377
862.976	14450
863.108	14358
863.24	14861
863.372	14385
863.504	14396
863.636	14419
863.768	14419
863.9	14469
864.032	14355
864.164	14408
864.296	14339
864.428	14457
864.559	14549
864.691	14454
864.823	14488
864.954	14415
865.086	14461
865.217	14454
865.349	14202
865.48	14301
865.612	14381
865.743	14476
865.875	14461
866.006	14366
866.137	14461
866.269	14434
866.4	14358
866.531	14442
866.662	14343
866.793	14320
866.924	14336
867.055	14408
867.186	14400
867.317	14366
867.448	14229
867.579	14355
867.71	14282
867.841	14259
867.972	14393
868.103	14278
868.233	14374
868.364	14408
868.495	14469
868.625	14587
868.756	14648
868.886	14495
869.017	14636
869.147	14663
869.278	14754
869.408	14667
869.539	14659
869.669	14712
869.799	14610
869.929	14716
870.06	14765
870.19	14956
870.32	14861
870.45	14960
870.58	15005
870.71	15192
870.84	15100
870.97	15039
871.1	15036
871.23	15142
871.36	15252
871.489	15089
871.619	15176
871.749	15207
871.879	15275
872.008	15268
872.138	15256
872.267	15176
872.397	15142
872.526	15024
872.656	15032
872.785	15058
872.915	15237
873.044	15256
873.173	15317
873.303	15313
873.432	15264
873.561	15370
873.69	15283
873.819	15363
873.948	15351
874.077	15294
874.206	15230
874.335	15291
874.464	15458
874.593	15584
874.722	15534
874.851	15625
874.979	15663
875.108	15595
875.237	15568
875.365	15488
875.494	15610
875.623	15698
875.751	15614
875.88	15603
876.008	15781
876.136	15785
876.265	15945
876.393	16173
876.521	16074
876.65	16143
876.778	16074
876.906	16006
877.034	15945
877.162	15937
877.29	15968
877.418	15987
877.546	15953
877.674	15968
877.802	15956
877.93	16078
878.058	16055
878.185	15827
878.313	16002
878.441	16063
878.568	15774
878.696	15991
878.824	16131
878.951	16097
879.079	16257
879.206	16394
879.333	16299
879.461	16116
879.588	16257
879.715	16424
879.842	16398
879.97	16173
880.097	15926
880.224	15865
880.351	15861
880.478	15915
880.605	15895
880.732	15949
880.859	16154
880.986	15937
881.112	15941
881.239	15816
881.366	15629
881.493	15526
881.619	15523
881.746	15485
881.872	15462
881.999	15572
882.125	15492
882.252	15667
882.378	15606
882.505	15686
882.631	15447
882.757	15359
882.883	15420
883.01	15310
883.136	15329
883.262	15317
883.388	15138
883.514	15279
883.64	15382
883.766	15310
883.892	15142
884.018	15138
884.143	15317
884.269	15454
884.395	15135
884.52	15058
884.646	15081
884.772	14921
884.897	14914
885.023	14971
885.148	15165
885.274	15249
885.399	15093
885.524	15093
885.65	15028
885.775	15070
885.9	15058
886.025	15150
886.15	15081
886.275	15020
886.4	14971
886.525	15028
886.65	14929
886.775	15017
886.9	15123
887.025	15367
887.149	14906
887.274	14758
887.399	14785
887.523	14838
887.648	14819
887.773	14712
887.897	14986
888.021	14883
888.146	14861
888.27	14952
888.395	15020
888.519	14929
888.643	14800
888.767	14967
888.891	14807
889.015	14689
889.139	14823
889.263	14655
889.387	14853
889.511	14990
889.635	14758
889.759	14758
889.883	14682
890.006	14762
890.13	14777
890.254	14667
890.377	14686
890.501	14511
890.624	14499
890.748	14560
890.871	14427
890.995	14263
891.118	14271
891.241	14431
891.364	14408
891.488	14495
891.611	14514
891.734	14465
891.857	14454
891.98	14431
892.103	14488
892.226	14393
892.349	14309
892.471	14248
892.594	14393
892.717	14442
892.839	14396
892.962	14377
893.085	14495
893.207	14320
893.33	14339
893.452	14427
893.575	14328
893.697	14370
893.819	14530
893.941	14537
894.064	14568
894.186	14282
894.308	14370
894.43	14590
894.552	14610
894.674	14522
894.796	14366
894.918	14381
895.04	14362
895.161	14579
895.283	14511
895.405	14442
895.526	14526
895.648	14412
895.769	14495
895.891	14526
896.012	14625
896.134	14579
896.255	14541
896.376	14495
896.498	14415
896.619	14590
896.74	14613
896.861	14598
896.982	14944
897.103	15009
897.224	14785
897.345	14815
897.466	14674
897.587	14815
897.708	14921
897.828	14891
897.949	14750
898.07	14651
898.19	14777
898.311	14887
898.431	14739
898.552	14960
898.672	15017
898.792	14963
898.913	14982
899.033	14910
899.153	14693
899.273	14712
899.393	14659
899.513	14785
899.633	14750
899.753	14720
899.873	14792
899.993	14765
900.113	14651
900.232	14777
900.352	14651
900.472	14678
900.591	14598
900.711	14697
900.83	14579
900.95	14716
901.069	14674
901.189	14659
901.308	14282
901.427	14286
901.546	14267
901.665	14240
901.784	14324
901.904	14187
902.023	14031
902.141	13871
902.26	13833
902.379	13959
902.498	13811
902.617	13814
902.735	13841
902.854	13856
902.973	13753
903.091	13529
903.21	13529
903.328	13510
903.446	13457
903.565	13495
903.683	13453
903.801	13225
903.919	13335
904.038	13320
904.156	13236
904.274	13358
904.392	13149
904.51	13152
904.627	13103
904.745	13331
904.863	13221
904.981	13057
905.098	12817
905.216	12810
905.334	12852
905.451	12875
905.569	12905
905.686	12901
905.803	12924
905.921	12677
906.038	12837
906.155	12779
906.272	12604
906.389	12627
906.506	12517
906.623	12391
906.74	12448
906.857	12289
906.974	12357
907.091	12525
907.208	12662
907.324	12513
907.441	12433
907.557	12330
907.674	12247
907.79	12175
907.907	12167
908.023	12213
908.139	12228
908.256	12201
908.372	12175
908.488	12148
908.604	12087
908.72	11954
908.836	11939
908.952	11965
909.068	12038
909.184	12102
909.3	11984
909.415	12011
909.531	11988
909.647	11805
909.762	11726
909.878	11718
909.993	11798
910.108	11665
910.224	11680
910.339	11802
910.454	11604
910.57	11661
910.685	11524
910.8	11882
910.915	11737
911.03	11676
911.145	11478
911.259	11452
911.374	11429
911.489	11429
911.604	11368
911.718	11174
911.833	11273
911.947	11105
912.062	11033
912.176	11185
912.291	11185
912.405	11185
912.519	11398
912.633	11497
912.748	11326
912.862	11162
912.976	11193
913.09	10995
913.204	11041
913.318	11147
913.431	11239
913.545	11136
913.659	11185
913.772	11090
913.886	10961
914	10915
914.113	11102
914.226	11117
914.34	11060
914.453	10854
914.566	11056
914.68	10896
914.793	10885
914.906	10721
915.019	10698
915.132	10618
915.245	10725
915.358	10721
915.47	10793
915.583	10752
915.696	10812
915.809	10858
915.921	10862
916.034	10660
916.146	10641
916.259	10694
916.371	10763
916.483	10714
916.595	10656
916.708	10573
916.82	10725
916.932	10698
917.044	10607
917.156	10588
917.268	10497
917.38	10493
917.491	10542
917.603	10554
917.715	10637
917.826	10740
917.938	10588
918.049	10440
918.161	10546
918.272	10729
918.384	10691
918.495	10611
918.606	10451
918.717	10382
918.828	10375
918.939	10474
919.05	10375
919.161	10466
919.272	10162
919.383	10352
919.494	10493
919.604	10687
919.715	10447
919.826	10394
919.936	10432
920.047	10485
920.157	10451
920.267	10672
920.378	10481
920.488	10478
920.598	10645
920.708	10793
920.818	10653
920.928	10664
921.038	10782
921.148	10698
921.258	10466
921.368	10428
921.477	10303
921.587	10249
921.697	10169
921.806	10257
921.916	10253
922.025	10071
922.134	10055
922.244	9998
922.353	10002
922.462	9888
922.571	9823
922.68	9682
922.789	9599
922.898	9694
923.007	9656
923.116	9751
923.224	9766
923.333	9694
923.442	9504
923.55	9561
923.659	9644
923.767	9720
923.876	9534
923.984	9576
924.092	9477
924.201	9564
924.309	9644
924.417	9523
924.525	9496
924.633	9511
924.741	10421
924.849	9363
924.956	9519
925.064	9378
925.172	9245
925.279	9329
925.387	9397
925.494	9317
925.602	9488
925.709	9428
925.816	9298
925.924	9389
926.031	9378
926.138	9317
926.245	9408
926.352	9287
926.459	9443
926.566	9412
926.673	9329
926.779	9165
926.886	9256
926.993	9108
927.099	9036
927.206	9020
927.312	9013
927.419	9066
927.525	9077
927.631	9154
927.737	8960
927.843	8963
927.95	8826
928.056	8956
928.162	8887
928.267	9013
928.373	9694
928.479	9100
928.585	8796
928.69	8960
928.796	8948
928.901	8861
929.007	8720
929.112	8891
929.218	8781
929.323	8792
929.428	8682
929.533	8902
929.638	8697
929.743	8697
929.848	8724
929.953	8758
930.058	8629
930.163	8530
930.267	8571
930.372	8651
930.477	8507
930.581	8724
930.685	8632
930.79	8499
930.894	8461
930.998	8492
931.103	8621
931.207	8240
931.311	8218
931.415	8126
931.519	7947
931.623	8005
