Data from test_V78500241_3312.txt Node
Date: Fri Mar 25 14:56:46 CST 2022
User: usil
Spectrometer: V785-0024
Trigger mode: 0
Integration Time (sec): 4.000000E-1
Scans to average: 1
Nonlinearity correction enabled: false
Boxcar width: 0
Storing dark spectrum: false
XAxis mode: Wavelengths
Number of Pixels in Spectrum: 1024
>>>>>Begin Spectral Data<<<<<
801.071	21865
801.214	21850
801.356	21724
801.499	21599
801.641	21317
801.783	21355
801.926	21344
802.068	21393
802.211	21214
802.353	21051
802.496	20941
802.638	20739
802.78	20788
802.923	20716
803.065	20594
803.208	20701
803.35	20663
803.492	20781
803.635	20785
803.777	20670
803.919	20697
804.061	21043
804.204	20689
804.346	20522
804.488	20412
804.63	20678
804.773	20526
804.915	20625
805.057	20560
805.199	20450
805.341	20625
805.483	20648
805.626	20735
805.768	20632
805.91	20602
806.052	20606
806.194	20488
806.336	20629
806.478	20594
806.62	20552
806.762	20609
806.904	20781
807.046	21062
807.188	20910
807.33	20952
807.472	20952
807.614	20765
807.756	20804
807.898	20708
808.04	20537
808.182	20480
808.324	20651
808.465	20716
808.607	20853
808.749	20906
808.891	20986
809.033	21157
809.174	20948
809.316	20937
809.458	20906
809.6	20895
809.741	21017
809.883	20944
810.025	20910
810.166	21150
810.308	21119
810.45	20982
810.591	20990
810.733	20826
810.875	20796
811.016	20587
811.158	20511
811.299	20686
811.441	20754
811.582	20811
811.724	20674
811.865	20617
812.007	20716
812.148	20583
812.29	20629
812.431	20895
812.573	21009
812.714	21009
812.855	21157
812.997	21241
813.138	21370
813.279	21310
813.421	21173
813.562	21142
813.703	20960
813.845	20849
813.986	20625
814.127	20465
814.268	20214
814.41	20324
814.551	20103
814.692	20237
814.833	20077
814.974	20259
815.115	20107
815.256	20084
815.397	20100
815.539	20077
815.68	19913
815.821	19845
815.962	19963
816.103	19917
816.244	19833
816.385	19738
816.526	19662
816.666	19480
816.807	19320
816.948	19377
817.089	19430
817.23	19403
817.371	19339
817.512	19365
817.653	19278
817.793	19339
817.934	19362
818.075	19339
818.216	19346
818.356	19327
818.497	19133
818.638	19046
818.778	19122
818.919	19019
819.06	19114
819.2	19244
819.341	19247
819.481	19236
819.622	19441
819.762	19590
819.903	19506
820.043	19297
820.184	19301
820.324	19331
820.465	19430
820.605	19346
820.746	19316
820.886	19327
821.026	19240
821.167	19244
821.307	19373
821.447	19244
821.588	19088
821.728	19012
821.868	18837
822.008	18821
822.149	18700
822.289	18627
822.429	18475
822.569	18494
822.709	18456
822.849	18254
822.99	18174
823.13	18300
823.27	18155
823.41	18083
823.55	17954
823.69	18106
823.83	18015
823.97	18003
824.11	17904
824.25	17802
824.389	17893
824.529	18003
824.669	17745
824.809	17935
824.949	17889
825.089	17885
825.228	17809
825.368	17649
825.508	17665
825.648	17646
825.787	17657
825.927	17661
826.067	17490
826.206	17501
826.346	17672
826.485	17592
826.625	17657
826.765	17699
826.904	17680
827.044	17368
827.183	17280
827.323	17410
827.462	17345
827.601	17322
827.741	17318
827.88	17356
828.02	17178
828.159	17284
828.298	17265
828.437	17410
828.577	17303
828.716	17463
828.855	17296
828.994	17041
829.134	17071
829.273	17094
829.412	17029
829.551	17018
829.69	17143
829.829	17151
829.968	17220
830.107	17159
830.246	17094
830.385	17121
830.524	16934
830.663	16850
830.802	16801
830.941	16710
831.08	16725
831.219	16778
831.357	16809
831.496	16942
831.635	16687
831.774	16653
831.913	16500
832.051	16466
832.19	16493
832.329	16527
832.467	16329
832.606	16455
832.744	16405
832.883	16382
833.022	16352
833.16	16265
833.299	16360
833.437	16421
833.576	16413
833.714	16428
833.852	16493
833.991	16497
834.129	16504
834.267	16436
834.406	16470
834.544	16455
834.682	16451
834.821	16402
834.959	16637
835.097	16409
835.235	16561
835.373	16367
835.511	16531
835.65	16436
835.788	16367
835.926	16215
836.064	16207
836.202	16105
836.34	16322
836.478	16561
836.615	16363
836.753	16390
836.891	16459
837.029	16455
837.167	16337
837.305	16329
837.443	16280
837.58	16226
837.718	16325
837.856	16318
837.993	16257
838.131	16166
838.269	16173
838.406	16219
838.544	16093
838.681	15953
838.819	15987
838.956	15694
839.094	15652
839.231	15899
839.369	15888
839.506	16112
839.643	15956
839.781	15751
839.918	15823
840.055	15793
840.193	15774
840.33	15766
840.467	15770
840.604	15762
840.742	16055
840.879	15644
841.016	15652
841.153	15591
841.29	15934
841.427	15865
841.564	15770
841.701	15827
841.838	15656
841.975	15625
842.112	15739
842.249	15652
842.385	15606
842.522	15747
842.659	15641
842.796	15572
842.933	15526
843.069	15519
843.206	15526
843.343	15698
843.479	15614
843.616	15614
843.752	15485
843.889	15397
844.025	15481
844.162	15275
844.298	15435
844.435	15412
844.571	15287
844.708	15412
844.844	15496
844.98	15515
845.117	15420
845.253	15355
845.389	15199
845.525	15389
845.661	15192
845.798	15116
845.934	15112
846.07	15047
846.206	15127
846.342	15325
846.478	15211
846.614	15028
846.75	14891
846.886	14842
847.022	15028
847.158	14979
847.294	14921
847.429	15047
847.565	14933
847.701	15112
847.837	14674
847.972	14712
848.108	14735
848.244	14781
848.379	14613
848.515	14503
848.65	14552
848.786	14556
848.921	14552
849.057	14632
849.192	14629
849.328	14514
849.463	14549
849.598	14492
849.734	14393
849.869	14396
850.004	14339
850.14	14358
850.275	14286
850.41	14145
850.545	14256
850.68	14237
850.815	14275
850.95	14324
851.085	14476
851.22	14400
851.355	14317
851.49	14267
851.625	14328
851.76	14214
851.895	14145
852.03	14206
852.165	14286
852.299	14305
852.434	14385
852.569	14351
852.703	14309
852.838	14324
852.973	14446
853.107	14488
853.242	14202
853.376	14195
853.511	13989
853.645	14103
853.78	14256
853.914	14153
854.048	14157
854.183	14115
854.317	14126
854.451	14404
854.585	14157
854.72	14035
854.854	14244
854.988	14024
855.122	14164
855.256	14115
855.39	14065
855.524	14301
855.658	14225
855.792	14218
855.926	14202
856.06	14313
856.194	14180
856.327	14130
856.461	14161
856.595	14130
856.729	14145
856.862	14301
856.996	14138
857.13	14263
857.263	14286
857.397	14286
857.53	14183
857.664	14157
857.797	14298
857.931	14317
858.064	14229
858.197	14332
858.331	14100
858.464	14100
858.597	14008
858.731	14142
858.864	14130
858.997	14153
859.13	14237
859.263	14180
859.396	14195
859.529	14134
859.662	14145
859.795	14153
859.928	14229
860.061	14309
860.194	14221
860.327	14206
860.46	14107
860.592	14271
860.725	14370
860.858	14240
860.99	14134
861.123	14161
861.256	14073
861.388	14161
861.521	15020
861.653	14054
861.786	14069
861.918	13997
862.05	14031
862.183	14058
862.315	14191
862.447	14107
862.58	14126
862.712	13989
862.844	13906
862.976	14031
863.108	13925
863.24	14336
863.372	13982
863.504	13967
863.636	13841
863.768	14054
863.9	13849
864.032	13898
864.164	13951
864.296	13936
864.428	14062
864.559	14027
864.691	14012
864.823	13879
864.954	14005
865.086	14005
865.217	13989
865.349	13906
865.48	13925
865.612	14001
865.743	14088
865.875	13955
866.006	13795
866.137	13989
866.269	13970
866.4	13913
866.531	13921
866.662	13845
866.793	13852
866.924	13940
867.055	13955
867.186	13936
867.317	13864
867.448	13875
867.579	13932
867.71	13944
867.841	13883
867.972	13955
868.103	13928
868.233	13955
868.364	13947
868.495	13989
868.625	14176
868.756	14275
868.886	14134
869.017	14123
869.147	14278
869.278	14362
869.408	14172
869.539	14157
869.669	14225
869.799	14183
869.929	14221
870.06	14351
870.19	14431
870.32	14450
870.45	14537
870.58	14541
870.71	14667
870.84	14777
870.97	14598
871.1	14587
871.23	14845
871.36	14796
871.489	14629
871.619	14743
871.749	14750
871.879	14838
872.008	14944
872.138	14773
872.267	14853
872.397	14663
872.526	14507
872.656	14575
872.785	14746
872.915	14777
873.044	14872
873.173	14758
873.303	14830
873.432	14971
873.561	14899
873.69	14864
873.819	14807
873.948	14990
874.077	14880
874.206	14880
874.335	14868
874.464	15005
874.593	15077
874.722	15024
874.851	15291
874.979	15188
875.108	15211
875.237	15154
875.365	15150
875.494	15131
875.623	15180
875.751	15138
875.88	15188
876.008	15268
876.136	15363
876.265	15644
876.393	15720
876.521	15686
876.65	15618
876.778	15637
876.906	15549
877.034	15488
877.162	15504
877.29	15534
877.418	15599
877.546	15667
877.674	15545
877.802	15526
877.93	15530
878.058	15614
878.185	15416
878.313	15515
878.441	15515
878.568	15393
878.696	15511
878.824	15622
878.951	15686
879.079	15713
879.206	15934
879.333	15709
879.461	15660
879.588	15705
879.715	15812
879.842	15911
879.97	15705
880.097	15393
880.224	15344
880.351	15420
880.478	15473
880.605	15340
880.732	15374
880.859	15656
880.986	15439
881.112	15492
881.239	15317
881.366	15176
881.493	15211
881.619	15169
881.746	15146
881.872	15142
881.999	15058
882.125	15036
882.252	15119
882.378	15165
882.505	15230
882.631	15005
882.757	14876
882.883	14975
883.01	14937
883.136	14937
883.262	14701
883.388	14735
883.514	14925
883.64	14933
883.766	14849
883.892	14697
884.018	14762
884.143	14887
884.269	14979
884.395	14731
884.52	14571
884.646	14678
884.772	14552
884.897	14480
885.023	14594
885.148	14659
885.274	14697
885.399	14674
885.524	14530
885.65	14583
885.775	14708
885.9	14465
886.025	14670
886.15	14762
886.275	14598
886.4	14648
886.525	14693
886.65	14549
886.775	14560
886.9	14686
887.025	14762
887.149	14625
887.274	14457
887.399	14427
887.523	14381
887.648	14298
887.773	14298
887.897	14461
888.021	14610
888.146	14358
888.27	14556
888.395	14526
888.519	14473
888.643	14400
888.767	14503
888.891	14404
889.015	14267
889.139	14381
889.263	14248
889.387	14313
889.511	14533
889.635	14408
889.759	14343
889.883	14263
890.006	14294
890.13	14473
890.254	14282
890.377	14343
890.501	14195
890.624	14149
890.748	14088
890.871	14092
890.995	13993
891.118	13951
891.241	13997
891.364	13951
891.488	14054
891.611	13993
891.734	13982
891.857	13970
891.98	14005
892.103	14050
892.226	13967
892.349	13989
892.471	13833
892.594	13959
892.717	13940
892.839	13986
892.962	14001
893.085	14043
893.207	14081
893.33	13902
893.452	13906
893.575	13997
893.697	14039
893.819	14145
893.941	14145
894.064	14206
894.186	13986
894.308	14020
894.43	14081
894.552	14176
894.674	14153
894.796	13947
894.918	14031
895.04	14012
895.161	14138
895.283	14111
895.405	14069
895.526	14123
895.648	14065
895.769	14168
895.891	14126
896.012	14290
896.134	14233
896.255	14248
896.376	14145
896.498	14077
896.619	14259
896.74	14221
896.861	14263
896.982	14667
897.103	14682
897.224	14408
897.345	14469
897.466	14385
897.587	14366
897.708	14598
897.828	14549
897.949	14366
898.07	14377
898.19	14450
898.311	14587
898.431	14434
898.552	14533
898.672	14613
898.792	14613
898.913	14610
899.033	14461
899.153	14339
899.273	14309
899.393	14362
899.513	14457
899.633	14343
899.753	14415
899.873	14377
899.993	14377
900.113	14415
900.232	14415
900.352	14381
900.472	14202
900.591	14221
900.711	14248
900.83	14142
900.95	14233
901.069	14309
901.189	14176
901.308	14008
901.427	13909
901.546	13909
901.665	13875
901.784	13947
901.904	13784
902.023	13753
902.141	13499
902.26	13472
902.379	13586
902.498	13499
902.617	13472
902.735	13544
902.854	13495
902.973	13324
903.091	13213
903.21	13206
903.328	13362
903.446	13133
903.565	13126
903.683	13095
903.801	12966
903.919	13046
904.038	13023
904.156	12852
904.274	12913
904.392	12810
904.51	12878
904.627	12863
904.745	12909
904.863	12920
904.981	12707
905.098	12601
905.216	12555
905.334	12612
905.451	12597
905.569	12517
905.686	12544
905.803	12578
905.921	12490
906.038	12502
906.155	12448
906.272	12315
906.389	12308
906.506	12209
906.623	12213
906.74	12087
906.857	12068
906.974	12083
907.091	12228
907.208	12323
907.324	12213
907.441	12121
907.557	12026
907.674	11935
907.79	11908
907.907	11912
908.023	11889
908.139	11958
908.256	11889
908.372	11802
908.488	11855
908.604	11672
908.72	11684
908.836	11722
908.952	11729
909.068	11733
909.184	11775
909.3	11680
909.415	11714
909.531	11619
909.647	11425
909.762	11429
909.878	11471
909.993	11478
910.108	11436
910.224	11391
910.339	11490
910.454	11292
910.57	11280
910.685	11303
910.8	11577
910.915	11490
911.03	11334
911.145	11189
911.259	11197
911.374	11204
911.489	10980
911.604	11033
911.718	10938
911.833	10984
911.947	10793
912.062	10793
912.176	10885
912.291	10930
912.405	10862
912.519	11151
912.633	11067
912.748	10984
912.862	10866
912.976	10824
913.09	10637
913.204	10714
913.318	10710
913.431	10915
913.545	10797
913.659	10949
913.772	10812
913.886	10637
914	10607
914.113	10698
914.226	10771
914.34	10771
914.453	10641
914.566	10607
914.68	10752
914.793	10641
914.906	10500
915.019	10390
915.132	10265
915.245	10382
915.358	10421
915.47	10394
915.583	10500
915.696	10390
915.809	10512
915.921	10618
916.034	10371
916.146	10348
916.259	10379
916.371	10466
916.483	10409
916.595	10211
916.708	10306
916.82	10356
916.932	10367
917.044	10367
917.156	10352
917.268	10185
917.38	10329
917.491	10196
917.603	10291
917.715	10303
917.826	10413
917.938	10272
918.049	10128
918.161	10265
918.272	10375
918.384	10394
918.495	10253
918.606	10120
918.717	10032
918.828	10109
918.939	10173
919.05	10074
919.161	10112
919.272	9899
919.383	10036
919.494	10143
919.604	10314
919.715	10204
919.826	10029
919.936	10093
920.047	10287
920.157	10162
920.267	10344
920.378	10234
920.488	10166
920.598	10371
920.708	10504
920.818	10371
920.928	10363
921.038	10558
921.148	10462
921.258	10188
921.368	10055
921.477	9975
921.587	10036
921.697	9892
921.806	10010
921.916	9831
922.025	9747
922.134	9785
922.244	9663
922.353	9720
922.462	9629
922.571	9549
922.68	9412
922.789	9439
922.898	9424
923.007	9370
923.116	9431
923.224	9313
923.333	9485
923.442	9321
923.55	9302
923.659	9294
923.767	9378
923.876	9287
923.984	9313
924.092	9176
924.201	9287
924.309	9294
924.417	9287
924.525	9241
924.633	9260
924.741	10200
924.849	9062
924.956	9169
925.064	9005
925.172	9017
925.279	8994
925.387	9020
925.494	9116
925.602	9116
925.709	9112
925.816	9036
925.924	9066
926.031	9116
926.138	9077
926.245	9070
926.352	9024
926.459	9100
926.566	9230
926.673	9005
926.779	8857
926.886	8914
926.993	8880
927.099	8773
927.206	8670
927.312	8777
927.419	8792
927.525	8720
927.631	8887
927.737	8674
927.843	8651
927.95	8541
928.056	8689
928.162	8636
928.267	8731
928.373	9367
928.479	8853
928.585	8549
928.69	8651
928.796	8701
928.901	8598
929.007	8377
929.112	8530
929.218	8545
929.323	8541
929.428	8473
929.533	8602
929.638	8442
929.743	8465
929.848	8549
929.953	8507
930.058	8339
930.163	8317
930.267	8351
930.372	8434
930.477	8164
930.581	8511
930.685	8355
930.79	8195
930.894	8271
930.998	8195
931.103	8328
931.207	8012
931.311	7944
931.415	7879
931.519	7685
931.623	7776
