Data from test_V78500241_1401.txt Node
Date: Fri Mar 25 14:43:28 CST 2022
User: usil
Spectrometer: V785-0024
Trigger mode: 0
Integration Time (sec): 4.000000E-1
Scans to average: 1
Nonlinearity correction enabled: false
Boxcar width: 0
Storing dark spectrum: false
XAxis mode: Wavelengths
Number of Pixels in Spectrum: 1024
>>>>>Begin Spectral Data<<<<<
801.071	22440
801.214	22344
801.356	22166
801.499	21922
801.641	21922
801.783	21770
801.926	21690
802.068	21709
802.211	21705
802.353	21717
802.496	21329
802.638	21237
802.78	21260
802.923	21272
803.065	21119
803.208	21119
803.35	21245
803.492	21332
803.635	21237
803.777	21058
803.919	21298
804.061	21538
804.204	21230
804.346	21028
804.488	21005
804.63	21055
804.773	21028
804.915	20971
805.057	21146
805.199	20960
805.341	21047
805.483	21146
805.626	21058
805.768	20971
805.91	20952
806.052	21096
806.194	21009
806.336	21218
806.478	21020
806.62	20994
806.762	21058
806.904	21203
807.046	21488
807.188	21378
807.33	21454
807.472	21496
807.614	21363
807.756	21428
807.898	21260
808.04	21184
808.182	21173
808.324	21245
808.465	21355
808.607	21576
808.749	21663
808.891	21835
809.033	21857
809.174	21751
809.316	21675
809.458	21549
809.6	21473
809.741	21595
809.883	21641
810.025	21747
810.166	21656
810.308	21660
810.45	21614
810.591	21515
810.733	21302
810.875	21325
811.016	21081
811.158	21024
811.299	21348
811.441	21412
811.582	21272
811.724	21138
811.865	21173
812.007	21195
812.148	21256
812.29	21275
812.431	21412
812.573	21500
812.714	21667
812.855	21667
812.997	21816
813.138	21937
813.279	21690
813.421	21759
813.562	21523
813.703	21477
813.845	21317
813.986	21173
814.127	20876
814.268	20887
814.41	20735
814.551	20800
814.692	20864
814.833	20587
814.974	20739
815.115	20720
815.256	20560
815.397	20644
815.539	20606
815.68	20545
815.821	20522
815.962	20587
816.103	20530
816.244	20328
816.385	20221
816.526	20195
816.666	20081
816.807	20005
816.948	20024
817.089	20031
817.23	20065
817.371	19921
817.512	19947
817.653	19845
817.793	19822
817.934	19883
818.075	19970
818.216	19811
818.356	19894
818.497	19674
818.638	19605
818.778	19616
818.919	19609
819.06	19685
819.2	19795
819.341	19845
819.481	19849
819.622	19765
819.762	20027
819.903	20043
820.043	19959
820.184	19894
820.324	19887
820.465	19940
820.605	19913
820.746	19830
820.886	19788
821.026	19875
821.167	19833
821.307	19913
821.447	19788
821.588	19738
821.728	19597
821.868	19483
822.008	19168
822.149	19266
822.289	19297
822.429	19088
822.569	18981
822.709	18916
822.849	18791
822.99	18802
823.13	18772
823.27	18738
823.41	18578
823.55	18566
823.69	18570
823.83	18635
823.97	18528
824.11	18445
824.25	18403
824.389	18376
824.529	18460
824.669	18353
824.809	18540
824.949	18479
825.089	18490
825.228	18433
825.368	18254
825.508	18281
825.648	18190
825.787	18247
825.927	18194
826.067	18144
826.206	18163
826.346	18098
826.485	18148
826.625	18041
826.765	18262
826.904	18270
827.044	17958
827.183	17882
827.323	17847
827.462	17904
827.601	17817
827.741	17809
827.88	17901
828.02	17718
828.159	17794
828.298	17710
828.437	17851
828.577	17874
828.716	17946
828.855	17699
828.994	17657
829.134	17600
829.273	17680
829.412	17406
829.551	17608
829.69	17646
829.829	17707
829.968	17665
830.107	17619
830.246	17646
830.385	17577
830.524	17512
830.663	17376
830.802	17273
830.941	17231
831.08	17220
831.219	17212
831.357	17246
831.496	17444
831.635	17094
831.774	17170
831.913	17166
832.051	16949
832.19	16949
832.329	16957
832.467	16889
832.606	16812
832.744	16896
832.883	16949
833.022	16812
833.16	16942
833.299	17010
833.437	17025
833.576	16976
833.714	17045
833.852	17003
833.991	16980
834.129	17159
834.267	16968
834.406	16889
834.544	17041
834.682	16873
834.821	16881
834.959	17064
835.097	16877
835.235	17083
835.373	16987
835.511	17006
835.65	16831
835.788	16801
835.926	16626
836.064	16630
836.202	16816
836.34	16904
836.478	16968
836.615	16820
836.753	16839
836.891	16877
837.029	16930
837.167	16809
837.305	16740
837.443	16744
837.58	16713
837.718	16733
837.856	16706
837.993	16687
838.131	16733
838.269	16592
838.406	16668
838.544	16611
838.681	16394
838.819	16295
838.956	16234
839.094	16291
839.231	16306
839.369	16451
839.506	16637
839.643	16451
839.781	16306
839.918	16272
840.055	16253
840.193	16265
840.33	16226
840.467	16284
840.604	16253
840.742	16596
840.879	16131
841.016	16249
841.153	16112
841.29	16287
841.427	16272
841.564	16211
841.701	16299
841.838	16249
841.975	16139
842.112	16150
842.249	16063
842.385	15964
842.522	16234
842.659	16067
842.796	16017
842.933	16025
843.069	16051
843.206	15960
843.343	15987
843.479	15987
843.616	16150
843.752	15831
843.889	15766
844.025	15937
844.162	15816
844.298	15964
844.435	15835
844.571	15686
844.708	15732
844.844	16021
844.98	16006
845.117	16006
845.253	15880
845.389	15838
845.525	15781
845.661	15869
845.798	15816
845.934	16063
846.07	15926
846.206	16021
846.342	15926
846.478	15808
846.614	15576
846.75	15431
846.886	15378
847.022	15545
847.158	15408
847.294	15435
847.429	15447
847.565	15317
847.701	15606
847.837	15237
847.972	15119
848.108	15237
848.244	15207
848.379	15009
848.515	15009
848.65	15062
848.786	14979
848.921	15039
849.057	15032
849.192	15161
849.328	15039
849.463	14944
849.598	14880
849.734	15009
849.869	14921
850.004	14785
850.14	14952
850.275	14697
850.41	14659
850.545	14727
850.68	14724
850.815	14845
850.95	14689
851.085	14872
851.22	14880
851.355	14811
851.49	14716
851.625	14689
851.76	14716
851.895	14682
852.03	14636
852.165	14781
852.299	14781
852.434	14811
852.569	14716
852.703	14811
852.838	14899
852.973	14941
853.107	14811
853.242	14769
853.376	14670
853.511	14511
853.645	14610
853.78	14773
853.914	14636
854.048	14579
854.183	14564
854.317	14632
854.451	14781
854.585	14579
854.72	14583
854.854	14712
854.988	14564
855.122	14522
855.256	14446
855.39	14613
855.524	14663
855.658	14689
855.792	14636
855.926	14670
856.06	14705
856.194	14689
856.327	14678
856.461	14590
856.595	14632
856.729	14590
856.862	14667
856.996	14587
857.13	14746
857.263	14670
857.397	14701
857.53	14541
857.664	14686
857.797	14610
857.931	14708
858.064	14720
858.197	14720
858.331	14537
858.464	14590
858.597	14541
858.731	14571
858.864	14640
858.997	14530
859.13	14598
859.263	14629
859.396	14670
859.529	14701
859.662	14651
859.795	14533
859.928	14667
860.061	14781
860.194	14811
860.327	14712
860.46	14552
860.592	14746
860.725	14735
860.858	14701
860.99	14541
861.123	14663
861.256	14590
861.388	14571
861.521	15382
861.653	14499
861.786	14442
861.918	14495
862.05	14587
862.183	14552
862.315	14617
862.447	14610
862.58	14610
862.712	14450
862.844	14271
862.976	14412
863.108	14370
863.24	14887
863.372	14358
863.504	14404
863.636	14358
863.768	14377
863.9	14419
864.032	14332
864.164	14305
864.296	14423
864.428	14484
864.559	14480
864.691	14461
864.823	14415
864.954	14457
865.086	14476
865.217	14377
865.349	14275
865.48	14374
865.612	14423
865.743	14476
865.875	14423
866.006	14351
866.137	14328
866.269	14374
866.4	14404
866.531	14347
866.662	14271
866.793	14366
866.924	14305
867.055	14427
867.186	14427
867.317	14313
867.448	14267
867.579	14336
867.71	14225
867.841	14286
867.972	14381
868.103	14362
868.233	14385
868.364	14408
868.495	14473
868.625	14686
868.756	14735
868.886	14526
869.017	14598
869.147	14815
869.278	14739
869.408	14743
869.539	14716
869.669	14682
869.799	14701
869.929	14788
870.06	14823
870.19	15020
870.32	14895
870.45	15043
870.58	15047
870.71	15222
870.84	15199
870.97	15062
871.1	15009
871.23	15222
871.36	15161
871.489	15138
871.619	15287
871.749	15252
871.879	15230
872.008	15310
872.138	15226
872.267	15230
872.397	15116
872.526	15112
872.656	15062
872.785	15100
872.915	15283
873.044	15348
873.173	15367
873.303	15313
873.432	15310
873.561	15344
873.69	15329
873.819	15245
873.948	15348
874.077	15336
874.206	15272
874.335	15245
874.464	15477
874.593	15526
874.722	15492
874.851	15591
874.979	15694
875.108	15652
875.237	15610
875.365	15507
875.494	15591
875.623	15789
875.751	15603
875.88	15679
876.008	15854
876.136	15846
876.265	16067
876.393	16238
876.521	16074
876.65	16154
876.778	16074
876.906	15979
877.034	15991
877.162	16101
877.29	15937
877.418	15994
877.546	16051
877.674	16036
877.802	16017
877.93	16006
878.058	15979
878.185	15949
878.313	16032
878.441	16101
878.568	16029
878.696	15945
878.824	16097
878.951	16086
879.079	16249
879.206	16382
879.333	16223
879.461	16128
879.588	16249
879.715	16310
879.842	16558
879.97	16112
880.097	16013
880.224	15956
880.351	15956
880.478	15895
880.605	15899
880.732	15930
880.859	16124
880.986	15994
881.112	15979
881.239	15800
881.366	15644
881.493	15660
881.619	15542
881.746	15519
881.872	15686
881.999	15557
882.125	15641
882.252	15625
882.378	15618
882.505	15781
882.631	15492
882.757	15370
882.883	15488
883.01	15412
883.136	15359
883.262	15245
883.388	15207
883.514	15351
883.64	15447
883.766	15359
883.892	15256
884.018	15226
884.143	15374
884.269	15458
884.395	15142
884.52	15047
884.646	15116
884.772	14982
884.897	14937
885.023	15146
885.148	15165
885.274	15203
885.399	15287
885.524	14982
885.65	15066
885.775	15036
885.9	15093
886.025	15252
886.15	15165
886.275	15062
886.4	14990
886.525	15051
886.65	14948
886.775	14971
886.9	15165
887.025	15230
887.149	15070
887.274	14895
887.399	14910
887.523	14765
887.648	14868
887.773	14746
887.897	14899
888.021	14967
888.146	14796
888.27	14925
888.395	14994
888.519	14906
888.643	14994
888.767	14872
888.891	14819
889.015	14754
889.139	14701
889.263	14712
889.387	14834
889.511	14880
889.635	14899
889.759	14762
889.883	14667
890.006	14701
890.13	14731
890.254	14746
890.377	14644
890.501	14575
890.624	14434
890.748	14579
890.871	14431
890.995	14423
891.118	14408
891.241	14366
891.364	14476
891.488	14511
891.611	14381
891.734	14385
891.857	14488
891.98	14408
892.103	14541
892.226	14454
892.349	14415
892.471	14336
892.594	14438
892.717	14518
892.839	14415
892.962	14381
893.085	14457
893.207	14450
893.33	14336
893.452	14339
893.575	14450
893.697	14381
893.819	14686
893.941	14568
894.064	14522
894.186	14412
894.308	14298
894.43	14560
894.552	14621
894.674	14560
894.796	14347
894.918	14473
895.04	14423
895.161	14556
895.283	14564
895.405	14446
895.526	14530
895.648	14579
895.769	14503
895.891	14621
896.012	14621
896.134	14602
896.255	14526
896.376	14484
896.498	14541
896.619	14674
896.74	14644
896.861	14667
896.982	14887
897.103	14990
897.224	14838
897.345	14796
897.466	14792
897.587	14838
897.708	14914
897.828	14834
897.949	14872
898.07	14754
898.19	14792
898.311	15017
898.431	14819
898.552	14990
898.672	15032
898.792	15039
898.913	14921
899.033	14868
899.153	14811
899.273	14716
899.393	14746
899.513	14750
899.633	14762
899.753	14792
899.873	14655
899.993	14838
900.113	14762
900.232	14823
900.352	14708
900.472	14701
900.591	14571
900.711	14727
900.83	14632
900.95	14625
901.069	14815
901.189	14602
901.308	14347
901.427	14332
901.546	14271
901.665	14351
901.784	14358
901.904	14259
902.023	14134
902.141	13909
902.26	13864
902.379	13887
902.498	13791
902.617	13811
902.735	13833
902.854	13837
902.973	13906
903.091	13632
903.21	13578
903.328	13643
903.446	13510
903.565	13449
903.683	13453
903.801	13308
903.919	13407
904.038	13422
904.156	13228
904.274	13282
904.392	13285
904.51	13285
904.627	13228
904.745	13282
904.863	13297
904.981	13031
905.098	12909
905.216	12939
905.334	12981
905.451	12966
905.569	12840
905.686	12954
905.803	12909
905.921	12757
906.038	12829
906.155	12757
906.272	12639
906.389	12646
906.506	12597
906.623	12498
906.74	12460
906.857	12448
906.974	12410
907.091	12521
907.208	12627
907.324	12532
907.441	12528
907.557	12251
907.674	12361
907.79	12178
907.907	12277
908.023	12232
908.139	12201
908.256	12190
908.372	12140
908.488	12175
908.604	12053
908.72	11984
908.836	12152
908.952	12003
909.068	11988
909.184	12159
909.3	12045
909.415	12007
909.531	11920
909.647	11832
909.762	11851
909.878	11813
909.993	11779
910.108	11729
910.224	11745
910.339	11714
910.454	11688
910.57	11634
910.685	11585
910.8	11824
910.915	11832
911.03	11665
911.145	11478
911.259	11463
911.374	11535
911.489	11379
911.604	11372
911.718	11265
911.833	11258
911.947	11121
912.062	11102
912.176	11204
912.291	11223
912.405	11239
912.519	11436
912.633	11307
912.748	11322
912.862	11242
912.976	11048
913.09	10980
913.204	11079
913.318	11124
913.431	11151
913.545	11273
913.659	11231
913.772	11041
913.886	10965
914	10976
914.113	11045
914.226	11140
914.34	11113
914.453	10957
914.566	11090
914.68	10972
914.793	10889
914.906	10771
915.019	10721
915.132	10592
915.245	10698
915.358	10694
915.47	10660
915.583	10790
915.696	10797
915.809	10843
915.921	10786
916.034	10763
916.146	10588
916.259	10527
916.371	10801
916.483	10710
916.595	10592
916.708	10660
916.82	10660
916.932	10634
917.044	10599
917.156	10672
917.268	10535
917.38	10462
917.491	10519
917.603	10535
917.715	10630
917.826	10641
917.938	10478
918.049	10478
918.161	10565
918.272	10615
918.384	10675
918.495	10538
918.606	10424
918.717	10341
918.828	10409
918.939	10424
919.05	10341
919.161	10462
919.272	10207
919.383	10287
919.494	10493
919.604	10603
919.715	10287
919.826	10402
919.936	10352
920.047	10470
920.157	10497
920.267	10653
920.378	10481
920.488	10413
920.598	10622
920.708	10721
920.818	10672
920.928	10607
921.038	10748
921.148	10717
921.258	10493
921.368	10363
921.477	10310
921.587	10299
921.697	10112
921.806	10314
921.916	10147
922.025	10021
922.134	10051
922.244	9972
922.353	10059
922.462	9873
922.571	9804
922.68	9644
922.789	9648
922.898	9610
923.007	9587
923.116	9694
923.224	9637
923.333	9660
923.442	9530
923.55	9622
923.659	9545
923.767	9606
923.876	9523
923.984	9690
924.092	9439
924.201	9549
924.309	9553
924.417	9557
924.525	9526
924.633	9416
924.741	10352
924.849	9317
924.956	9473
925.064	9226
925.172	9218
925.279	9245
925.387	9332
925.494	9291
925.602	9458
925.709	9317
925.816	9237
925.924	9355
926.031	9458
926.138	9287
926.245	9313
926.352	9230
926.459	9431
926.566	9420
926.673	9294
926.779	9180
926.886	9131
926.993	9085
927.099	9024
927.206	8994
927.312	8937
927.419	9081
927.525	9085
927.631	9089
927.737	8899
927.843	8944
927.95	8815
928.056	8906
928.162	8842
928.267	9024
928.373	9545
928.479	9020
928.585	8758
928.69	8921
928.796	8944
928.901	8807
929.007	8598
929.112	8864
929.218	8777
929.323	8731
929.428	8777
929.533	8823
929.638	8697
929.743	8735
929.848	8705
929.953	8697
930.058	8625
930.163	8495
930.267	8514
930.372	8625
930.477	8511
930.581	8682
930.685	8552
930.79	8381
930.894	8465
930.998	8423
931.103	8575
931.207	8202
931.311	8168
931.415	8069
931.519	7909
931.623	7928
