Data from test_V78500241_2128.txt Node
Date: Fri Mar 25 14:48:31 CST 2022
User: usil
Spectrometer: V785-0024
Trigger mode: 0
Integration Time (sec): 4.000000E-1
Scans to average: 1
Nonlinearity correction enabled: false
Boxcar width: 0
Storing dark spectrum: false
XAxis mode: Wavelengths
Number of Pixels in Spectrum: 1024
>>>>>Begin Spectral Data<<<<<
801.071	22188
801.214	22093
801.356	21709
801.499	21606
801.641	21428
801.783	21378
801.926	21549
802.068	21454
802.211	21310
802.353	21302
802.496	21089
802.638	21066
802.78	21001
802.923	20902
803.065	20823
803.208	20876
803.35	20785
803.492	20895
803.635	20948
803.777	20788
803.919	20902
804.061	21154
804.204	20906
804.346	20701
804.488	20788
804.63	20724
804.773	20655
804.915	20796
805.057	20811
805.199	20705
805.341	20792
805.483	20868
805.626	20743
805.768	20701
805.91	20735
806.052	20796
806.194	20682
806.336	20937
806.478	20708
806.62	20659
806.762	20720
806.904	21055
807.046	21199
807.188	21066
807.33	21020
807.472	21127
807.614	21039
807.756	20990
807.898	20838
808.04	20807
808.182	20815
808.324	20861
808.465	20979
808.607	21066
808.749	21100
808.891	21279
809.033	21214
809.174	21211
809.316	21074
809.458	21157
809.6	21135
809.741	21169
809.883	21188
810.025	21325
810.166	21241
810.308	21317
810.45	21275
810.591	21081
810.733	20990
810.875	20982
811.016	20830
811.158	20727
811.299	20861
811.441	21039
811.582	21070
811.724	20864
811.865	20781
812.007	20963
812.148	20796
812.29	20944
812.431	20990
812.573	21074
812.714	21329
812.855	21439
812.997	21526
813.138	21618
813.279	21618
813.421	21340
813.562	21249
813.703	21192
813.845	21055
813.986	20819
814.127	20556
814.268	20469
814.41	20488
814.551	20434
814.692	20400
814.833	20381
814.974	20370
815.115	20400
815.256	20157
815.397	20290
815.539	20210
815.68	20126
815.821	20149
815.962	20240
816.103	20157
816.244	20100
816.385	19932
816.526	19780
816.666	19727
816.807	19677
816.948	19658
817.089	19833
817.23	19575
817.371	19518
817.512	19666
817.653	19578
817.793	19586
817.934	19552
818.075	19609
818.216	19540
818.356	19544
818.497	19411
818.638	19278
818.778	19301
818.919	19202
819.06	19293
819.2	19400
819.341	19415
819.481	19282
819.622	19563
819.762	19833
819.903	19689
820.043	19582
820.184	19487
820.324	19525
820.465	19628
820.605	19480
820.746	19537
820.886	19430
821.026	19487
821.167	19487
821.307	19499
821.447	19495
821.588	19324
821.728	19278
821.868	19061
822.008	18981
822.149	18901
822.289	18916
822.429	18650
822.569	18639
822.709	18604
822.849	18555
822.99	18399
823.13	18319
823.27	18521
823.41	18338
823.55	18281
823.69	18266
823.83	18266
823.97	18163
824.11	18049
824.25	17999
824.389	18049
824.529	18114
824.669	18049
824.809	18140
824.949	18144
825.089	18110
825.228	17999
825.368	17882
825.508	17779
825.648	17889
825.787	17866
825.927	17794
826.067	17703
826.206	17722
826.346	17790
826.485	17805
826.625	17726
826.765	17920
826.904	17790
827.044	17551
827.183	17615
827.323	17474
827.462	17543
827.601	17391
827.741	17425
827.88	17486
828.02	17391
828.159	17482
828.298	17573
828.437	17592
828.577	17547
828.716	17638
828.855	17467
828.994	17258
829.134	17212
829.273	17170
829.412	17246
829.551	17174
829.69	17166
829.829	17364
829.968	17341
830.107	17250
830.246	17326
830.385	17265
830.524	17212
830.663	17029
830.802	17025
830.941	16885
831.08	16858
831.219	16923
831.357	16858
831.496	17014
831.635	16816
831.774	16839
831.913	16755
832.051	16588
832.19	16729
832.329	16641
832.467	16577
832.606	16535
832.744	16554
832.883	16542
833.022	16497
833.16	16603
833.299	16588
833.437	16622
833.576	16698
833.714	16702
833.852	16535
833.991	16512
834.129	16767
834.267	16694
834.406	16641
834.544	16656
834.682	16736
834.821	16474
834.959	16786
835.097	16569
835.235	16683
835.373	16634
835.511	16615
835.65	16478
835.788	16474
835.926	16402
836.064	16356
836.202	16424
836.34	16497
836.478	16577
836.615	16527
836.753	16481
836.891	16554
837.029	16565
837.167	16413
837.305	16500
837.443	16322
837.58	16333
837.718	16390
837.856	16413
837.993	16409
838.131	16329
838.269	16280
838.406	16337
838.544	16299
838.681	16063
838.819	16105
838.956	15895
839.094	15895
839.231	15979
839.369	16048
839.506	16188
839.643	16188
839.781	15892
839.918	15876
840.055	16021
840.193	15899
840.33	15918
840.467	16032
840.604	15983
840.742	16109
840.879	15800
841.016	16010
841.153	15770
841.29	16086
841.427	15873
841.564	16013
841.701	16006
841.838	15979
841.975	15739
842.112	15781
842.249	15781
842.385	15625
842.522	15816
842.659	15709
842.796	15667
842.933	15629
843.069	15663
843.206	15720
843.343	15876
843.479	15804
843.616	15793
843.752	15466
843.889	15595
844.025	15629
844.162	15564
844.298	15637
844.435	15458
844.571	15431
844.708	15568
844.844	15652
844.98	15663
845.117	15629
845.253	15382
845.389	15287
845.525	15500
845.661	15355
845.798	15412
845.934	15435
846.07	15176
846.206	15355
846.342	15431
846.478	15329
846.614	15043
846.75	15066
846.886	15005
847.022	15192
847.158	15013
847.294	15116
847.429	15104
847.565	15043
847.701	15397
847.837	14781
847.972	14785
848.108	14910
848.244	14956
848.379	14708
848.515	14716
848.65	14648
848.786	14659
848.921	14659
849.057	14758
849.192	14724
849.328	14735
849.463	14678
849.598	14697
849.734	14686
849.869	14552
850.004	14419
850.14	14476
850.275	14537
850.41	14404
850.545	14469
850.68	14412
850.815	14488
850.95	14317
851.085	14655
851.22	14514
851.355	14518
851.49	14358
851.625	14389
851.76	14362
851.895	14332
852.03	14328
852.165	14358
852.299	14484
852.434	14503
852.569	14533
852.703	14434
852.838	14484
852.973	14583
853.107	14613
853.242	14309
853.376	14404
853.511	14180
853.645	14214
853.78	14419
853.914	14370
854.048	14278
854.183	14206
854.317	14336
854.451	14450
854.585	14290
854.72	14290
854.854	14332
854.988	14298
855.122	14320
855.256	14096
855.39	14278
855.524	14339
855.658	14358
855.792	14355
855.926	14438
856.06	14370
856.194	14393
856.327	14313
856.461	14218
856.595	14309
856.729	14298
856.862	14389
856.996	14423
857.13	14286
857.263	14457
857.397	14533
857.53	14339
857.664	14301
857.797	14434
857.931	14495
858.064	14248
858.197	14404
858.331	14336
858.464	14240
858.597	14286
858.731	14271
858.864	14286
858.997	14256
859.13	14172
859.263	14396
859.396	14454
859.529	14309
859.662	14229
859.795	14195
859.928	14286
860.061	14469
860.194	14476
860.327	14336
860.46	14256
860.592	14381
860.725	14442
860.858	14362
860.99	14328
861.123	14252
861.256	14221
861.388	14263
861.521	15047
861.653	14187
861.786	14176
861.918	14259
862.05	14271
862.183	14191
862.315	14111
862.447	14370
862.58	14320
862.712	14115
862.844	14077
862.976	14164
863.108	14153
863.24	14362
863.372	14069
863.504	14073
863.636	14081
863.768	14157
863.9	14088
864.032	14016
864.164	14092
864.296	14180
864.428	14172
864.559	14282
864.691	14119
864.823	14119
864.954	14001
865.086	14153
865.217	14058
865.349	14054
865.48	14065
865.612	14145
865.743	14199
865.875	14043
866.006	14065
866.137	14100
866.269	14130
866.4	13997
866.531	13947
866.662	13959
866.793	14039
866.924	14005
867.055	14073
867.186	14043
867.317	14020
867.448	13989
867.579	14024
867.71	13955
867.841	14050
867.972	14005
868.103	14134
868.233	14123
868.364	14138
868.495	14130
868.625	14309
868.756	14415
868.886	14282
869.017	14267
869.147	14366
869.278	14393
869.408	14309
869.539	14309
869.669	14396
869.799	14393
869.929	14400
870.06	14412
870.19	14636
870.32	14598
870.45	14644
870.58	14769
870.71	14861
870.84	14788
870.97	14697
871.1	14712
871.23	14834
871.36	14880
871.489	14842
871.619	14967
871.749	14845
871.879	14986
872.008	14990
872.138	14956
872.267	14914
872.397	14796
872.526	14792
872.656	14701
872.785	14819
872.915	14944
873.044	15043
873.173	14998
873.303	15055
873.432	15017
873.561	15047
873.69	14998
873.819	14941
873.948	15112
874.077	15081
874.206	14918
874.335	15013
874.464	15161
874.593	15291
874.722	15157
874.851	15310
874.979	15408
875.108	15249
875.237	15192
875.365	15161
875.494	15237
875.623	15321
875.751	15252
875.88	15424
876.008	15428
876.136	15530
876.265	15629
876.393	15960
876.521	15793
876.65	15789
876.778	15698
876.906	15591
877.034	15648
877.162	15675
877.29	15587
877.418	15724
877.546	15682
877.674	15694
877.802	15709
877.93	15739
878.058	15652
878.185	15526
878.313	15603
878.441	15652
878.568	15557
878.696	15614
878.824	15732
878.951	15762
879.079	15934
879.206	16010
879.333	15846
879.461	15884
879.588	15789
879.715	15953
879.842	15983
879.97	15667
880.097	15545
880.224	15542
880.351	15629
880.478	15580
880.605	15492
880.732	15584
880.859	15732
880.986	15641
881.112	15561
881.239	15469
881.366	15306
881.493	15275
881.619	15184
881.746	15211
881.872	15264
881.999	15123
882.125	15116
882.252	15237
882.378	15097
882.505	15378
882.631	15161
882.757	14925
882.883	15146
883.01	15001
883.136	14952
883.262	14807
883.388	14948
883.514	15077
883.64	15142
883.766	14967
883.892	14918
884.018	14849
884.143	14979
884.269	15180
884.395	14727
884.52	14754
884.646	14682
884.772	14575
884.897	14689
885.023	14785
885.148	14826
885.274	14872
885.399	14746
885.524	14735
885.65	14746
885.775	14750
885.9	14712
886.025	14823
886.15	14876
886.275	14708
886.4	14613
886.525	14670
886.65	14674
886.775	14682
886.9	14845
887.025	14899
887.149	14697
887.274	14621
887.399	14476
887.523	14476
887.648	14499
887.773	14503
887.897	14552
888.021	14648
888.146	14579
888.27	14629
888.395	14727
888.519	14530
888.643	14655
888.767	14571
888.891	14545
889.015	14400
889.139	14362
889.263	14484
889.387	14385
889.511	14655
889.635	14556
889.759	14336
889.883	14317
890.006	14537
890.13	14583
890.254	14389
890.377	14282
890.501	14191
890.624	14134
890.748	14214
890.871	14172
890.995	14107
891.118	14008
891.241	14138
891.364	14084
891.488	14237
891.611	14145
891.734	14073
891.857	14161
891.98	14145
892.103	14164
892.226	14172
892.349	14039
892.471	13993
892.594	14092
892.717	14111
892.839	14123
892.962	14138
893.085	14210
893.207	14123
893.33	13982
893.452	14020
893.575	14145
893.697	14164
893.819	14381
893.941	14347
894.064	14259
894.186	14103
894.308	14043
894.43	14290
894.552	14396
894.674	14259
894.796	14027
894.918	14153
895.04	14199
895.161	14290
895.283	14256
895.405	14126
895.526	14221
895.648	14187
895.769	14218
895.891	14309
896.012	14339
896.134	14339
896.255	14309
896.376	14206
896.498	14271
896.619	14237
896.74	14199
896.861	14400
896.982	14560
897.103	14758
897.224	14617
897.345	14564
897.466	14465
897.587	14450
897.708	14651
897.828	14686
897.949	14530
898.07	14412
898.19	14492
898.311	14731
898.431	14541
898.552	14667
898.672	14735
898.792	14731
898.913	14731
899.033	14640
899.153	14495
899.273	14377
899.393	14511
899.513	14492
899.633	14461
899.753	14488
899.873	14412
899.993	14587
900.113	14499
900.232	14469
900.352	14484
900.472	14454
900.591	14358
900.711	14298
900.83	14313
900.95	14492
901.069	14434
901.189	14317
901.308	14145
901.427	14088
901.546	14065
901.665	13986
901.784	14088
901.904	13936
902.023	13849
902.141	13605
902.26	13586
902.379	13674
902.498	13605
902.617	13525
902.735	13628
902.854	13586
902.973	13609
903.091	13381
903.21	13339
903.328	13278
903.446	13149
903.565	13179
903.683	13164
903.801	13129
903.919	13053
904.038	13107
904.156	13080
904.274	13065
904.392	12970
904.51	13034
904.627	12996
904.745	13034
904.863	13126
904.981	12703
905.098	12753
905.216	12745
905.334	12681
905.451	12654
905.569	12715
905.686	12642
905.803	12703
905.921	12540
906.038	12566
906.155	12566
906.272	12361
906.389	12483
906.506	12216
906.623	12330
906.74	12243
906.857	12129
906.974	12167
907.091	12319
907.208	12323
907.324	12251
907.441	12125
907.557	12015
907.674	12045
907.79	11912
907.907	11939
908.023	12041
908.139	12057
908.256	11920
908.372	12034
908.488	11935
908.604	11851
908.72	11707
908.836	11726
908.952	11764
909.068	11767
909.184	11897
909.3	11718
909.415	11764
909.531	11783
909.647	11520
909.762	11566
909.878	11581
909.993	11497
910.108	11528
910.224	11497
910.339	11497
910.454	11459
910.57	11467
910.685	11318
910.8	11627
910.915	11573
911.03	11471
911.145	11318
911.259	11296
911.374	11223
911.489	11162
911.604	11079
911.718	11006
911.833	11048
911.947	10904
912.062	10869
912.176	11003
912.291	10930
912.405	11060
912.519	11189
912.633	11155
912.748	11083
912.862	10999
912.976	10972
913.09	10755
913.204	10801
913.318	10881
913.431	10957
913.545	10889
913.659	11022
913.772	10843
913.886	10790
914	10736
914.113	10843
914.226	10976
914.34	10847
914.453	10740
914.566	10763
914.68	10782
914.793	10645
914.906	10493
915.019	10474
915.132	10462
915.245	10440
915.358	10531
915.47	10474
915.583	10565
915.696	10611
915.809	10588
915.921	10573
916.034	10538
916.146	10462
916.259	10371
916.371	10580
916.483	10550
916.595	10363
916.708	10466
916.82	10421
916.932	10432
917.044	10306
917.156	10485
917.268	10219
917.38	10341
917.491	10287
917.603	10375
917.715	10402
917.826	10455
917.938	10303
918.049	10166
918.161	10348
918.272	10413
918.384	10382
918.495	10398
918.606	10173
918.717	10150
918.828	10268
918.939	10276
919.05	10211
919.161	10211
919.272	10055
919.383	10090
919.494	10207
919.604	10440
919.715	10185
919.826	10101
919.936	10166
920.047	10310
920.157	10211
920.267	10390
920.378	10257
920.488	10204
920.598	10386
920.708	10558
920.818	10428
920.928	10394
921.038	10599
921.148	10596
921.258	10268
921.368	10154
921.477	10116
921.587	10116
921.697	9968
921.806	10048
921.916	9968
922.025	9816
922.134	9781
922.244	9751
922.353	9797
922.462	9682
922.571	9614
922.68	9515
922.789	9481
922.898	9481
923.007	9363
923.116	9481
923.224	9504
923.333	9469
923.442	9351
923.55	9317
923.659	9393
923.767	9507
923.876	9310
923.984	9363
924.092	9275
924.201	9325
924.309	9321
924.417	9310
924.525	9283
924.633	9332
924.741	10196
924.849	9123
924.956	9222
925.064	9138
925.172	9100
925.279	9093
925.387	9169
925.494	9180
925.602	9268
925.709	9214
925.816	8982
925.924	9123
926.031	9218
926.138	9161
926.245	9123
926.352	9017
926.459	9180
926.566	9218
926.673	9058
926.779	8925
926.886	9070
926.993	8849
927.099	8826
927.206	8777
927.312	8876
927.419	8925
927.525	8823
927.631	8842
927.737	8754
927.843	8746
927.95	8708
928.056	8727
928.162	8773
928.267	8766
928.373	9363
928.479	8830
928.585	8598
928.69	8773
928.796	8769
928.901	8575
929.007	8415
929.112	8625
929.218	8648
929.323	8594
929.428	8583
929.533	8724
929.638	8484
929.743	8560
929.848	8655
929.953	8522
930.058	8454
930.163	8336
930.267	8362
930.372	8465
930.477	8298
930.581	8587
930.685	8408
930.79	8252
930.894	8317
930.998	8267
931.103	8362
931.207	8077
931.311	7955
931.415	7982
931.519	7795
931.623	7814
