Data from test_V78500241_1193.txt Node
Date: Fri Mar 25 14:42:01 CST 2022
User: usil
Spectrometer: V785-0024
Trigger mode: 0
Integration Time (sec): 4.000000E-1
Scans to average: 1
Nonlinearity correction enabled: false
Boxcar width: 0
Storing dark spectrum: false
XAxis mode: Wavelengths
Number of Pixels in Spectrum: 1024
>>>>>Begin Spectral Data<<<<<
801.071	22382
801.214	22394
801.356	22109
801.499	21953
801.641	21800
801.783	21846
801.926	21778
802.068	21698
802.211	21641
802.353	21587
802.496	21424
802.638	21317
802.78	21165
802.923	21283
803.065	21279
803.208	21036
803.35	21226
803.492	21180
803.635	21329
803.777	21157
803.919	21237
804.061	21412
804.204	21188
804.346	21089
804.488	21093
804.63	21047
804.773	21085
804.915	21100
805.057	21127
805.199	21017
805.341	21119
805.483	21188
805.626	21154
805.768	21028
805.91	21104
806.052	21074
806.194	20948
806.336	21237
806.478	21116
806.62	20998
806.762	21131
806.904	21249
807.046	21412
807.188	21386
807.33	21351
807.472	21496
807.614	21313
807.756	21473
807.898	21233
808.04	21138
808.182	21173
808.324	21279
808.465	21249
808.607	21435
808.749	21603
808.891	21629
809.033	21671
809.174	21622
809.316	21526
809.458	21492
809.6	21466
809.741	21629
809.883	21637
810.025	21644
810.166	21610
810.308	21572
810.45	21553
810.591	21591
810.733	21291
810.875	21310
811.016	21230
811.158	21138
811.299	21336
811.441	21329
811.582	21393
811.724	21283
811.865	21169
812.007	21119
812.148	21329
812.29	21272
812.431	21424
812.573	21492
812.714	21618
812.855	21876
812.997	21873
813.138	21934
813.279	21987
813.421	21816
813.562	21614
813.703	21534
813.845	21336
813.986	21211
814.127	20971
814.268	20960
814.41	20842
814.551	20686
814.692	20887
814.833	20735
814.974	20724
815.115	20826
815.256	20575
815.397	20587
815.539	20682
815.68	20400
815.821	20522
815.962	20465
816.103	20507
816.244	20351
816.385	20305
816.526	20221
816.666	20275
816.807	19940
816.948	20073
817.089	20134
817.23	20043
817.371	19955
817.512	20024
817.653	19951
817.793	19932
817.934	19989
818.075	19906
818.216	20005
818.356	20016
818.497	19864
818.638	19616
818.778	19647
818.919	19704
819.06	19670
819.2	19822
819.341	19776
819.481	19818
819.622	19913
819.762	20168
819.903	20145
820.043	19982
820.184	19906
820.324	19993
820.465	19932
820.605	19986
820.746	19860
820.886	19708
821.026	19875
821.167	19830
821.307	20062
821.447	19963
821.588	19719
821.728	19563
821.868	19506
822.008	19377
822.149	19316
822.289	19327
822.429	19168
822.569	19088
822.709	19023
822.849	18905
822.99	18894
823.13	18863
823.27	18867
823.41	18623
823.55	18631
823.69	18681
823.83	18787
823.97	18513
824.11	18445
824.25	18285
824.389	18422
824.529	18467
824.669	18486
824.809	18414
824.949	18506
825.089	18513
825.228	18559
825.368	18304
825.508	18205
825.648	18178
825.787	18201
825.927	18258
826.067	18186
826.206	18266
826.346	18281
826.485	18129
826.625	18201
826.765	18289
826.904	18224
827.044	17931
827.183	17988
827.323	17863
827.462	17916
827.601	17904
827.741	17916
827.88	17935
828.02	17832
828.159	17809
828.298	17802
828.437	17946
828.577	17904
828.716	18026
828.855	17882
828.994	17661
829.134	17760
829.273	17741
829.412	17623
829.551	17573
829.69	17680
829.829	17684
829.968	17741
830.107	17722
830.246	17684
830.385	17600
830.524	17478
830.663	17387
830.802	17436
830.941	17455
831.08	17292
831.219	17364
831.357	17341
831.496	17543
831.635	17277
831.774	17159
831.913	17246
832.051	17102
832.19	16911
832.329	17124
832.467	17010
832.606	16980
832.744	16908
832.883	16987
833.022	16980
833.16	17079
833.299	16968
833.437	17056
833.576	17079
833.714	17090
833.852	17075
833.991	17048
834.129	17048
834.267	17041
834.406	17083
834.544	17147
834.682	17113
834.821	17079
834.959	17261
835.097	16987
835.235	17094
835.373	17048
835.511	17033
835.65	16991
835.788	17022
835.926	16930
836.064	16675
836.202	16801
836.34	17018
836.478	16999
836.615	16938
836.753	17067
836.891	16949
837.029	16904
837.167	16953
837.305	16889
837.443	16892
837.58	16748
837.718	16919
837.856	16938
837.993	16713
838.131	16896
838.269	16717
838.406	16790
838.544	16660
838.681	16500
838.819	16421
838.956	16329
839.094	16348
839.231	16398
839.369	16447
839.506	16725
839.643	16736
839.781	16303
839.918	16405
840.055	16325
840.193	16367
840.33	16257
840.467	16421
840.604	16386
840.742	16649
840.879	16238
841.016	16306
841.153	16238
841.29	16485
841.427	16386
841.564	16440
841.701	16440
841.838	16360
841.975	16234
842.112	16356
842.249	16109
842.385	16124
842.522	16322
842.659	16268
842.796	16204
842.933	16188
843.069	16025
843.206	16025
843.343	16200
843.479	16112
843.616	16219
843.752	15915
843.889	15922
844.025	16109
844.162	15975
844.298	16017
844.435	15941
844.571	15869
844.708	15991
844.844	16124
844.98	16086
845.117	16055
845.253	15861
845.389	15804
845.525	15907
845.661	15880
845.798	15694
845.934	15949
846.07	15880
846.206	15850
846.342	15911
846.478	15724
846.614	15545
846.75	15500
846.886	15466
847.022	15557
847.158	15545
847.294	15447
847.429	15595
847.565	15466
847.701	15766
847.837	15268
847.972	15230
848.108	15389
848.244	15325
848.379	15161
848.515	15188
848.65	15142
848.786	15104
848.921	15108
849.057	15192
849.192	15214
849.328	15211
849.463	15138
849.598	15051
849.734	15047
849.869	14948
850.004	14842
850.14	14952
850.275	14902
850.41	14826
850.545	14902
850.68	14815
850.815	14937
850.95	14883
851.085	14975
851.22	14925
851.355	14864
851.49	14788
851.625	14769
851.76	14796
851.895	14731
852.03	14800
852.165	14807
852.299	14845
852.434	14906
852.569	14914
852.703	14849
852.838	14986
852.973	15066
853.107	15058
853.242	14826
853.376	14773
853.511	14598
853.645	14746
853.78	14933
853.914	14670
854.048	14636
854.183	14655
854.317	14705
854.451	14952
854.585	14731
854.72	14663
854.854	14830
854.988	14625
855.122	14663
855.256	14587
855.39	14667
855.524	14838
855.658	14762
855.792	14743
855.926	14914
856.06	14834
856.194	14887
856.327	14663
856.461	14689
856.595	14667
856.729	14739
856.862	14868
856.996	14705
857.13	14762
857.263	14929
857.397	14792
857.53	14712
857.664	14781
857.797	14788
857.931	14853
858.064	14853
858.197	14724
858.331	14727
858.464	14606
858.597	14484
858.731	14731
858.864	14667
858.997	14629
859.13	14724
859.263	14762
859.396	14724
859.529	14670
859.662	14674
859.795	14625
859.928	14689
860.061	14876
860.194	14834
860.327	14735
860.46	14648
860.592	14773
860.725	14815
860.858	14826
860.99	14788
861.123	14598
861.256	14610
861.388	14682
861.521	15382
861.653	14590
861.786	14480
861.918	14693
862.05	14701
862.183	14587
862.315	14769
862.447	14746
862.58	14712
862.712	14522
862.844	14461
862.976	14514
863.108	14469
863.24	14910
863.372	14358
863.504	14473
863.636	14400
863.768	14560
863.9	14465
864.032	14495
864.164	14434
864.296	14545
864.428	14651
864.559	14632
864.691	14575
864.823	14465
864.954	14545
865.086	14583
865.217	14450
865.349	14396
865.48	14480
865.612	14587
865.743	14610
865.875	14423
866.006	14450
866.137	14465
866.269	14423
866.4	14377
866.531	14438
866.662	14442
866.793	14484
866.924	14400
867.055	14438
867.186	14393
867.317	14438
867.448	14469
867.579	14336
867.71	14446
867.841	14446
867.972	14518
868.103	14408
868.233	14343
868.364	14541
868.495	14530
868.625	14670
868.756	14701
868.886	14636
869.017	14670
869.147	14804
869.278	14785
869.408	14750
869.539	14781
869.669	14823
869.799	14716
869.929	14746
870.06	14773
870.19	15047
870.32	14979
870.45	15199
870.58	15157
870.71	15256
870.84	15173
870.97	15184
871.1	15039
871.23	15268
871.36	15313
871.489	15207
871.619	15252
871.749	15386
871.879	15378
872.008	15302
872.138	15329
872.267	15359
872.397	15154
872.526	15131
872.656	15104
872.785	15230
872.915	15336
873.044	15458
873.173	15313
873.303	15348
873.432	15431
873.561	15504
873.69	15344
873.819	15340
873.948	15389
874.077	15374
874.206	15344
874.335	15408
874.464	15530
874.593	15743
874.722	15580
874.851	15606
874.979	15679
875.108	15800
875.237	15553
875.365	15534
875.494	15648
875.623	15743
875.751	15694
875.88	15694
876.008	15797
876.136	15899
876.265	16078
876.393	16150
876.521	16226
876.65	16147
876.778	16109
876.906	16078
877.034	16109
877.162	16063
877.29	16101
877.418	16101
877.546	16120
877.674	16093
877.802	16097
877.93	16124
878.058	16036
878.185	15941
878.313	16040
878.441	15979
878.568	15895
878.696	16063
878.824	16215
878.951	16124
879.079	16223
879.206	16531
879.333	16242
879.461	16185
879.588	16249
879.715	16379
879.842	16413
879.97	16169
880.097	15979
880.224	15987
880.351	15964
880.478	15987
880.605	15941
880.732	15941
880.859	16147
880.986	15926
881.112	15865
881.239	15949
881.366	15717
881.493	15679
881.619	15587
881.746	15682
881.872	15561
881.999	15504
882.125	15507
882.252	15595
882.378	15667
882.505	15736
882.631	15549
882.757	15386
882.883	15485
883.01	15496
883.136	15336
883.262	15329
883.388	15245
883.514	15420
883.64	15405
883.766	15389
883.892	15249
884.018	15260
884.143	15481
884.269	15500
884.395	15233
884.52	15188
884.646	15085
884.772	15013
884.897	15001
885.023	15176
885.148	15230
885.274	15294
885.399	15184
885.524	14998
885.65	15104
885.775	15097
885.9	15093
886.025	15268
886.15	15230
886.275	15074
886.4	15081
886.525	15024
886.65	15036
886.775	15055
886.9	15188
887.025	15268
887.149	15085
887.274	14823
887.399	14826
887.523	14906
887.648	14785
887.773	14906
887.897	15062
888.021	15032
888.146	14906
888.27	14960
888.395	15043
888.519	15005
888.643	14948
888.767	15039
888.891	14891
889.015	14735
889.139	14739
889.263	14731
889.387	14902
889.511	14952
889.635	14918
889.759	14636
889.883	14727
890.006	14853
890.13	14971
890.254	14743
890.377	14746
890.501	14537
890.624	14594
890.748	14659
890.871	14602
890.995	14343
891.118	14427
891.241	14450
891.364	14556
891.488	14507
891.611	14514
891.734	14457
891.857	14492
891.98	14457
892.103	14522
892.226	14514
892.349	14446
892.471	14290
892.594	14484
892.717	14575
892.839	14377
892.962	14552
893.085	14503
893.207	14514
893.33	14351
893.452	14473
893.575	14571
893.697	14415
893.819	14590
893.941	14678
894.064	14583
894.186	14457
894.308	14480
894.43	14575
894.552	14617
894.674	14594
894.796	14419
894.918	14454
895.04	14514
895.161	14613
895.283	14507
895.405	14511
895.526	14461
895.648	14571
895.769	14625
895.891	14613
896.012	14689
896.134	14686
896.255	14617
896.376	14617
896.498	14663
896.619	14716
896.74	14594
896.861	14731
896.982	14941
897.103	15127
897.224	14948
897.345	14838
897.466	14788
897.587	14895
897.708	15104
897.828	14967
897.949	14765
898.07	14731
898.19	14925
898.311	15017
898.431	14868
898.552	14971
898.672	15058
898.792	15097
898.913	14963
899.033	14811
899.153	14887
899.273	14663
899.393	14830
899.513	14785
899.633	14781
899.753	14902
899.873	14891
899.993	14876
900.113	14887
900.232	14811
900.352	14849
900.472	14746
900.591	14625
900.711	14659
900.83	14629
900.95	14792
901.069	14826
901.189	14552
901.308	14313
901.427	14313
901.546	14343
901.665	14393
901.784	14393
901.904	14252
902.023	14142
902.141	13925
902.26	13871
902.379	13955
902.498	13856
902.617	13852
902.735	13967
902.854	13780
902.973	13852
903.091	13674
903.21	13636
903.328	13651
903.446	13552
903.565	13487
903.683	13594
903.801	13396
903.919	13464
904.038	13480
904.156	13339
904.274	13343
904.392	13289
904.51	13206
904.627	13289
904.745	13327
904.863	13373
904.981	13217
905.098	12901
905.216	13004
905.334	12954
905.451	12970
905.569	12913
905.686	12958
905.803	12924
905.921	12810
906.038	12981
906.155	12783
906.272	12642
906.389	12654
906.506	12521
906.623	12582
906.74	12585
906.857	12486
906.974	12452
907.091	12623
907.208	12684
907.324	12555
907.441	12460
907.557	12304
907.674	12330
907.79	12201
907.907	12262
908.023	12391
908.139	12327
908.256	12277
908.372	12171
908.488	12140
908.604	12133
908.72	11969
908.836	12114
908.952	12072
909.068	12034
909.184	12114
909.3	12136
909.415	12095
909.531	12068
909.647	11878
909.762	11851
909.878	11718
909.993	11904
910.108	11798
910.224	11741
910.339	11847
910.454	11775
910.57	11756
910.685	11615
910.8	11859
910.915	11874
911.03	11703
911.145	11497
911.259	11444
911.374	11543
911.489	11467
911.604	11395
911.718	11315
911.833	11265
911.947	11201
912.062	11071
912.176	11311
912.291	11277
912.405	11284
912.519	11433
912.633	11509
912.748	11277
912.862	11185
912.976	11064
913.09	11121
913.204	11151
913.318	11117
913.431	11250
913.545	11223
913.659	11326
913.772	11136
913.886	11033
914	11083
914.113	11136
914.226	11090
914.34	11117
914.453	10953
914.566	11094
914.68	10972
914.793	10987
914.906	10733
915.019	10698
915.132	10714
915.245	10805
915.358	10793
915.47	10733
915.583	10812
915.696	10752
915.809	10911
915.921	10908
916.034	10683
916.146	10740
916.259	10714
916.371	10786
916.483	10862
916.595	10698
916.708	10744
916.82	10752
916.932	10664
917.044	10702
917.156	10622
917.268	10588
917.38	10550
917.491	10603
917.603	10554
917.715	10615
917.826	10691
917.938	10527
918.049	10459
918.161	10584
918.272	10660
918.384	10687
918.495	10634
918.606	10451
918.717	10424
918.828	10455
918.939	10443
919.05	10424
919.161	10432
919.272	10192
919.383	10310
919.494	10508
919.604	10748
919.715	10584
919.826	10394
919.936	10455
920.047	10497
920.157	10443
920.267	10687
920.378	10504
920.488	10493
920.598	10580
920.708	10812
920.818	10615
920.928	10683
921.038	10816
921.148	10858
921.258	10531
921.368	10421
921.477	10299
921.587	10234
921.697	10147
921.806	10303
921.916	10200
922.025	9994
922.134	9975
922.244	9975
922.353	10059
922.462	9953
922.571	9850
922.68	9770
922.789	9663
922.898	9675
923.007	9614
923.116	9724
923.224	9663
923.333	9679
923.442	9660
923.55	9542
923.659	9618
923.767	9713
923.876	9591
923.984	9633
924.092	9519
924.201	9599
924.309	9595
924.417	9660
924.525	9500
924.633	9545
924.741	10299
924.849	9329
924.956	9538
925.064	9253
925.172	9310
925.279	9268
925.387	9439
925.494	9363
925.602	9458
925.709	9439
925.816	9226
925.924	9378
926.031	9389
926.138	9332
926.245	9393
926.352	9287
926.459	9439
926.566	9458
926.673	9291
926.779	9218
926.886	9211
926.993	9119
927.099	8990
927.206	8960
927.312	9024
927.419	9093
927.525	9005
927.631	9062
927.737	8921
927.843	9009
927.95	8830
928.056	8921
928.162	8933
928.267	9093
928.373	9572
928.479	9058
928.585	8830
928.69	8910
928.796	8918
928.901	8853
929.007	8682
929.112	8864
929.218	8792
929.323	8735
929.428	8746
929.533	8887
929.638	8697
929.743	8739
929.848	8815
929.953	8785
930.058	8678
930.163	8518
930.267	8522
930.372	8636
930.477	8473
930.581	8727
930.685	8655
930.79	8442
930.894	8457
930.998	8465
931.103	8579
931.207	8248
931.311	8225
931.415	8134
931.519	7951
931.623	8062
