Data from test_V78500241_3531.txt Node
Date: Fri Mar 25 14:58:18 CST 2022
User: usil
Spectrometer: V785-0024
Trigger mode: 0
Integration Time (sec): 4.000000E-1
Scans to average: 1
Nonlinearity correction enabled: false
Boxcar width: 0
Storing dark spectrum: false
XAxis mode: Wavelengths
Number of Pixels in Spectrum: 1024
>>>>>Begin Spectral Data<<<<<
801.071	21903
801.214	21781
801.356	21599
801.499	21507
801.641	21332
801.783	21169
801.926	21336
802.068	21302
802.211	21165
802.353	21055
802.496	20826
802.638	20731
802.78	20746
802.923	20648
803.065	20564
803.208	20602
803.35	20629
803.492	20762
803.635	20834
803.777	20537
803.919	20663
804.061	20979
804.204	20678
804.346	20488
804.488	20469
804.63	20640
804.773	20385
804.915	20465
805.057	20606
805.199	20442
805.341	20590
805.483	20571
805.626	20552
805.768	20434
805.91	20583
806.052	20587
806.194	20465
806.336	20686
806.478	20507
806.62	20457
806.762	20549
806.904	20693
807.046	20918
807.188	20773
807.33	20765
807.472	20887
807.614	20781
807.756	20571
807.898	20575
808.04	20465
808.182	20526
808.324	20476
808.465	20503
808.607	20785
808.749	20842
808.891	20944
809.033	21058
809.174	20883
809.316	20796
809.458	20876
809.6	20800
809.741	20800
809.883	20891
810.025	20986
810.166	21024
810.308	20921
810.45	20941
810.591	20887
810.733	20781
810.875	20693
811.016	20568
811.158	20423
811.299	20640
811.441	20800
811.582	20815
811.724	20495
811.865	20625
812.007	20571
812.148	20689
812.29	20609
812.431	20804
812.573	20895
812.714	21127
812.855	21157
812.997	21222
813.138	21317
813.279	21150
813.421	21108
813.562	21032
813.703	20842
813.845	20720
813.986	20514
814.127	20225
814.268	20309
814.41	20259
814.551	20111
814.692	20191
814.833	20043
814.974	20111
815.115	20100
815.256	19967
815.397	19849
815.539	20126
815.68	19860
815.821	19833
815.962	19940
816.103	19940
816.244	19742
816.385	19525
816.526	19635
816.666	19426
816.807	19324
816.948	19316
817.089	19362
817.23	19316
817.371	19156
817.512	19301
817.653	19236
817.793	19228
817.934	19247
818.075	19270
818.216	19171
818.356	19266
818.497	19084
818.638	18962
818.778	18973
818.919	18954
819.06	19000
819.2	19053
819.341	19141
819.481	19088
819.622	19270
819.762	19567
819.903	19369
820.043	19320
820.184	19362
820.324	19320
820.465	19396
820.605	19358
820.746	19225
820.886	19114
821.026	19084
821.167	19270
821.307	19251
821.447	19263
821.588	19061
821.728	18871
821.868	18871
822.008	18730
822.149	18745
822.289	18711
822.429	18342
822.569	18281
822.709	18353
822.849	18182
822.99	18098
823.13	18026
823.27	18091
823.41	18091
823.55	17931
823.69	17946
823.83	18022
823.97	17916
824.11	17764
824.25	17703
824.389	17786
824.529	17779
824.669	17729
824.809	17863
824.949	17828
825.089	17703
825.228	17805
825.368	17535
825.508	17554
825.648	17691
825.787	17726
825.927	17520
826.067	17547
826.206	17524
826.346	17547
826.485	17539
826.625	17547
826.765	17638
826.904	17687
827.044	17368
827.183	17227
827.323	17200
827.462	17391
827.601	17315
827.741	17159
827.88	17280
828.02	16980
828.159	17185
828.298	17136
828.437	17258
828.577	17223
828.716	17334
828.855	17299
828.994	16881
829.134	16904
829.273	16911
829.412	16896
829.551	16991
829.69	16949
829.829	17048
829.968	17056
830.107	17086
830.246	16995
830.385	16873
830.524	16927
830.663	16953
830.802	16725
830.941	16565
831.08	16630
831.219	16710
831.357	16664
831.496	16854
831.635	16653
831.774	16531
831.913	16504
832.051	16409
832.19	16402
832.329	16462
832.467	16341
832.606	16268
832.744	16398
832.883	16306
833.022	16268
833.16	16413
833.299	16318
833.437	16299
833.576	16417
833.714	16341
833.852	16459
833.991	16386
834.129	16478
834.267	16466
834.406	16421
834.544	16455
834.682	16398
834.821	16436
834.959	16618
835.097	16246
835.235	16500
835.373	16352
835.511	16344
835.65	16238
835.788	16356
835.926	16211
836.064	16059
836.202	16162
836.34	16348
836.478	16382
836.615	16329
836.753	16230
836.891	16443
837.029	16314
837.167	16234
837.305	16242
837.443	16207
837.58	16074
837.718	16147
837.856	16173
837.993	16067
838.131	16158
838.269	16078
838.406	16131
838.544	16048
838.681	15895
838.819	15907
838.956	15686
839.094	15743
839.231	15800
839.369	15857
839.506	16268
839.643	15953
839.781	15724
839.918	15690
840.055	15739
840.193	15766
840.33	15633
840.467	15660
840.604	15755
840.742	15884
840.879	15622
841.016	15561
841.153	15538
841.29	15793
841.427	15739
841.564	15717
841.701	15774
841.838	15671
841.975	15549
842.112	15690
842.249	15561
842.385	15511
842.522	15720
842.659	15507
842.796	15542
842.933	15511
843.069	15545
843.206	15424
843.343	15698
843.479	15439
843.616	15557
843.752	15272
843.889	15351
844.025	15344
844.162	15287
844.298	15321
844.435	15405
844.571	15325
844.708	15294
844.844	15363
844.98	15485
845.117	15405
845.253	15214
845.389	15233
845.525	15180
845.661	15123
845.798	15039
845.934	15184
846.07	14998
846.206	15154
846.342	15321
846.478	15097
846.614	14963
846.75	14845
846.886	14861
847.022	15017
847.158	14929
847.294	14838
847.429	14853
847.565	14826
847.701	15024
847.837	14644
847.972	14533
848.108	14670
848.244	14716
848.379	14583
848.515	14514
848.65	14446
848.786	14511
848.921	14469
849.057	14571
849.192	14526
849.328	14556
849.463	14461
849.598	14484
849.734	14347
849.869	14328
850.004	14282
850.14	14362
850.275	14286
850.41	14157
850.545	14218
850.68	14294
850.815	14244
850.95	14275
851.085	14328
851.22	14309
851.355	14263
851.49	14149
851.625	14214
851.76	14301
851.895	14172
852.03	14062
852.165	14286
852.299	14282
852.434	14206
852.569	14252
852.703	14263
852.838	14324
852.973	14343
853.107	14366
853.242	14244
853.376	14218
853.511	13936
853.645	14065
853.78	14191
853.914	14054
854.048	14046
854.183	14107
854.317	14168
854.451	14221
854.585	14134
854.72	14100
854.854	14134
854.988	14039
855.122	14218
855.256	13974
855.39	14077
855.524	14187
855.658	14119
855.792	14134
855.926	14161
856.06	14233
856.194	14161
856.327	14100
856.461	14161
856.595	14153
856.729	14065
856.862	14252
856.996	14145
857.13	14157
857.263	14298
857.397	14366
857.53	14107
857.664	14168
857.797	14244
857.931	14176
858.064	14103
858.197	14221
858.331	14084
858.464	14069
858.597	14027
858.731	14092
858.864	14123
858.997	14073
859.13	14081
859.263	14134
859.396	14244
859.529	14065
859.662	14054
859.795	14115
859.928	14123
860.061	14275
860.194	14374
860.327	14088
860.46	14123
860.592	14221
860.725	14263
860.858	14317
860.99	14050
861.123	14031
861.256	14130
861.388	14088
861.521	15009
861.653	14024
861.786	13947
861.918	13974
862.05	13928
862.183	14081
862.315	14161
862.447	14259
862.58	14020
862.712	13928
862.844	13841
862.976	13906
863.108	13887
863.24	14244
863.372	13791
863.504	13890
863.636	13871
863.768	13875
863.9	13902
864.032	13841
864.164	13921
864.296	13959
864.428	13955
864.559	13932
864.691	14043
864.823	13959
864.954	13982
865.086	13936
865.217	13833
865.349	13830
865.48	13898
865.612	13963
865.743	14111
865.875	13887
866.006	13818
866.137	13841
866.269	13837
866.4	13921
866.531	13967
866.662	13894
866.793	13875
866.924	13849
867.055	13879
867.186	13894
867.317	13841
867.448	13727
867.579	13849
867.71	13769
867.841	13807
867.972	13856
868.103	13875
868.233	13906
868.364	13883
868.495	13898
868.625	14119
868.756	14221
868.886	14020
869.017	14058
869.147	14199
869.278	14294
869.408	14191
869.539	14111
869.669	14301
869.799	14119
869.929	14252
870.06	14320
870.19	14507
870.32	14484
870.45	14465
870.58	14484
870.71	14659
870.84	14682
870.97	14514
871.1	14454
871.23	14667
871.36	14724
871.489	14610
871.619	14743
871.749	14735
871.879	14880
872.008	14876
872.138	14754
872.267	14663
872.397	14560
872.526	14484
872.656	14522
872.785	14606
872.915	14765
873.044	14914
873.173	14777
873.303	14880
873.432	14830
873.561	14891
873.69	14785
873.819	14792
873.948	14906
874.077	14785
874.206	14834
874.335	14804
874.464	14952
874.593	15112
874.722	14975
874.851	15169
874.979	15214
875.108	15180
875.237	15051
875.365	15081
875.494	14979
875.623	15268
875.751	15070
875.88	15154
876.008	15275
876.136	15386
876.265	15644
876.393	15629
876.521	15667
876.65	15561
876.778	15473
876.906	15469
877.034	15500
877.162	15481
877.29	15488
877.418	15587
877.546	15545
877.674	15515
877.802	15564
877.93	15557
878.058	15485
878.185	15382
878.313	15557
878.441	15416
878.568	15401
878.696	15511
878.824	15622
878.951	15652
879.079	15705
879.206	15842
879.333	15606
879.461	15492
879.588	15568
879.715	15743
879.842	15918
879.97	15675
880.097	15344
880.224	15374
880.351	15401
880.478	15435
880.605	15336
880.732	15321
880.859	15599
880.986	15507
881.112	15382
881.239	15233
881.366	15199
881.493	15089
881.619	15112
881.746	15070
881.872	15013
881.999	15093
882.125	14994
882.252	15093
882.378	15089
882.505	15165
882.631	14975
882.757	14910
882.883	14861
883.01	14876
883.136	14727
883.262	14697
883.388	14716
883.514	14849
883.64	14895
883.766	14819
883.892	14590
884.018	14655
884.143	14868
884.269	14883
884.395	14552
884.52	14495
884.646	14583
884.772	14526
884.897	14396
885.023	14480
885.148	14663
885.274	14712
885.399	14689
885.524	14613
885.65	14625
885.775	14594
885.9	14533
886.025	14788
886.15	14731
886.275	14488
886.4	14488
886.525	14495
886.65	14473
886.775	14461
886.9	14648
887.025	14750
887.149	14476
887.274	14396
887.399	14317
887.523	14412
887.648	14351
887.773	14305
887.897	14457
888.021	14343
888.146	14351
888.27	14560
888.395	14587
888.519	14469
888.643	14446
888.767	14473
888.891	14309
889.015	14259
889.139	14256
889.263	14202
889.387	14313
889.511	14374
889.635	14393
889.759	14244
889.883	14218
890.006	14275
890.13	14370
890.254	14195
890.377	14248
890.501	14096
890.624	14031
890.748	14119
890.871	14001
890.995	13951
891.118	13807
891.241	14008
891.364	14024
891.488	14069
891.611	13974
891.734	13940
891.857	13993
891.98	13951
892.103	13982
892.226	14031
892.349	14016
892.471	13795
892.594	13967
892.717	13925
892.839	13936
892.962	13906
893.085	13944
893.207	13917
893.33	13875
893.452	13875
893.575	13970
893.697	13928
893.819	14111
893.941	14176
894.064	14138
894.186	13974
894.308	13906
894.43	14084
894.552	14187
894.674	14058
894.796	14020
894.918	14008
895.04	14005
895.161	14134
895.283	14069
895.405	14012
895.526	14161
895.648	14043
895.769	14054
895.891	14119
896.012	14157
896.134	14195
896.255	14161
896.376	14069
896.498	14180
896.619	14145
896.74	14115
896.861	14248
896.982	14404
897.103	14674
897.224	14393
897.345	14396
897.466	14396
897.587	14320
897.708	14400
897.828	14431
897.949	14393
898.07	14294
898.19	14313
898.311	14549
898.431	14381
898.552	14454
898.672	14670
898.792	14617
898.913	14594
899.033	14438
899.153	14298
899.273	14115
899.393	14336
899.513	14381
899.633	14324
899.753	14351
899.873	14206
899.993	14351
900.113	14366
900.232	14457
900.352	14282
900.472	14259
900.591	14161
900.711	14191
900.83	14088
900.95	14343
901.069	14309
901.189	14164
901.308	13947
901.427	13814
901.546	13871
901.665	13902
901.784	13898
901.904	13811
902.023	13715
902.141	13476
902.26	13438
902.379	13556
902.498	13384
902.617	13369
902.735	13544
902.854	13449
902.973	13430
903.091	13160
903.21	13122
903.328	13129
903.446	13042
903.565	13069
903.683	13008
903.801	12993
903.919	13057
904.038	12920
904.156	12810
904.274	12981
904.392	12787
904.51	12734
904.627	12871
904.745	12802
904.863	12871
904.981	12585
905.098	12456
905.216	12540
905.334	12612
905.451	12631
905.569	12559
905.686	12627
905.803	12540
905.921	12350
906.038	12456
906.155	12243
906.272	12338
906.389	12235
906.506	12083
906.623	12110
906.74	12125
906.857	11961
906.974	12019
907.091	12190
907.208	12239
907.324	12167
907.441	12045
907.557	11923
907.674	11916
907.79	11851
907.907	11870
908.023	11939
908.139	11901
908.256	11878
908.372	11752
908.488	11824
908.604	11627
908.72	11581
908.836	11703
908.952	11589
909.068	11680
909.184	11809
909.3	11646
909.415	11714
909.531	11699
909.647	11406
909.762	11372
909.878	11417
909.993	11478
910.108	11364
910.224	11440
910.339	11402
910.454	11364
910.57	11220
910.685	11212
910.8	11490
910.915	11353
911.03	11315
911.145	11147
911.259	11109
911.374	11113
911.489	11086
911.604	11048
911.718	10824
911.833	10850
911.947	10801
912.062	10755
912.176	10839
912.291	10828
912.405	10877
912.519	10984
912.633	11098
912.748	10927
912.862	10854
912.976	10740
913.09	10630
913.204	10748
913.318	10793
913.431	10786
913.545	10793
913.659	10957
913.772	10714
913.886	10721
914	10615
914.113	10687
914.226	10801
914.34	10778
914.453	10558
914.566	10736
914.68	10599
914.793	10565
914.906	10386
915.019	10280
915.132	10310
915.245	10402
915.358	10417
915.47	10443
915.583	10341
915.696	10493
915.809	10497
915.921	10542
916.034	10360
916.146	10360
916.259	10310
916.371	10470
916.483	10421
916.595	10318
916.708	10257
916.82	10329
916.932	10280
917.044	10341
917.156	10329
917.268	10166
917.38	10234
917.491	10249
917.603	10276
917.715	10322
917.826	10333
917.938	10169
918.049	10116
918.161	10265
918.272	10333
918.384	10440
918.495	10246
918.606	10036
918.717	10067
918.828	10124
918.939	10131
919.05	10074
919.161	10055
919.272	9903
919.383	9994
919.494	10139
919.604	10295
919.715	10139
919.826	10120
919.936	10086
920.047	10105
920.157	10215
920.267	10333
920.378	10162
920.488	10158
920.598	10322
920.708	10474
920.818	10409
920.928	10303
921.038	10489
921.148	10413
921.258	10227
921.368	10051
921.477	9991
921.587	9903
921.697	9876
921.806	9994
921.916	9873
922.025	9717
922.134	9690
922.244	9648
922.353	9720
922.462	9576
922.571	9507
922.68	9378
922.789	9374
922.898	9329
923.007	9313
923.116	9405
923.224	9416
923.333	9405
923.442	9291
923.55	9222
923.659	9237
923.767	9363
923.876	9218
923.984	9260
924.092	9161
924.201	9211
924.309	9226
924.417	9218
924.525	9203
924.633	9135
924.741	9895
924.849	9055
924.956	9146
925.064	8998
925.172	8921
925.279	8998
925.387	9093
925.494	9039
925.602	9146
925.709	9047
925.816	8952
925.924	9077
926.031	9127
926.138	9055
926.245	9097
926.352	8956
926.459	9131
926.566	9207
926.673	8994
926.779	8902
926.886	8929
926.993	8800
927.099	8762
927.206	8678
927.312	8708
927.419	8815
927.525	8819
927.631	8754
927.737	8629
927.843	8659
927.95	8492
928.056	8670
928.162	8636
928.267	8727
928.373	9351
928.479	8648
928.585	8537
928.69	8655
928.796	8632
928.901	8598
929.007	8484
929.112	8621
929.218	8552
929.323	8469
929.428	8412
929.533	8556
929.638	8461
929.743	8450
929.848	8606
929.953	8480
930.058	8377
930.163	8195
930.267	8237
930.372	8393
930.477	8279
930.581	8442
930.685	8385
930.79	8111
930.894	8225
930.998	8161
931.103	8336
931.207	7986
931.311	7928
931.415	7913
931.519	7715
931.623	7666
