Data from test_V78500241_744.txt Node
Date: Fri Mar 25 14:38:53 CST 2022
User: usil
Spectrometer: V785-0024
Trigger mode: 0
Integration Time (sec): 4.000000E-1
Scans to average: 1
Nonlinearity correction enabled: false
Boxcar width: 0
Storing dark spectrum: false
XAxis mode: Wavelengths
Number of Pixels in Spectrum: 1024
>>>>>Begin Spectral Data<<<<<
801.071	27374
801.214	27123
801.356	26830
801.499	26842
801.641	26583
801.783	26663
801.926	26625
802.068	26549
802.211	26442
802.353	26206
802.496	26168
802.638	26119
802.78	26024
802.923	26096
803.065	25986
803.208	25966
803.35	25894
803.492	26240
803.635	26237
803.777	26240
803.919	26134
804.061	26590
804.204	26248
804.346	26332
804.488	26244
804.63	26214
804.773	26149
804.915	26370
805.057	26720
805.199	26358
805.341	26590
805.483	26853
805.626	26819
805.768	26762
805.91	26956
806.052	27260
806.194	27074
806.336	27553
806.478	27614
806.62	27717
806.762	28059
806.904	28390
807.046	28938
807.188	29318
807.33	29695
807.472	30388
807.614	30992
807.756	32138
807.898	33081
808.04	34721
808.182	36745
808.324	39599
808.465	42760
808.607	46139
808.749	49297
808.891	51142
809.033	51138
809.174	49571
809.316	46516
809.458	42768
809.6	39294
809.741	36395
809.883	34143
810.025	32712
810.166	31529
810.308	30635
810.45	29855
810.591	29391
810.733	28744
810.875	28268
811.016	28044
811.158	27827
811.299	27785
811.441	27709
811.582	27743
811.724	27279
811.865	27074
812.007	27104
812.148	26975
812.29	27028
812.431	26925
812.573	27249
812.714	27017
812.855	27161
812.997	27146
813.138	27348
813.279	27207
813.421	27032
813.562	26944
813.703	26746
813.845	26571
813.986	26221
814.127	25986
814.268	25864
814.41	25875
814.551	25852
814.692	25753
814.833	25468
814.974	25533
815.115	25582
815.256	25567
815.397	25377
815.539	25491
815.68	25316
815.821	25350
815.962	25190
816.103	25228
816.244	24951
816.385	24992
816.526	24954
816.666	24749
816.807	24532
816.948	24677
817.089	24669
817.23	24574
817.371	24437
817.512	24540
817.653	24452
817.793	24388
817.934	24467
818.075	24639
818.216	24509
818.356	24429
818.497	24251
818.638	24110
818.778	24133
818.919	24098
819.06	24350
819.2	24357
819.341	24353
819.481	24346
819.622	24357
819.762	24601
819.903	24513
820.043	24494
820.184	24365
820.324	24235
820.465	24300
820.605	24350
820.746	24213
820.886	24182
821.026	24140
821.167	24129
821.307	24220
821.447	24117
821.588	24182
821.728	23901
821.868	23638
822.008	23653
822.149	23570
822.289	23429
822.429	23307
822.569	23296
822.709	23143
822.849	22995
822.99	23037
823.13	22942
823.27	22908
823.41	22710
823.55	22733
823.69	22664
823.83	22835
823.97	22649
824.11	22405
824.25	22409
824.389	22497
824.529	22611
824.669	22459
824.809	22698
824.949	22588
825.089	22592
825.228	22565
825.368	22451
825.508	22322
825.648	22402
825.787	22287
825.927	22455
826.067	22287
826.206	22329
826.346	22341
826.485	22341
826.625	22234
826.765	22409
826.904	22211
827.044	22036
827.183	22044
827.323	22002
827.462	22051
827.601	21964
827.741	21964
827.88	21979
828.02	21850
828.159	22006
828.298	21842
828.437	21975
828.577	21888
828.716	22032
828.855	21873
828.994	21736
829.134	21724
829.273	21724
829.412	21603
829.551	21511
829.69	21606
829.829	21591
829.968	21755
830.107	21652
830.246	21583
830.385	21530
830.524	21496
830.663	21412
830.802	21370
830.941	21214
831.08	21173
831.219	21412
831.357	21397
831.496	21367
831.635	21287
831.774	21150
831.913	21150
832.051	21146
832.19	21081
832.329	21226
832.467	21043
832.606	21066
832.744	21184
832.883	21192
833.022	21230
833.16	21325
833.299	21526
833.437	21564
833.576	21808
833.714	21732
833.852	22078
833.991	22059
834.129	22265
834.267	22344
834.406	22348
834.544	22226
834.682	22017
834.821	21998
834.959	21956
835.097	21545
835.235	21519
835.373	21420
835.511	21245
835.65	20998
835.788	21112
835.926	20861
836.064	20823
836.202	20838
836.34	20929
836.478	20895
836.615	20834
836.753	20788
836.891	20887
837.029	20941
837.167	20655
837.305	20560
837.443	20598
837.58	20598
837.718	20693
837.856	20632
837.993	20541
838.131	20613
838.269	20377
838.406	20454
838.544	20347
838.681	20244
838.819	20168
838.956	20065
839.094	20058
839.231	20084
839.369	20210
839.506	20552
839.643	20294
839.781	20088
839.918	19993
840.055	20065
840.193	19845
840.33	19845
840.467	19955
840.604	19932
840.742	20282
840.879	19875
841.016	19887
841.153	19757
841.29	20103
841.427	20024
841.564	19967
841.701	20016
841.838	19955
841.975	19811
842.112	19822
842.249	19772
842.385	19753
842.522	19944
842.659	19818
842.796	19780
842.933	19780
843.069	19887
843.206	19860
843.343	19955
843.479	20024
843.616	19970
843.752	19704
843.889	19833
844.025	20046
844.162	19978
844.298	20282
844.435	20305
844.571	20480
844.708	20857
844.844	21180
844.98	21743
845.117	22390
845.253	23200
845.389	25282
845.525	29151
845.661	35326
845.798	42555
845.934	47783
846.07	49841
846.206	48159
846.342	43156
846.478	36041
846.614	29912
846.75	25837
846.886	23459
847.022	22177
847.158	21249
847.294	20575
847.429	20202
847.565	20001
847.701	20050
847.837	19460
847.972	19285
848.108	19365
848.244	19213
848.379	19080
848.515	18977
848.65	18871
848.786	18909
848.921	18776
849.057	18951
849.192	18859
849.328	18814
849.463	18700
849.598	18768
849.734	18593
849.869	18642
850.004	18437
850.14	18498
850.275	18555
850.41	18311
850.545	18410
850.68	18372
850.815	18429
850.95	18384
851.085	18646
851.22	18506
851.355	18407
851.49	18361
851.625	18369
851.76	18464
851.895	18251
852.03	18403
852.165	18376
852.299	18467
852.434	18570
852.569	18532
852.703	18475
852.838	18513
852.973	18642
853.107	18703
853.242	18616
853.376	18506
853.511	18384
853.645	18429
853.78	18681
853.914	18661
854.048	18566
854.183	18665
854.317	18726
854.451	18977
854.585	18665
854.72	18635
854.854	18829
854.988	18521
855.122	18563
855.256	18285
855.39	18437
855.524	18490
855.658	18479
855.792	18437
855.926	18350
856.06	18479
856.194	18502
856.327	18334
856.461	18178
856.595	18266
856.729	18353
856.862	18372
856.996	18403
857.13	18216
857.263	18342
857.397	18350
857.53	18216
857.664	18330
857.797	18285
857.931	18292
858.064	18228
858.197	18220
858.331	18247
858.464	18209
858.597	18098
858.731	18030
858.864	18171
858.997	18174
859.13	18197
859.263	18140
859.396	18213
859.529	18030
859.662	18079
859.795	18133
859.928	18140
860.061	18243
860.194	18186
860.327	18167
860.46	18087
860.592	18106
860.725	18270
860.858	18125
860.99	18053
861.123	17927
861.256	18003
861.388	18026
861.521	18734
861.653	17961
861.786	17904
861.918	17988
862.05	17897
862.183	18076
862.315	18034
862.447	18155
862.58	18038
862.712	17790
862.844	17714
862.976	17805
863.108	17790
863.24	18281
863.372	17745
863.504	17748
863.636	17729
863.768	17756
863.9	17767
864.032	17649
864.164	17630
864.296	17733
864.428	17832
864.559	17840
864.691	17836
864.823	17794
864.954	17821
865.086	17718
865.217	17767
865.349	17535
865.48	17558
865.612	17634
865.743	17847
865.875	17699
866.006	17649
866.137	17718
866.269	17585
866.4	17566
866.531	17608
866.662	17532
866.793	17551
866.924	17562
867.055	17653
867.186	17604
867.317	17532
867.448	17520
867.579	17646
867.71	17577
867.841	17577
867.972	17649
868.103	17684
868.233	17661
868.364	17672
868.495	17687
868.625	17908
868.756	17931
868.886	17767
869.017	17920
869.147	18022
869.278	18015
869.408	17984
869.539	17958
869.669	17973
869.799	18057
869.929	18178
870.06	17977
870.19	18292
870.32	18239
870.45	18270
870.58	18330
870.71	18483
870.84	18506
870.97	18357
871.1	18372
871.23	18536
871.36	18669
871.489	18521
871.619	18582
871.749	18650
871.879	18703
872.008	18776
872.138	18681
872.267	18661
872.397	18661
872.526	18410
872.656	18445
872.785	18513
872.915	18859
873.044	18878
873.173	18749
873.303	18848
873.432	18966
873.561	18996
873.69	18897
873.819	18966
873.948	19152
874.077	19076
874.206	18867
874.335	19042
874.464	19168
874.593	19339
874.722	19293
874.851	19563
874.979	19396
875.108	19460
875.237	19460
875.365	19476
875.494	19639
875.623	19719
875.751	19582
875.88	19772
876.008	19822
876.136	19928
876.265	20248
876.393	20377
876.521	20495
876.65	20400
876.778	20476
876.906	20408
877.034	20613
877.162	20659
877.29	20617
877.418	20872
877.546	20895
877.674	21127
877.802	21108
877.93	21332
878.058	21447
878.185	21656
878.313	21983
878.441	22204
878.568	22573
878.696	23345
878.824	24053
878.951	25247
879.079	26944
879.206	29048
879.333	31384
879.461	33043
879.588	34253
879.715	34158
879.842	33252
879.97	31297
880.097	29018
880.224	27214
880.351	26134
880.478	25160
880.605	24479
880.732	24174
880.859	24190
880.986	23764
881.112	23657
881.239	23482
881.366	23288
881.493	23071
881.619	23147
881.746	23197
881.872	23269
881.999	23318
882.125	23258
882.252	23444
882.378	23467
882.505	23615
882.631	23417
882.757	23452
882.883	23467
883.01	23280
883.136	23258
883.262	22995
883.388	23003
883.514	23132
883.64	23258
883.766	23220
883.892	22980
884.018	22976
884.143	23189
884.269	23296
884.395	22965
884.52	23071
884.646	22995
884.772	23071
884.897	22919
885.023	22919
885.148	23006
885.274	23174
885.399	22930
885.524	22782
885.65	22577
885.775	22588
885.9	22299
886.025	22348
886.15	22185
886.275	21968
886.4	21599
886.525	21507
886.65	21351
886.775	21192
886.9	21332
887.025	21481
887.149	20933
887.274	20807
887.399	20480
887.523	20530
887.648	20530
887.773	20396
887.897	20408
888.021	20229
888.146	20054
888.27	20248
888.395	20043
888.519	20065
888.643	20050
888.767	19833
888.891	19746
889.015	19647
889.139	19723
889.263	19525
889.387	19632
889.511	19655
889.635	19563
889.759	19373
889.883	19373
890.006	19403
890.13	19350
890.254	19091
890.377	19164
890.501	18951
890.624	19031
890.748	18977
890.871	18764
890.995	18722
891.118	18585
891.241	18669
891.364	18749
891.488	18669
891.611	18547
891.734	18547
891.857	18551
891.98	18521
892.103	18483
892.226	18323
892.349	18441
892.471	18182
892.594	18418
892.717	18243
892.839	18167
892.962	18323
893.085	18350
893.207	18182
893.33	18072
893.452	18064
893.575	18140
893.697	18136
893.819	18087
893.941	18270
894.064	18030
894.186	17878
894.308	17882
894.43	18007
894.552	18076
894.674	18045
894.796	17786
894.918	17901
895.04	17790
895.161	17904
895.283	17870
895.405	17748
895.526	17794
895.648	17786
895.769	17802
895.891	17786
896.012	17843
896.134	17779
896.255	17668
896.376	17665
896.498	17672
896.619	17916
896.74	17680
896.861	17752
896.982	18003
897.103	18076
897.224	17977
897.345	17969
897.466	17790
897.587	17958
897.708	17923
897.828	17904
897.949	17767
898.07	17707
898.19	17832
898.311	17931
898.431	17802
898.552	17958
898.672	17920
898.792	17980
898.913	17920
899.033	17783
899.153	17718
899.273	17642
899.393	17672
899.513	17737
899.633	17737
899.753	17729
899.873	17611
899.993	17771
900.113	17627
900.232	17680
900.352	17596
900.472	17516
900.591	17398
900.711	17467
900.83	17372
900.95	17649
901.069	17543
901.189	17254
901.308	17086
901.427	17022
901.546	17041
901.665	17124
901.784	17064
901.904	16835
902.023	16831
902.141	16641
902.26	16588
902.379	16554
902.498	16398
902.617	16447
902.735	16508
902.854	16344
902.973	16341
903.091	16124
903.21	16131
903.328	16135
903.446	16090
903.565	15968
903.683	15926
903.801	15911
903.919	15884
904.038	15857
904.156	15732
904.274	15789
904.392	15603
904.51	15686
904.627	15675
904.745	15736
904.863	15705
904.981	15488
905.098	15336
905.216	15340
905.334	15374
905.451	15325
905.569	15252
905.686	15287
905.803	15298
905.921	15093
906.038	15146
906.155	15150
906.272	14956
906.389	15032
906.506	14834
906.623	14933
906.74	14826
906.857	14823
906.974	14590
907.091	14891
907.208	14864
907.324	14819
907.441	14762
907.557	14541
907.674	14552
907.79	14412
907.907	14575
908.023	14530
908.139	14507
908.256	14461
908.372	14400
908.488	14434
908.604	14298
908.72	14206
908.836	14259
908.952	14142
909.068	14214
909.184	14336
909.3	14294
909.415	14328
909.531	14244
909.647	14046
909.762	13993
909.878	13978
909.993	13963
910.108	13974
910.224	14016
910.339	14016
910.454	13868
910.57	13845
910.685	13799
910.8	14020
910.915	13830
911.03	13841
911.145	13651
911.259	13628
911.374	13620
911.489	13567
911.604	13510
911.718	13335
911.833	13320
911.947	13324
912.062	13240
912.176	13358
912.291	13388
912.405	13362
912.519	13590
912.633	13556
912.748	13529
912.862	13369
912.976	13263
913.09	13164
913.204	13198
913.318	13255
913.431	13274
913.545	13285
913.659	13384
913.772	13240
913.886	13107
914	13099
914.113	13228
914.226	13091
914.34	13175
914.453	13031
914.566	13099
914.68	13088
914.793	13012
914.906	12829
915.019	12700
915.132	12578
915.245	12711
915.358	12810
915.47	12848
915.583	12871
915.696	12783
915.809	12886
915.921	12973
916.034	12738
916.146	12669
916.259	12768
916.371	12867
916.483	12863
916.595	12719
916.708	12779
916.82	12779
916.932	12681
917.044	12776
917.156	12745
917.268	12604
917.38	12578
917.491	12604
917.603	12517
917.715	12658
917.826	12707
917.938	12547
918.049	12486
918.161	12528
918.272	12566
918.384	12627
918.495	12566
918.606	12475
918.717	12224
918.828	12350
918.939	12323
919.05	12186
919.161	12323
919.272	12106
919.383	12129
919.494	12346
919.604	12479
919.715	12380
919.826	12273
919.936	12224
920.047	12369
920.157	12330
920.267	12486
920.378	12300
920.488	12220
920.598	12426
920.708	12578
920.818	12395
920.928	12460
921.038	12464
921.148	12528
921.258	12296
921.368	12148
921.477	12030
921.587	12060
921.697	11939
921.806	12003
921.916	11893
922.025	11809
922.134	11653
922.244	11668
922.353	11748
922.462	11600
922.571	11554
922.68	11391
922.789	11326
922.898	11414
923.007	11258
923.116	11448
923.224	11345
923.333	11261
923.442	11280
923.55	11239
923.659	11208
923.767	11326
923.876	11159
923.984	11318
924.092	11094
924.201	11223
924.309	11193
924.417	11185
924.525	11121
924.633	11155
924.741	11897
924.849	10927
924.956	11140
925.064	10957
925.172	10938
925.279	10797
925.387	10957
925.494	10885
925.602	10987
925.709	11064
925.816	10835
925.924	10927
926.031	11056
926.138	10889
926.245	10896
926.352	10816
926.459	10900
926.566	11003
926.673	10843
926.779	10698
926.886	10752
926.993	10573
927.099	10596
927.206	10478
927.312	10527
927.419	10603
927.525	10558
927.631	10607
927.737	10447
927.843	10413
927.95	10348
928.056	10474
928.162	10481
928.267	10508
928.373	11083
928.479	10523
928.585	10219
928.69	10352
928.796	10405
928.901	10344
929.007	10261
929.112	10284
929.218	10329
929.323	10246
929.428	10227
929.533	10280
929.638	10147
929.743	10143
929.848	10272
929.953	10150
930.058	10093
930.163	9949
930.267	9911
930.372	10074
930.477	9865
930.581	10207
930.685	10036
930.79	9831
930.894	9922
930.998	9797
931.103	10032
931.207	9644
931.311	9549
931.415	9530
931.519	9207
931.623	9268
