Data from test_V78500241_2361.txt Node
Date: Fri Mar 25 14:50:09 CST 2022
User: usil
Spectrometer: V785-0024
Trigger mode: 0
Integration Time (sec): 4.000000E-1
Scans to average: 1
Nonlinearity correction enabled: false
Boxcar width: 0
Storing dark spectrum: false
XAxis mode: Wavelengths
Number of Pixels in Spectrum: 1024
>>>>>Begin Spectral Data<<<<<
801.071	22200
801.214	22112
801.356	21888
801.499	21861
801.641	21633
801.783	21530
801.926	21561
802.068	21504
802.211	21405
802.353	21332
802.496	21123
802.638	21047
802.78	20956
802.923	20758
803.065	20735
803.208	20887
803.35	20906
803.492	21074
803.635	21043
803.777	20834
803.919	20994
804.061	21207
804.204	20914
804.346	20861
804.488	20739
804.63	20769
804.773	20697
804.915	20781
805.057	20842
805.199	20800
805.341	20838
805.483	20910
805.626	20906
805.768	20682
805.91	20773
806.052	20792
806.194	20792
806.336	20815
806.478	20804
806.62	20705
806.762	20887
806.904	20948
807.046	21279
807.188	21051
807.33	21150
807.472	21211
807.614	20956
807.756	21043
807.898	20921
808.04	20937
808.182	20792
808.324	20960
808.465	20929
808.607	21096
808.749	21207
808.891	21340
809.033	21344
809.174	21203
809.316	21252
809.458	21161
809.6	21108
809.741	21131
809.883	21207
810.025	21252
810.166	21325
810.308	21237
810.45	21332
810.591	21173
810.733	21112
810.875	20948
811.016	20944
811.158	20834
811.299	20971
811.441	21131
811.582	21112
811.724	20998
811.865	20838
812.007	20842
812.148	20948
812.29	20880
812.431	21123
812.573	21378
812.714	21374
812.855	21351
812.997	21439
813.138	21583
813.279	21622
813.421	21428
813.562	21378
813.703	21154
813.845	21070
813.986	20811
814.127	20568
814.268	20590
814.41	20613
814.551	20522
814.692	20457
814.833	20438
814.974	20492
815.115	20560
815.256	20259
815.397	20278
815.539	20339
815.68	20142
815.821	20202
815.962	20229
816.103	20218
816.244	19902
816.385	19978
816.526	19928
816.666	19753
816.807	19575
816.948	19731
817.089	19696
817.23	19715
817.371	19575
817.512	19559
817.653	19518
817.793	19578
817.934	19609
818.075	19575
818.216	19639
818.356	19544
818.497	19426
818.638	19304
818.778	19274
818.919	19297
819.06	19365
819.2	19457
819.341	19556
819.481	19468
819.622	19601
819.762	19830
819.903	19605
820.043	19647
820.184	19483
820.324	19518
820.465	19727
820.605	19658
820.746	19556
820.886	19518
821.026	19609
821.167	19556
821.307	19544
821.447	19468
821.588	19460
821.728	19339
821.868	19141
822.008	18943
822.149	19015
822.289	18985
822.429	18673
822.569	18684
822.709	18551
822.849	18475
822.99	18540
823.13	18445
823.27	18407
823.41	18239
823.55	18357
823.69	18220
823.83	18365
823.97	18266
824.11	18083
824.25	18064
824.389	18125
824.529	18110
824.669	18121
824.809	18159
824.949	18098
825.089	18083
825.228	18011
825.368	17832
825.508	17916
825.648	17878
825.787	17893
825.927	17992
826.067	17809
826.206	17904
826.346	17779
826.485	17794
826.625	17851
826.765	17954
826.904	17851
827.044	17573
827.183	17623
827.323	17570
827.462	17581
827.601	17554
827.741	17490
827.88	17535
828.02	17379
828.159	17490
828.298	17570
828.437	17570
828.577	17478
828.716	17608
828.855	17440
828.994	17360
829.134	17341
829.273	17246
829.412	17132
829.551	17223
829.69	17189
829.829	17227
829.968	17364
830.107	17379
830.246	17292
830.385	17159
830.524	17181
830.663	17174
830.802	16965
830.941	16953
831.08	16908
831.219	16995
831.357	16968
831.496	17147
831.635	16797
831.774	16736
831.913	16843
832.051	16717
832.19	16721
832.329	16698
832.467	16577
832.606	16459
832.744	16573
832.883	16630
833.022	16546
833.16	16611
833.299	16641
833.437	16599
833.576	16577
833.714	16626
833.852	16641
833.991	16641
834.129	16634
834.267	16580
834.406	16558
834.544	16687
834.682	16672
834.821	16584
834.959	16729
835.097	16565
835.235	16702
835.373	16687
835.511	16603
835.65	16493
835.788	16455
835.926	16352
836.064	16341
836.202	16333
836.34	16558
836.478	16573
836.615	16443
836.753	16599
836.891	16607
837.029	16508
837.167	16382
837.305	16462
837.443	16417
837.58	16375
837.718	16455
837.856	16261
837.993	16337
838.131	16382
838.269	16329
838.406	16348
838.544	16356
838.681	16112
838.819	16071
838.956	15857
839.094	15873
839.231	15945
839.369	16097
839.506	16337
839.643	16173
839.781	15949
839.918	15797
840.055	15903
840.193	15941
840.33	15960
840.467	15922
840.604	15956
840.742	16128
840.879	15857
841.016	15793
841.153	15861
841.29	16082
841.427	15975
841.564	15926
841.701	15888
841.838	15964
841.975	15781
842.112	15743
842.249	15671
842.385	15675
842.522	15915
842.659	15732
842.796	15629
842.933	15701
843.069	15644
843.206	15625
843.343	15785
843.479	15759
843.616	15682
843.752	15447
843.889	15496
844.025	15564
844.162	15500
844.298	15496
844.435	15511
844.571	15401
844.708	15485
844.844	15713
844.98	15625
845.117	15568
845.253	15401
845.389	15401
845.525	15488
845.661	15355
845.798	15188
845.934	15344
846.07	15169
846.206	15294
846.342	15408
846.478	15275
846.614	15020
846.75	15024
846.886	15028
847.022	15116
847.158	15074
847.294	15180
847.429	15028
847.565	15062
847.701	15230
847.837	14693
847.972	14716
848.108	14804
848.244	14891
848.379	14689
848.515	14735
848.65	14606
848.786	14762
848.921	14625
849.057	14750
849.192	14773
849.328	14708
849.463	14556
849.598	14560
849.734	14484
849.869	14533
850.004	14442
850.14	14427
850.275	14488
850.41	14317
850.545	14450
850.68	14488
850.815	14339
850.95	14358
851.085	14556
851.22	14457
851.355	14362
851.49	14343
851.625	14404
851.76	14358
851.895	14233
852.03	14271
852.165	14355
852.299	14446
852.434	14476
852.569	14286
852.703	14469
852.838	14454
852.973	14518
853.107	14549
853.242	14377
853.376	14366
853.511	14161
853.645	14218
853.78	14412
853.914	14221
854.048	14271
854.183	14244
854.317	14324
854.451	14362
854.585	14278
854.72	14301
854.854	14465
854.988	14206
855.122	14301
855.256	14138
855.39	14370
855.524	14419
855.658	14351
855.792	14271
855.926	14206
856.06	14351
856.194	14412
856.327	14339
856.461	14187
856.595	14301
856.729	14294
856.862	14412
856.996	14286
857.13	14343
857.263	14408
857.397	14389
857.53	14199
857.664	14313
857.797	14473
857.931	14404
858.064	14191
858.197	14396
858.331	14263
858.464	14229
858.597	14130
858.731	14256
858.864	14305
858.997	14362
859.13	14332
859.263	14237
859.396	14362
859.529	14168
859.662	14278
859.795	14240
859.928	14423
860.061	14434
860.194	14560
860.327	14313
860.46	14267
860.592	14389
860.725	14450
860.858	14415
860.99	14286
861.123	14195
861.256	14210
861.388	14263
861.521	14800
861.653	14142
861.786	14088
861.918	14187
862.05	14145
862.183	14221
862.315	14317
862.447	14275
862.58	14252
862.712	14020
862.844	13989
862.976	14130
863.108	14031
863.24	14423
863.372	13944
863.504	14084
863.636	14062
863.768	14119
863.9	14103
864.032	14043
864.164	14020
864.296	14092
864.428	14138
864.559	14130
864.691	14145
864.823	14103
864.954	14084
865.086	14123
865.217	14069
865.349	14016
865.48	14065
865.612	14039
865.743	14092
865.875	14088
866.006	13989
866.137	14073
866.269	13959
866.4	13993
866.531	14054
866.662	14134
866.793	14043
866.924	14008
867.055	13974
867.186	13986
867.317	14008
867.448	13921
867.579	13947
867.71	13925
867.841	14035
867.972	14043
868.103	13936
868.233	14153
868.364	14073
868.495	14134
868.625	14320
868.756	14400
868.886	14172
869.017	14267
869.147	14396
869.278	14339
869.408	14343
869.539	14301
869.669	14343
869.799	14244
869.929	14492
870.06	14347
870.19	14594
870.32	14625
870.45	14617
870.58	14716
870.71	14750
870.84	14796
870.97	14727
871.1	14663
871.23	14864
871.36	14918
871.489	14762
871.619	14857
871.749	14941
871.879	14872
872.008	14963
872.138	14956
872.267	14883
872.397	14777
872.526	14701
872.656	14697
872.785	14674
872.915	14982
873.044	14998
873.173	14891
873.303	14944
873.432	15020
873.561	14975
873.69	14937
873.819	14838
873.948	15024
874.077	14899
874.206	14891
874.335	14830
874.464	15058
874.593	15279
874.722	15104
874.851	15256
874.979	15226
875.108	15260
875.237	15233
875.365	15146
875.494	15260
875.623	15370
875.751	15199
875.88	15252
876.008	15420
876.136	15515
876.265	15667
876.393	15827
876.521	15797
876.65	15739
876.778	15656
876.906	15698
877.034	15545
877.162	15656
877.29	15458
877.418	15709
877.546	15705
877.674	15637
877.802	15675
877.93	15701
878.058	15644
878.185	15538
878.313	15641
878.441	15671
878.568	15511
878.696	15648
878.824	15690
878.951	15774
879.079	15884
879.206	16025
879.333	15823
879.461	15686
879.588	15827
879.715	15717
879.842	15934
879.97	15732
880.097	15466
880.224	15412
880.351	15625
880.478	15439
880.605	15431
880.732	15534
880.859	15728
880.986	15492
881.112	15553
881.239	15481
881.366	15203
881.493	15264
881.619	15142
881.746	15188
881.872	15176
881.999	15119
882.125	15199
882.252	15355
882.378	15180
882.505	15329
882.631	15097
882.757	14941
882.883	14975
883.01	15001
883.136	14834
883.262	14883
883.388	14796
883.514	14952
883.64	15017
883.766	14906
883.892	14781
884.018	14880
884.143	14956
884.269	15028
884.395	14754
884.52	14648
884.646	14746
884.772	14610
884.897	14511
885.023	14765
885.148	14769
885.274	14792
885.399	14800
885.524	14686
885.65	14708
885.775	14765
885.9	14727
886.025	14826
886.15	14746
886.275	14682
886.4	14579
886.525	14659
886.65	14724
886.775	14655
886.9	14811
887.025	14979
887.149	14625
887.274	14526
887.399	14590
887.523	14465
887.648	14404
887.773	14480
887.897	14594
888.021	14499
888.146	14400
888.27	14682
888.395	14549
888.519	14545
888.643	14648
888.767	14632
888.891	14484
889.015	14374
889.139	14446
889.263	14347
889.387	14568
889.511	14564
889.635	14518
889.759	14286
889.883	14339
890.006	14476
890.13	14499
890.254	14450
890.377	14412
890.501	14187
890.624	14172
890.748	14244
890.871	14123
890.995	14039
891.118	13970
891.241	14107
891.364	14172
891.488	14267
891.611	14065
891.734	14024
891.857	14164
891.98	14119
892.103	14202
892.226	14161
892.349	14046
892.471	13894
892.594	14100
892.717	14039
892.839	14020
892.962	14046
893.085	14229
893.207	14050
893.33	13986
893.452	14035
893.575	14161
893.697	14058
893.819	14225
893.941	14206
894.064	14233
894.186	14062
894.308	14100
894.43	14218
894.552	14248
894.674	14233
894.796	13978
894.918	14123
895.04	14126
895.161	14362
895.283	14271
895.405	14111
895.526	14225
895.648	14180
895.769	14256
895.891	14294
896.012	14366
896.134	14263
896.255	14202
896.376	14259
896.498	14278
896.619	14336
896.74	14301
896.861	14294
896.982	14655
897.103	14705
897.224	14537
897.345	14480
897.466	14514
897.587	14503
897.708	14625
897.828	14621
897.949	14522
898.07	14427
898.19	14492
898.311	14754
898.431	14571
898.552	14583
898.672	14682
898.792	14697
898.913	14632
899.033	14568
899.153	14457
899.273	14362
899.393	14438
899.513	14461
899.633	14431
899.753	14583
899.873	14355
899.993	14556
900.113	14404
900.232	14503
900.352	14476
900.472	14404
900.591	14210
900.711	14427
900.83	14377
900.95	14434
901.069	14492
901.189	14233
901.308	14008
901.427	13989
901.546	13917
901.665	14016
901.784	14081
901.904	13970
902.023	13803
902.141	13651
902.26	13613
902.379	13616
902.498	13605
902.617	13521
902.735	13594
902.854	13544
902.973	13476
903.091	13282
903.21	13293
903.328	13312
903.446	13228
903.565	13217
903.683	13137
903.801	12993
903.919	13156
904.038	13152
904.156	12894
904.274	12966
904.392	12867
904.51	13015
904.627	12890
904.745	13057
904.863	12996
904.981	12772
905.098	12669
905.216	12646
905.334	12711
905.451	12608
905.569	12498
905.686	12703
905.803	12662
905.921	12467
906.038	12525
906.155	12437
906.272	12410
906.389	12429
906.506	12292
906.623	12133
906.74	12064
906.857	12121
906.974	12247
907.091	12346
907.208	12334
907.324	12311
907.441	12125
907.557	12030
907.674	11969
907.79	11901
907.907	11904
908.023	12022
908.139	11950
908.256	11958
908.372	11889
908.488	11942
908.604	11790
908.72	11771
908.836	11775
908.952	11646
909.068	11783
909.184	11847
909.3	11707
909.415	11882
909.531	11802
909.647	11482
909.762	11524
909.878	11467
909.993	11497
910.108	11524
910.224	11524
910.339	11509
910.454	11452
910.57	11379
910.685	11330
910.8	11649
910.915	11516
911.03	11379
911.145	11193
911.259	11254
911.374	11220
911.489	11197
911.604	11109
911.718	11041
911.833	11041
911.947	10866
912.062	10763
912.176	10972
912.291	10953
912.405	11029
912.519	11166
912.633	11155
912.748	11010
912.862	10976
912.976	10881
913.09	10752
913.204	10805
913.318	10873
913.431	10892
913.545	10991
913.659	11003
913.772	10835
913.886	10729
914	10710
914.113	10828
914.226	10919
914.34	10824
914.453	10626
914.566	10873
914.68	10653
914.793	10752
914.906	10550
915.019	10417
915.132	10440
915.245	10417
915.358	10531
915.47	10417
915.583	10428
915.696	10527
915.809	10637
915.921	10607
916.034	10455
916.146	10375
916.259	10405
916.371	10481
916.483	10421
916.595	10428
916.708	10405
916.82	10329
916.932	10367
917.044	10344
917.156	10363
917.268	10280
917.38	10306
917.491	10360
917.603	10257
917.715	10363
917.826	10436
917.938	10246
918.049	10306
918.161	10272
918.272	10455
918.384	10474
918.495	10318
918.606	10196
918.717	10143
918.828	10257
918.939	10207
919.05	10147
919.161	10185
919.272	9941
919.383	10128
919.494	10253
919.604	10390
919.715	10109
919.826	10116
919.936	10139
920.047	10276
920.157	10181
920.267	10470
920.378	10177
920.488	10249
920.598	10348
920.708	10519
920.818	10382
920.928	10318
921.038	10584
921.148	10542
921.258	10211
921.368	10150
921.477	10086
921.587	10055
921.697	9888
921.806	10131
921.916	9895
922.025	9823
922.134	9869
922.244	9755
922.353	9831
922.462	9587
922.571	9606
922.68	9519
922.789	9431
922.898	9412
923.007	9435
923.116	9458
923.224	9481
923.333	9412
923.442	9363
923.55	9393
923.659	9359
923.767	9447
923.876	9298
923.984	9424
924.092	9199
924.201	9348
924.309	9298
924.417	9348
924.525	9275
924.633	9272
924.741	10032
924.849	9085
924.956	9256
925.064	9100
925.172	8941
925.279	9070
925.387	9104
925.494	9131
925.602	9218
925.709	9180
925.816	9020
925.924	9104
926.031	9203
926.138	9081
926.245	9207
926.352	9070
926.459	9173
926.566	9188
926.673	9005
926.779	9024
926.886	8967
926.993	8883
927.099	8887
927.206	8773
927.312	8796
927.419	8910
927.525	8845
927.631	8899
927.737	8762
927.843	8743
927.95	8708
928.056	8644
928.162	8739
928.267	8720
928.373	9454
928.479	8864
928.585	8621
928.69	8716
928.796	8792
928.901	8575
929.007	8545
929.112	8655
929.218	8678
929.323	8564
929.428	8522
929.533	8659
929.638	8549
929.743	8454
929.848	8587
929.953	8511
930.058	8408
930.163	8271
930.267	8343
930.372	8533
930.477	8313
930.581	8503
930.685	8355
930.79	8263
930.894	8343
930.998	8244
931.103	8415
931.207	8077
931.311	8012
931.415	7951
931.519	7784
931.623	7811
