Data from test_V78500241_1421.txt Node
Date: Fri Mar 25 14:43:36 CST 2022
User: usil
Spectrometer: V785-0024
Trigger mode: 0
Integration Time (sec): 4.000000E-1
Scans to average: 1
Nonlinearity correction enabled: false
Boxcar width: 0
Storing dark spectrum: false
XAxis mode: Wavelengths
Number of Pixels in Spectrum: 1024
>>>>>Begin Spectral Data<<<<<
801.071	22592
801.214	22459
801.356	22143
801.499	22006
801.641	21713
801.783	21766
801.926	21827
802.068	21637
802.211	21629
802.353	21515
802.496	21329
802.638	21283
802.78	21294
802.923	21188
803.065	21085
803.208	21058
803.35	21241
803.492	21192
803.635	21241
803.777	21036
803.919	21264
804.061	21469
804.204	21294
804.346	21058
804.488	20963
804.63	20994
804.773	20967
804.915	21043
805.057	21176
805.199	20998
805.341	21180
805.483	21214
805.626	21062
805.768	21070
805.91	21028
806.052	21154
806.194	20979
806.336	21310
806.478	21154
806.62	20986
806.762	21112
806.904	21249
807.046	21473
807.188	21458
807.33	21447
807.472	21587
807.614	21367
807.756	21447
807.898	21218
808.04	21291
808.182	21218
808.324	21260
808.465	21439
808.607	21625
808.749	21694
808.891	21797
809.033	21876
809.174	21785
809.316	21641
809.458	21648
809.6	21603
809.741	21736
809.883	21606
810.025	21759
810.166	21759
810.308	21663
810.45	21583
810.591	21625
810.733	21386
810.875	21127
811.016	21165
811.158	21226
811.299	21412
811.441	21351
811.582	21564
811.724	21272
811.865	21260
812.007	21169
812.148	21279
812.29	21176
812.431	21450
812.573	21576
812.714	21679
812.855	21690
812.997	21789
813.138	21911
813.279	21778
813.421	21736
813.562	21610
813.703	21526
813.845	21363
813.986	21192
814.127	21009
814.268	20800
814.41	20887
814.551	20853
814.692	20842
814.833	20727
814.974	20788
815.115	20765
815.256	20678
815.397	20609
815.539	20667
815.68	20507
815.821	20511
815.962	20514
816.103	20530
816.244	20469
816.385	20309
816.526	20256
816.666	20157
816.807	19993
816.948	20069
817.089	20081
817.23	20027
817.371	19997
817.512	19932
817.653	19967
817.793	19818
817.934	20046
818.075	20012
818.216	19993
818.356	19883
818.497	19769
818.638	19655
818.778	19506
818.919	19719
819.06	19666
819.2	19746
819.341	19723
819.481	19883
819.622	19986
819.762	20164
819.903	20054
820.043	20043
820.184	19959
820.324	19982
820.465	19951
820.605	19997
820.746	19826
820.886	19833
821.026	19822
821.167	19947
821.307	19928
821.447	19814
821.588	19841
821.728	19578
821.868	19540
822.008	19392
822.149	19320
822.289	19339
822.429	19126
822.569	19065
822.709	19160
822.849	18905
822.99	18837
823.13	18779
823.27	18840
823.41	18658
823.55	18551
823.69	18681
823.83	18677
823.97	18448
824.11	18460
824.25	18330
824.389	18391
824.529	18479
824.669	18422
824.809	18380
824.949	18589
825.089	18429
825.228	18456
825.368	18224
825.508	18133
825.648	18216
825.787	18342
825.927	18205
826.067	18133
826.206	18117
826.346	18277
826.485	18133
826.625	18190
826.765	18213
826.904	18129
827.044	17954
827.183	17939
827.323	17798
827.462	17885
827.601	17863
827.741	17828
827.88	17832
828.02	17817
828.159	17893
828.298	17931
828.437	17889
828.577	17840
828.716	17767
828.855	17897
828.994	17577
829.134	17585
829.273	17478
829.412	17638
829.551	17543
829.69	17524
829.829	17691
829.968	17642
830.107	17608
830.246	17611
830.385	17684
830.524	17532
830.663	17414
830.802	17307
830.941	17239
831.08	17140
831.219	17318
831.357	17254
831.496	17372
831.635	17250
831.774	17189
831.913	17037
832.051	17117
832.19	17006
832.329	17102
832.467	16942
832.606	17010
832.744	16892
832.883	16919
833.022	17048
833.16	16911
833.299	16915
833.437	16991
833.576	17056
833.714	17003
833.852	17003
833.991	17132
834.129	17006
834.267	17083
834.406	16904
834.544	17025
834.682	16961
834.821	16930
834.959	17151
835.097	16972
835.235	17064
835.373	16889
835.511	16987
835.65	16919
835.788	16968
835.926	16656
836.064	16653
836.202	16713
836.34	16889
836.478	16987
836.615	16820
836.753	16736
836.891	16976
837.029	16953
837.167	16923
837.305	16774
837.443	16733
837.58	16683
837.718	16828
837.856	16778
837.993	16767
838.131	16831
838.269	16603
838.406	16641
838.544	16580
838.681	16474
838.819	16405
838.956	16173
839.094	16204
839.231	16238
839.369	16493
839.506	16637
839.643	16459
839.781	16295
839.918	16265
840.055	16318
840.193	16261
840.33	16234
840.467	16299
840.604	16226
840.742	16417
840.879	16067
841.016	16101
841.153	16158
841.29	16421
841.427	16322
841.564	16276
841.701	16272
841.838	16215
841.975	16173
842.112	16135
842.249	16112
842.385	16032
842.522	16257
842.659	16109
842.796	15930
842.933	16044
843.069	16029
843.206	16082
843.343	16090
843.479	16063
843.616	16109
843.752	15816
843.889	15850
844.025	16013
844.162	15854
844.298	15835
844.435	15838
844.571	15781
844.708	15842
844.844	16143
844.98	15975
845.117	15964
845.253	15941
845.389	15865
845.525	15922
845.661	15911
845.798	15831
845.934	15949
846.07	15991
846.206	15979
846.342	16044
846.478	15819
846.614	15663
846.75	15469
846.886	15351
847.022	15644
847.158	15458
847.294	15443
847.429	15469
847.565	15401
847.701	15759
847.837	15233
847.972	15165
848.108	15241
848.244	15268
848.379	15043
848.515	15028
848.65	14986
848.786	15032
848.921	15036
849.057	15157
849.192	15203
849.328	15104
849.463	15085
849.598	15032
849.734	15074
849.869	14838
850.004	14914
850.14	14868
850.275	14838
850.41	14754
850.545	14754
850.68	14705
850.815	14792
850.95	14842
851.085	15009
851.22	14872
851.355	14857
851.49	14743
851.625	14746
851.76	14663
851.895	14663
852.03	14705
852.165	14823
852.299	14777
852.434	14929
852.569	14754
852.703	14769
852.838	14883
852.973	14979
853.107	14994
853.242	14792
853.376	14667
853.511	14579
853.645	14598
853.78	14845
853.914	14659
854.048	14625
854.183	14526
854.317	14621
854.451	14902
854.585	14739
854.72	14556
854.854	14697
854.988	14594
855.122	14598
855.256	14533
855.39	14632
855.524	14720
855.658	14727
855.792	14663
855.926	14655
856.06	14670
856.194	14716
856.327	14644
856.461	14670
856.595	14556
856.729	14716
856.862	14792
856.996	14602
857.13	14765
857.263	14731
857.397	14708
857.53	14644
857.664	14693
857.797	14792
857.931	14823
858.064	14716
858.197	14876
858.331	14526
858.464	14636
858.597	14522
858.731	14552
858.864	14549
858.997	14571
859.13	14705
859.263	14743
859.396	14861
859.529	14606
859.662	14606
859.795	14590
859.928	14670
860.061	14830
860.194	14804
860.327	14640
860.46	14606
860.592	14731
860.725	14853
860.858	14788
860.99	14667
861.123	14610
861.256	14579
861.388	14583
861.521	15412
861.653	14636
861.786	14438
861.918	14518
862.05	14651
862.183	14583
862.315	14629
862.447	14670
862.58	14617
862.712	14427
862.844	14412
862.976	14419
863.108	14503
863.24	14853
863.372	14385
863.504	14442
863.636	14400
863.768	14575
863.9	14415
864.032	14324
864.164	14393
864.296	14427
864.428	14571
864.559	14423
864.691	14499
864.823	14522
864.954	14450
865.086	14423
865.217	14484
865.349	14381
865.48	14457
865.612	14454
865.743	14541
865.875	14431
866.006	14393
866.137	14476
866.269	14465
866.4	14400
866.531	14366
866.662	14298
866.793	14484
866.924	14389
867.055	14377
867.186	14374
867.317	14343
867.448	14393
867.579	14396
867.71	14347
867.841	14282
867.972	14446
868.103	14408
868.233	14484
868.364	14461
868.495	14526
868.625	14598
868.756	14804
868.886	14488
869.017	14613
869.147	14777
869.278	14731
869.408	14697
869.539	14594
869.669	14765
869.799	14701
869.929	14842
870.06	14754
870.19	15066
870.32	15013
870.45	14982
870.58	15051
870.71	15192
870.84	15211
870.97	15066
871.1	15005
871.23	15279
871.36	15241
871.489	15157
871.619	15264
871.749	15199
871.879	15252
872.008	15447
872.138	15207
872.267	15256
872.397	15195
872.526	15074
872.656	15192
872.785	15150
872.915	15332
873.044	15325
873.173	15298
873.303	15283
873.432	15317
873.561	15363
873.69	15336
873.819	15302
873.948	15374
874.077	15374
874.206	15252
874.335	15359
874.464	15477
874.593	15595
874.722	15568
874.851	15724
874.979	15656
875.108	15667
875.237	15564
875.365	15420
875.494	15557
875.623	15671
875.751	15603
875.88	15656
876.008	15770
876.136	15835
876.265	15937
876.393	16234
876.521	16143
876.65	16109
876.778	16044
876.906	16071
877.034	15979
877.162	16036
877.29	15983
877.418	16086
877.546	16055
877.674	16131
877.802	16074
877.93	16067
878.058	15964
878.185	15941
878.313	15899
878.441	16063
878.568	15926
878.696	16032
878.824	16162
878.951	16036
879.079	16291
879.206	16436
879.333	16265
879.461	16299
879.588	16219
879.715	16390
879.842	16348
879.97	16261
880.097	15956
880.224	15941
880.351	15945
880.478	15941
880.605	15838
880.732	15846
880.859	16093
880.986	15895
881.112	15918
881.239	15770
881.366	15656
881.493	15618
881.619	15523
881.746	15576
881.872	15557
881.999	15454
882.125	15542
882.252	15542
882.378	15637
882.505	15633
882.631	15561
882.757	15405
882.883	15431
883.01	15405
883.136	15424
883.262	15310
883.388	15165
883.514	15420
883.64	15405
883.766	15260
883.892	15298
884.018	15154
884.143	15279
884.269	15412
884.395	15119
884.52	15108
884.646	15131
884.772	15001
884.897	14952
885.023	15112
885.148	15127
885.274	15294
885.399	15146
885.524	15028
885.65	15089
885.775	15024
885.9	15036
886.025	15245
886.15	15146
886.275	15028
886.4	14998
886.525	14994
886.65	15028
886.775	14937
886.9	15214
887.025	15283
887.149	15135
887.274	14944
887.399	14815
887.523	14842
887.648	14864
887.773	14769
887.897	14941
888.021	14842
888.146	14815
888.27	14994
888.395	15039
888.519	14960
888.643	15039
888.767	14963
888.891	14826
889.015	14716
889.139	14781
889.263	14644
889.387	14849
889.511	15017
889.635	14807
889.759	14845
889.883	14735
890.006	14762
890.13	14830
890.254	14701
890.377	14689
890.501	14545
890.624	14545
890.748	14602
890.871	14533
890.995	14499
891.118	14385
891.241	14381
891.364	14511
891.488	14564
891.611	14427
891.734	14366
891.857	14556
891.98	14480
892.103	14552
892.226	14480
892.349	14377
892.471	14351
892.594	14309
892.717	14488
892.839	14336
892.962	14457
893.085	14503
893.207	14594
893.33	14377
893.452	14389
893.575	14434
893.697	14427
893.819	14537
893.941	14625
894.064	14480
894.186	14419
894.308	14381
894.43	14488
894.552	14549
894.674	14594
894.796	14404
894.918	14549
895.04	14427
895.161	14575
895.283	14492
895.405	14415
895.526	14450
895.648	14522
895.769	14495
895.891	14575
896.012	14556
896.134	14568
896.255	14640
896.376	14587
896.498	14511
896.619	14629
896.74	14556
896.861	14598
896.982	15043
897.103	15058
897.224	14887
897.345	14815
897.466	14773
897.587	14727
897.708	14842
897.828	14891
897.949	14838
898.07	14792
898.19	14815
898.311	14937
898.431	14769
898.552	14876
898.672	14918
898.792	15089
898.913	15001
899.033	14864
899.153	14826
899.273	14625
899.393	14735
899.513	14777
899.633	14727
899.753	14819
899.873	14674
899.993	14941
900.113	14815
900.232	14750
900.352	14807
900.472	14587
900.591	14579
900.711	14712
900.83	14552
900.95	14746
901.069	14792
901.189	14488
901.308	14442
901.427	14244
901.546	14343
901.665	14286
901.784	14324
901.904	14180
902.023	14050
902.141	13978
902.26	13890
902.379	13898
902.498	13845
902.617	13830
902.735	13879
902.854	13970
902.973	13753
903.091	13628
903.21	13571
903.328	13510
903.446	13480
903.565	13472
903.683	13434
903.801	13312
903.919	13453
904.038	13411
904.156	13301
904.274	13304
904.392	13187
904.51	13187
904.627	13308
904.745	13331
904.863	13343
904.981	13008
905.098	12932
905.216	12973
905.334	12920
905.451	12966
905.569	12924
905.686	12989
905.803	12924
905.921	12745
906.038	12795
906.155	12677
906.272	12635
906.389	12692
906.506	12494
906.623	12528
906.74	12547
906.857	12418
906.974	12407
907.091	12563
907.208	12639
907.324	12528
907.441	12433
907.557	12254
907.674	12285
907.79	12235
907.907	12190
908.023	12273
908.139	12281
908.256	12117
908.372	12133
908.488	12076
908.604	12087
908.72	11904
908.836	11980
908.952	11965
909.068	12038
909.184	12091
909.3	12034
909.415	12064
909.531	12019
909.647	11855
909.762	11847
909.878	11680
909.993	11745
910.108	11691
910.224	11756
910.339	11733
910.454	11661
910.57	11619
910.685	11558
910.8	11779
910.915	11836
911.03	11642
911.145	11520
911.259	11383
911.374	11471
911.489	11440
911.604	11379
911.718	11242
911.833	11231
911.947	11083
912.062	11166
912.176	11235
912.291	11277
912.405	11250
912.519	11368
912.633	11425
912.748	11208
912.862	11250
912.976	11079
913.09	10976
913.204	11060
913.318	11136
913.431	11204
913.545	11204
913.659	11231
913.772	11136
913.886	10927
914	10927
914.113	11117
914.226	11121
914.34	11048
914.453	10816
914.566	11113
914.68	10877
914.793	10999
914.906	10752
915.019	10790
915.132	10656
915.245	10748
915.358	10790
915.47	10710
915.583	10801
915.696	10797
915.809	10816
915.921	10892
916.034	10717
916.146	10721
916.259	10683
916.371	10736
916.483	10767
916.595	10668
916.708	10630
916.82	10694
916.932	10733
917.044	10561
917.156	10645
917.268	10603
917.38	10569
917.491	10622
917.603	10474
917.715	10694
917.826	10664
917.938	10519
918.049	10504
918.161	10546
918.272	10790
918.384	10596
918.495	10611
918.606	10478
918.717	10367
918.828	10424
918.939	10436
919.05	10337
919.161	10379
919.272	10242
919.383	10341
919.494	10500
919.604	10615
919.715	10497
919.826	10398
919.936	10447
920.047	10607
920.157	10436
920.267	10687
920.378	10519
920.488	10474
920.598	10630
920.708	10790
920.818	10641
920.928	10653
921.038	10820
921.148	10740
921.258	10523
921.368	10413
921.477	10360
921.587	10192
921.697	10200
921.806	10394
921.916	10242
922.025	9994
922.134	10074
922.244	9930
922.353	10025
922.462	9899
922.571	9816
922.68	9740
922.789	9709
922.898	9747
923.007	9675
923.116	9740
923.224	9694
923.333	9701
923.442	9603
923.55	9591
923.659	9519
923.767	9595
923.876	9477
923.984	9603
924.092	9500
924.201	9538
924.309	9553
924.417	9576
924.525	9530
924.633	9561
924.741	10436
924.849	9306
924.956	9466
925.064	9355
925.172	9218
925.279	9279
925.387	9389
925.494	9408
925.602	9603
925.709	9454
925.816	9253
925.924	9424
926.031	9462
926.138	9260
926.245	9428
926.352	9199
926.459	9378
926.566	9496
926.673	9226
926.779	9169
926.886	9230
926.993	9097
927.099	9077
927.206	9058
927.312	8998
927.419	9089
927.525	9085
927.631	9024
927.737	8937
927.843	8944
927.95	8853
928.056	8944
928.162	8910
928.267	9020
928.373	9595
928.479	8986
928.585	8686
928.69	8967
928.796	8941
928.901	8834
929.007	8727
929.112	8868
929.218	8792
929.323	8735
929.428	8731
929.533	8944
929.638	8705
929.743	8754
929.848	8826
929.953	8781
930.058	8689
930.163	8514
930.267	8533
930.372	8682
930.477	8488
930.581	8731
930.685	8556
930.79	8488
930.894	8492
930.998	8419
931.103	8583
931.207	8259
931.311	8237
931.415	8199
931.519	7982
931.623	7982
