Data from test_V78500241_2545.txt Node
Date: Fri Mar 25 14:51:26 CST 2022
User: usil
Spectrometer: V785-0024
Trigger mode: 0
Integration Time (sec): 4.000000E-1
Scans to average: 1
Nonlinearity correction enabled: false
Boxcar width: 0
Storing dark spectrum: false
XAxis mode: Wavelengths
Number of Pixels in Spectrum: 1024
>>>>>Begin Spectral Data<<<<<
801.071	21941
801.214	21911
801.356	21835
801.499	21656
801.641	21443
801.783	21439
801.926	21382
802.068	21454
802.211	21340
802.353	21150
802.496	21032
802.638	21005
802.78	20918
802.923	20834
803.065	20720
803.208	20712
803.35	20686
803.492	20910
803.635	20933
803.777	20777
803.919	20895
804.061	21066
804.204	20720
804.346	20705
804.488	20640
804.63	20762
804.773	20560
804.915	20727
805.057	20686
805.199	20663
805.341	20697
805.483	20883
805.626	20667
805.768	20708
805.91	20701
806.052	20743
806.194	20579
806.336	20876
806.478	20621
806.62	20617
806.762	20659
806.904	20830
807.046	21131
807.188	20960
807.33	21070
807.472	21039
807.614	21047
807.756	20967
807.898	20826
808.04	20727
808.182	20735
808.324	20579
808.465	20659
808.607	20910
808.749	20921
808.891	21222
809.033	21332
809.174	21135
809.316	21005
809.458	20944
809.6	21009
809.741	20994
809.883	21047
810.025	21222
810.166	21211
810.308	21184
810.45	21176
810.591	21001
810.733	20937
810.875	20777
811.016	20754
811.158	20724
811.299	20887
811.441	21036
811.582	20956
811.724	20925
811.865	20853
812.007	20823
812.148	20743
812.29	20826
812.431	20986
812.573	21093
812.714	21165
812.855	21245
812.997	21389
813.138	21545
813.279	21382
813.421	21283
813.562	21275
813.703	21043
813.845	20925
813.986	20712
814.127	20480
814.268	20404
814.41	20396
814.551	20305
814.692	20412
814.833	20415
814.974	20252
815.115	20343
815.256	20309
815.397	20404
815.539	20218
815.68	20088
815.821	19944
815.962	20069
816.103	20122
816.244	19894
816.385	19860
816.526	19818
816.666	19635
816.807	19491
816.948	19578
817.089	19635
817.23	19518
817.371	19514
817.512	19491
817.653	19388
817.793	19441
817.934	19426
818.075	19483
818.216	19521
818.356	19491
818.497	19403
818.638	19225
818.778	19221
818.919	19179
819.06	19198
819.2	19373
819.341	19289
819.481	19464
819.622	19548
819.762	19731
819.903	19776
820.043	19594
820.184	19483
820.324	19415
820.465	19578
820.605	19491
820.746	19403
820.886	19282
821.026	19426
821.167	19563
821.307	19510
821.447	19304
821.588	19225
821.728	19232
821.868	19072
822.008	18833
822.149	18848
822.289	18837
822.429	18536
822.569	18563
822.709	18559
822.849	18330
822.99	18308
823.13	18429
823.27	18380
823.41	18197
823.55	18155
823.69	18163
823.83	18182
823.97	18053
824.11	17840
824.25	17958
824.389	17965
824.529	18011
824.669	17954
824.809	18072
824.949	18064
825.089	18072
825.228	17874
825.368	17824
825.508	17798
825.648	17718
825.787	17832
825.927	17783
826.067	17687
826.206	17581
826.346	17786
826.485	17813
826.625	17767
826.765	17779
826.904	17866
827.044	17467
827.183	17448
827.323	17360
827.462	17478
827.601	17421
827.741	17345
827.88	17417
828.02	17345
828.159	17455
828.298	17543
828.437	17440
828.577	17379
828.716	17471
828.855	17356
828.994	17155
829.134	17143
829.273	17227
829.412	17083
829.551	17056
829.69	17227
829.829	17254
829.968	17322
830.107	17250
830.246	17246
830.385	17018
830.524	17140
830.663	16968
830.802	16847
830.941	16721
831.08	16702
831.219	16877
831.357	16881
831.496	16934
831.635	16862
831.774	16656
831.913	16660
832.051	16561
832.19	16577
832.329	16615
832.467	16516
832.606	16417
832.744	16417
832.883	16538
833.022	16493
833.16	16584
833.299	16485
833.437	16485
833.576	16580
833.714	16485
833.852	16630
833.991	16516
834.129	16538
834.267	16577
834.406	16577
834.544	16478
834.682	16527
834.821	16500
834.959	16637
835.097	16523
835.235	16584
835.373	16611
835.511	16462
835.65	16485
835.788	16462
835.926	16280
836.064	16211
836.202	16272
836.34	16538
836.478	16546
836.615	16394
836.753	16500
836.891	16481
837.029	16481
837.167	16459
837.305	16356
837.443	16405
837.58	16314
837.718	16443
837.856	16341
837.993	16276
838.131	16295
838.269	16226
838.406	16261
838.544	16158
838.681	16067
838.819	16006
838.956	15869
839.094	15903
839.231	15857
839.369	15998
839.506	16325
839.643	15991
839.781	15895
839.918	15774
840.055	15922
840.193	15865
840.33	15816
840.467	15789
840.604	15865
840.742	16147
840.879	15682
841.016	15823
841.153	15739
841.29	15926
841.427	15956
841.564	15994
841.701	15873
841.838	15793
841.975	15690
842.112	15804
842.249	15705
842.385	15603
842.522	15888
842.659	15732
842.796	15542
842.933	15663
843.069	15580
843.206	15530
843.343	15717
843.479	15793
843.616	15603
843.752	15564
843.889	15454
844.025	15606
844.162	15397
844.298	15656
844.435	15511
844.571	15370
844.708	15564
844.844	15599
844.98	15564
845.117	15530
845.253	15397
845.389	15241
845.525	15450
845.661	15378
845.798	15180
845.934	15264
846.07	15146
846.206	15351
846.342	15355
846.478	15241
846.614	15028
846.75	15013
846.886	14956
847.022	14986
847.158	15039
847.294	14963
847.429	15047
847.565	14944
847.701	15241
847.837	14739
847.972	14788
848.108	14762
848.244	14754
848.379	14663
848.515	14651
848.65	14663
848.786	14606
848.921	14533
849.057	14712
849.192	14693
849.328	14625
849.463	14659
849.598	14560
849.734	14545
849.869	14533
850.004	14427
850.14	14446
850.275	14423
850.41	14294
850.545	14301
850.68	14282
850.815	14358
850.95	14393
851.085	14480
851.22	14461
851.355	14389
851.49	14374
851.625	14271
851.76	14332
851.895	14195
852.03	14225
852.165	14385
852.299	14442
852.434	14469
852.569	14412
852.703	14484
852.838	14438
852.973	14560
853.107	14495
853.242	14434
853.376	14362
853.511	14130
853.645	14218
853.78	14450
853.914	14252
854.048	14202
854.183	14202
854.317	14187
854.451	14393
854.585	14229
854.72	14195
854.854	14244
854.988	14168
855.122	14237
855.256	14058
855.39	14180
855.524	14275
855.658	14355
855.792	14298
855.926	14259
856.06	14362
856.194	14438
856.327	14252
856.461	14202
856.595	14248
856.729	14252
856.862	14434
856.996	14278
857.13	14290
857.263	14457
857.397	14298
857.53	14339
857.664	14343
857.797	14374
857.931	14320
858.064	14313
858.197	14476
858.331	14210
858.464	14225
858.597	14191
858.731	14183
858.864	14267
858.997	14252
859.13	14290
859.263	14161
859.396	14343
859.529	14149
859.662	14221
859.795	14199
859.928	14324
860.061	14450
860.194	14332
860.327	14294
860.46	14355
860.592	14298
860.725	14377
860.858	14339
860.99	14187
861.123	14157
861.256	14123
861.388	14202
861.521	14773
861.653	14176
861.786	14054
861.918	14195
862.05	14157
862.183	14252
862.315	14259
862.447	14290
862.58	14058
862.712	13982
862.844	14008
862.976	14103
863.108	14081
863.24	14568
863.372	13917
863.504	14046
863.636	14012
863.768	14088
863.9	13944
864.032	13963
864.164	14001
864.296	14164
864.428	14187
864.559	14119
864.691	14157
864.823	13967
864.954	14054
865.086	14050
865.217	13974
865.349	14016
865.48	14058
865.612	14107
865.743	14126
865.875	14005
866.006	14126
866.137	14001
866.269	13921
866.4	14043
866.531	14043
866.662	13963
866.793	13928
866.924	14001
867.055	14027
867.186	14024
867.317	13986
867.448	13898
867.579	14001
867.71	14008
867.841	13940
867.972	14062
868.103	14039
868.233	14054
868.364	14058
868.495	14024
868.625	14210
868.756	14332
868.886	14187
869.017	14237
869.147	14404
869.278	14351
869.408	14305
869.539	14252
869.669	14400
869.799	14347
869.929	14503
870.06	14465
870.19	14587
870.32	14564
870.45	14602
870.58	14549
870.71	14811
870.84	14743
870.97	14583
871.1	14644
871.23	14868
871.36	14785
871.489	14746
871.619	14895
871.749	14845
871.879	14906
872.008	14967
872.138	14800
872.267	14826
872.397	14781
872.526	14697
872.656	14689
872.785	14617
872.915	14785
873.044	14921
873.173	14921
873.303	14906
873.432	14948
873.561	14952
873.69	14944
873.819	14883
873.948	14925
874.077	14845
874.206	14792
874.335	14929
874.464	15097
874.593	15241
874.722	15146
874.851	15241
874.979	15169
875.108	15264
875.237	15184
875.365	15100
875.494	15211
875.623	15233
875.751	15150
875.88	15214
876.008	15340
876.136	15416
876.265	15701
876.393	15739
876.521	15679
876.65	15808
876.778	15656
876.906	15584
877.034	15629
877.162	15603
877.29	15542
877.418	15671
877.546	15622
877.674	15629
877.802	15667
877.93	15629
878.058	15652
878.185	15580
878.313	15679
878.441	15701
878.568	15435
878.696	15584
878.824	15595
878.951	15732
879.079	15838
879.206	16040
879.333	15842
879.461	15705
879.588	15793
879.715	15922
879.842	15956
879.97	15789
880.097	15591
880.224	15466
880.351	15515
880.478	15466
880.605	15523
880.732	15431
880.859	15739
880.986	15507
881.112	15576
881.239	15370
881.366	15283
881.493	15207
881.619	15131
881.746	15214
881.872	15074
881.999	15123
882.125	15150
882.252	15264
882.378	15146
882.505	15165
882.631	15112
882.757	14963
882.883	14998
883.01	14990
883.136	14952
883.262	14830
883.388	14826
883.514	15043
883.64	14979
883.766	14853
883.892	14807
884.018	14899
884.143	14948
884.269	15028
884.395	14727
884.52	14655
884.646	14640
884.772	14575
884.897	14514
885.023	14621
885.148	14834
885.274	14845
885.399	14781
885.524	14640
885.65	14648
885.775	14686
885.9	14762
886.025	14792
886.15	14746
886.275	14629
886.4	14667
886.525	14731
886.65	14625
886.775	14636
886.9	14777
887.025	14891
887.149	14678
887.274	14457
887.399	14488
887.523	14545
887.648	14389
887.773	14415
887.897	14526
888.021	14579
888.146	14461
888.27	14598
888.395	14556
888.519	14492
888.643	14610
888.767	14537
888.891	14412
889.015	14347
889.139	14457
889.263	14309
889.387	14461
889.511	14632
889.635	14480
889.759	14275
889.883	14328
890.006	14454
890.13	14503
890.254	14290
890.377	14328
890.501	14172
890.624	14206
890.748	14206
890.871	14103
890.995	14081
891.118	14001
891.241	14046
891.364	14092
891.488	14240
891.611	14065
891.734	14100
891.857	14183
891.98	14073
892.103	14221
892.226	14103
892.349	13970
892.471	13906
892.594	14031
892.717	14149
892.839	14058
892.962	14062
893.085	14096
893.207	13967
893.33	13978
893.452	14069
893.575	14237
893.697	14062
893.819	14199
893.941	14259
894.064	14191
894.186	14012
894.308	14005
894.43	14282
894.552	14286
894.674	14161
894.796	14016
894.918	14107
895.04	14183
895.161	14202
895.283	14183
895.405	14073
895.526	14126
895.648	14145
895.769	14271
895.891	14176
896.012	14252
896.134	14267
896.255	14263
896.376	14225
896.498	14176
896.619	14252
896.74	14233
896.861	14347
896.982	14575
897.103	14735
897.224	14549
897.345	14476
897.466	14385
897.587	14556
897.708	14743
897.828	14549
897.949	14511
898.07	14374
898.19	14545
898.311	14655
898.431	14522
898.552	14640
898.672	14701
898.792	14640
898.913	14663
899.033	14514
899.153	14511
899.273	14343
899.393	14396
899.513	14427
899.633	14423
899.753	14492
899.873	14347
899.993	14454
900.113	14412
900.232	14583
900.352	14522
900.472	14385
900.591	14199
900.711	14343
900.83	14263
900.95	14408
901.069	14412
901.189	14206
901.308	14054
901.427	13909
901.546	14024
901.665	13959
901.784	14043
901.904	13772
902.023	13757
902.141	13628
902.26	13502
902.379	13666
902.498	13540
902.617	13457
902.735	13597
902.854	13616
902.973	13533
903.091	13179
903.21	13278
903.328	13263
903.446	13168
903.565	13126
903.683	13107
903.801	13080
903.919	13171
904.038	13114
904.156	12916
904.274	13057
904.392	13004
904.51	12894
904.627	13069
904.745	12962
904.863	13000
904.981	12753
905.098	12658
905.216	12540
905.334	12623
905.451	12688
905.569	12582
905.686	12669
905.803	12639
905.921	12464
906.038	12623
906.155	12585
906.272	12448
906.389	12410
906.506	12167
906.623	12167
906.74	12171
906.857	12213
906.974	12178
907.091	12323
907.208	12399
907.324	12334
907.441	12296
907.557	11958
907.674	12015
907.79	11927
907.907	11931
908.023	11999
908.139	11954
908.256	11935
908.372	11863
908.488	11836
908.604	11684
908.72	11585
908.836	11695
908.952	11748
909.068	11684
909.184	11809
909.3	11710
909.415	11771
909.531	11790
909.647	11516
909.762	11570
909.878	11554
909.993	11535
910.108	11497
910.224	11444
910.339	11482
910.454	11482
910.57	11383
910.685	11360
910.8	11589
910.915	11634
911.03	11345
911.145	11189
911.259	11113
911.374	11220
911.489	11113
911.604	11098
911.718	10949
911.833	11018
911.947	10869
912.062	10778
912.176	10900
912.291	11018
912.405	11048
912.519	11235
912.633	11201
912.748	11006
912.862	11041
912.976	10942
913.09	10755
913.204	10748
913.318	10801
913.431	10923
913.545	10896
913.659	10946
913.772	10725
913.886	10820
914	10656
914.113	10831
914.226	10866
914.34	10801
914.453	10645
914.566	10824
914.68	10645
914.793	10698
914.906	10531
915.019	10398
915.132	10337
915.245	10394
915.358	10535
915.47	10436
915.583	10561
915.696	10519
915.809	10637
915.921	10656
916.034	10447
916.146	10440
916.259	10371
916.371	10538
916.483	10527
916.595	10402
916.708	10371
916.82	10470
916.932	10470
917.044	10363
917.156	10329
917.268	10246
917.38	10284
917.491	10341
917.603	10352
917.715	10443
917.826	10363
917.938	10242
918.049	10227
918.161	10272
918.272	10508
918.384	10447
918.495	10287
918.606	10169
918.717	10101
918.828	10173
918.939	10150
919.05	10128
919.161	10215
919.272	10013
919.383	10086
919.494	10215
919.604	10382
919.715	10196
919.826	10082
919.936	10177
920.047	10227
920.157	10230
920.267	10360
920.378	10272
920.488	10169
920.598	10413
920.708	10535
920.818	10299
920.928	10341
921.038	10523
921.148	10466
921.258	10219
921.368	10071
921.477	10025
921.587	10029
921.697	9949
921.806	10112
921.916	9922
922.025	9747
922.134	9755
922.244	9789
922.353	9857
922.462	9740
922.571	9614
922.68	9431
922.789	9492
922.898	9500
923.007	9378
923.116	9538
923.224	9481
923.333	9370
923.442	9355
923.55	9268
923.659	9355
923.767	9405
923.876	9382
923.984	9412
924.092	9310
924.201	9325
924.309	9336
924.417	9329
924.525	9237
924.633	9268
924.741	10223
924.849	9036
924.956	9317
925.064	9074
925.172	8975
925.279	9127
925.387	9135
925.494	9131
925.602	9256
925.709	9218
925.816	9070
925.924	9112
926.031	9089
926.138	9135
926.245	9135
926.352	9055
926.459	9233
926.566	9222
926.673	9058
926.779	8918
926.886	9017
926.993	8861
927.099	8891
927.206	8769
927.312	8701
927.419	8883
927.525	8842
927.631	8906
927.737	8788
927.843	8746
927.95	8621
928.056	8712
928.162	8701
928.267	8746
928.373	9348
928.479	8754
928.585	8610
928.69	8743
928.796	8781
928.901	8648
929.007	8465
929.112	8632
929.218	8533
929.323	8552
929.428	8556
929.533	8651
929.638	8488
929.743	8533
929.848	8522
929.953	8522
930.058	8404
930.163	8282
930.267	8305
930.372	8454
930.477	8259
930.581	8533
930.685	8351
930.79	8282
930.894	8271
930.998	8244
931.103	8469
931.207	8054
931.311	8008
931.415	7928
931.519	7826
931.623	7807
