Data from test_V78500241_500.txt Node
Date: Fri Mar 25 14:37:12 CST 2022
User: usil
Spectrometer: V785-0024
Trigger mode: 0
Integration Time (sec): 4.000000E-1
Scans to average: 1
Nonlinearity correction enabled: false
Boxcar width: 0
Storing dark spectrum: false
XAxis mode: Wavelengths
Number of Pixels in Spectrum: 1024
>>>>>Begin Spectral Data<<<<<
801.071	26682
801.214	26651
801.356	26453
801.499	26465
801.641	26221
801.783	26332
801.926	26240
802.068	26107
802.211	26050
802.353	25890
802.496	25868
802.638	25807
802.78	25765
802.923	25681
803.065	25639
803.208	25556
803.35	25708
803.492	25761
803.635	25772
803.777	25864
803.919	25700
804.061	25925
804.204	25864
804.346	25529
804.488	25666
804.63	25696
804.773	25655
804.915	25571
805.057	25734
805.199	25670
805.341	25753
805.483	25769
805.626	25674
805.768	25590
805.91	25655
806.052	25662
806.194	25605
806.336	25856
806.478	25807
806.62	25696
806.762	25830
806.904	26046
807.046	26180
807.188	26256
807.33	26221
807.472	26294
807.614	26282
807.756	26134
807.898	26122
808.04	26168
808.182	26278
808.324	26453
808.465	26590
808.607	26906
808.749	27176
808.891	27393
809.033	27416
809.174	27241
809.316	27074
809.458	26804
809.6	26621
809.741	26777
809.883	26579
810.025	26575
810.166	26480
810.308	26484
810.45	26450
810.591	26415
810.733	26164
810.875	26100
811.016	26043
811.158	26020
811.299	26096
811.441	26084
811.582	26107
811.724	25932
811.865	25902
812.007	25947
812.148	26050
812.29	25982
812.431	26229
812.573	26278
812.714	26317
812.855	26389
812.997	26587
813.138	26804
813.279	26629
813.421	26609
813.562	26495
813.703	26225
813.845	26024
813.986	25750
814.127	25784
814.268	25601
814.41	25590
814.551	25586
814.692	25578
814.833	25457
814.974	25487
815.115	25445
815.256	25327
815.397	25396
815.539	25297
815.68	25285
815.821	25228
815.962	25369
816.103	25320
816.244	25236
816.385	25050
816.526	24985
816.666	24821
816.807	24711
816.948	24688
817.089	24677
817.23	24688
817.371	24688
817.512	24707
817.653	24582
817.793	24528
817.934	24654
818.075	24700
818.216	24711
818.356	24528
818.497	24479
818.638	24270
818.778	24338
818.919	24311
819.06	24445
819.2	24460
819.341	24445
819.481	24452
819.622	24776
819.762	24810
819.903	24768
820.043	24547
820.184	24646
820.324	24738
820.465	24719
820.605	24700
820.746	24551
820.886	24445
821.026	24456
821.167	24536
821.307	24719
821.447	24384
821.588	24376
821.728	24235
821.868	24178
822.008	23904
822.149	23901
822.289	23847
822.429	23737
822.569	23714
822.709	23493
822.849	23459
822.99	23307
823.13	23349
823.27	23299
823.41	23223
823.55	23132
823.69	23246
823.83	23159
823.97	23162
824.11	22854
824.25	22984
824.389	22889
824.529	23052
824.669	22957
824.809	23060
824.949	23029
825.089	23048
825.228	23067
825.368	22774
825.508	22759
825.648	22797
825.787	22729
825.927	22835
826.067	22805
826.206	22748
826.346	22774
826.485	22710
826.625	22725
826.765	22782
826.904	22839
827.044	22500
827.183	22504
827.323	22352
827.462	22409
827.601	22322
827.741	22417
827.88	22394
828.02	22325
828.159	22280
828.298	22402
828.437	22474
828.577	22451
828.716	22527
828.855	22344
828.994	22029
829.134	22158
829.273	22166
829.412	22029
829.551	21953
829.69	22040
829.829	22097
829.968	22135
830.107	22147
830.246	22067
830.385	21964
830.524	21899
830.663	21857
830.802	21812
830.941	21610
831.08	21705
831.219	21747
831.357	21778
831.496	21835
831.635	21587
831.774	21511
831.913	21622
832.051	21507
832.19	21344
832.329	21397
832.467	21348
832.606	21260
832.744	21310
832.883	21355
833.022	21211
833.16	21306
833.299	21431
833.437	21351
833.576	21405
833.714	21374
833.852	21481
833.991	21382
834.129	21416
834.267	21431
834.406	21443
834.544	21439
834.682	21466
834.821	21439
834.959	21450
835.097	21340
835.235	21370
835.373	21279
835.511	21226
835.65	21058
835.788	21085
835.926	21085
836.064	20933
836.202	20929
836.34	21161
836.478	21245
836.615	20963
836.753	21104
836.891	21268
837.029	21241
837.167	21135
837.305	21039
837.443	20948
837.58	20975
837.718	21009
837.856	21028
837.993	21070
838.131	20933
838.269	20929
838.406	20982
838.544	20826
838.681	20724
838.819	20613
838.956	20587
839.094	20522
839.231	20503
839.369	20560
839.506	20773
839.643	20689
839.781	20499
839.918	20358
840.055	20404
840.193	20377
840.33	20339
840.467	20237
840.604	20408
840.742	20609
840.879	20320
841.016	20320
841.153	20301
841.29	20465
841.427	20366
841.564	20393
841.701	20362
841.838	20149
841.975	20317
842.112	20214
842.249	20126
842.385	20145
842.522	20252
842.659	20058
842.796	20065
842.933	20088
843.069	20024
843.206	19875
843.343	20069
843.479	20016
843.616	20206
843.752	19928
843.889	19852
844.025	20122
844.162	19837
844.298	19967
844.435	19826
844.571	19921
844.708	19822
844.844	20157
844.98	19997
845.117	20054
845.253	19997
845.389	19932
845.525	20084
845.661	20336
845.798	20621
845.934	20925
846.07	20891
846.206	21062
846.342	20883
846.478	20408
846.614	19788
846.75	19552
846.886	19514
847.022	19540
847.158	19388
847.294	19255
847.429	19354
847.565	19358
847.701	19624
847.837	19110
847.972	18970
848.108	19183
848.244	19202
848.379	19012
848.515	18791
848.65	18837
848.786	18798
848.921	18856
849.057	19004
849.192	18905
849.328	18897
849.463	18916
849.598	18741
849.734	18810
849.869	18707
850.004	18566
850.14	18612
850.275	18574
850.41	18688
850.545	18532
850.68	18601
850.815	18631
850.95	18570
851.085	18814
851.22	18738
851.355	18593
851.49	18536
851.625	18547
851.76	18448
851.895	18521
852.03	18483
852.165	18475
852.299	18597
852.434	18620
852.569	18589
852.703	18506
852.838	18593
852.973	18753
853.107	18703
853.242	18544
853.376	18448
853.511	18361
853.645	18353
853.78	18547
853.914	18395
854.048	18334
854.183	18388
854.317	18471
854.451	18589
854.585	18376
854.72	18395
854.854	18433
854.988	18281
855.122	18479
855.256	18232
855.39	18334
855.524	18551
855.658	18285
855.792	18407
855.926	18525
856.06	18330
856.194	18471
856.327	18384
856.461	18395
856.595	18350
856.729	18273
856.862	18555
856.996	18395
857.13	18372
857.263	18467
857.397	18494
857.53	18311
857.664	18426
857.797	18456
857.931	18452
858.064	18448
858.197	18429
858.331	18323
858.464	18289
858.597	18334
858.731	18258
858.864	18433
858.997	18338
859.13	18323
859.263	18369
859.396	18403
859.529	18311
859.662	18232
859.795	18262
859.928	18319
860.061	18498
860.194	18456
860.327	18388
860.46	18277
860.592	18353
860.725	18403
860.858	18483
860.99	18353
861.123	18300
861.256	18304
861.388	18304
861.521	19053
861.653	18194
861.786	18140
861.918	18281
862.05	18289
862.183	18338
862.315	18388
862.447	18429
862.58	18350
862.712	18117
862.844	17984
862.976	18163
863.108	18079
863.24	18616
863.372	17931
863.504	18117
863.636	18076
863.768	18190
863.9	18026
864.032	17992
864.164	17897
864.296	18098
864.428	18038
864.559	18144
864.691	18045
864.823	18026
864.954	18003
865.086	18007
865.217	17973
865.349	17992
865.48	18011
865.612	17996
865.743	18095
865.875	17969
866.006	17878
866.137	17977
866.269	17984
866.4	17920
866.531	17954
866.662	18003
866.793	17870
866.924	17908
867.055	17912
867.186	17973
867.317	17961
867.448	17843
867.579	17843
867.71	17843
867.841	17855
867.972	17908
868.103	17950
868.233	17946
868.364	17878
868.495	18091
868.625	18114
868.756	18239
868.886	18079
869.017	18114
869.147	18254
869.278	18117
869.408	18213
869.539	18091
869.669	18262
869.799	18190
869.929	18319
870.06	18292
870.19	18418
870.32	18414
870.45	18426
870.58	18620
870.71	18677
870.84	18608
870.97	18563
871.1	18585
871.23	18757
871.36	18726
871.489	18646
871.619	18772
871.749	18684
871.879	18772
872.008	18878
872.138	18802
872.267	18726
872.397	18738
872.526	18597
872.656	18604
872.785	18601
872.915	18673
873.044	18878
873.173	18894
873.303	18840
873.432	18886
873.561	18837
873.69	18875
873.819	18703
873.948	18878
874.077	18783
874.206	18795
874.335	18684
874.464	18954
874.593	19042
874.722	19065
874.851	19076
874.979	19080
875.108	19187
875.237	19152
875.365	18954
875.494	19057
875.623	19240
875.751	19110
875.88	19118
876.008	19247
876.136	19369
876.265	19563
876.393	19597
876.521	19556
876.65	19510
876.778	19594
876.906	19518
877.034	19499
877.162	19434
877.29	19468
877.418	19415
877.546	19567
877.674	19540
877.802	19533
877.93	19540
878.058	19472
878.185	19533
878.313	19597
878.441	19552
878.568	19468
878.696	19495
878.824	19670
878.951	19715
879.079	19993
879.206	20317
879.333	20225
879.461	20225
879.588	20351
879.715	20248
879.842	20457
879.97	20134
880.097	19658
880.224	19639
880.351	19624
880.478	19480
880.605	19582
880.732	19483
880.859	19685
880.986	19552
881.112	19510
881.239	19491
881.366	19278
881.493	19255
881.619	19118
881.746	19168
881.872	19099
881.999	18993
882.125	18996
882.252	19069
882.378	19126
882.505	19289
882.631	18935
882.757	18856
882.883	18916
883.01	18909
883.136	18798
883.262	18791
883.388	18658
883.514	18985
883.64	18905
883.766	18924
883.892	18692
884.018	18768
884.143	18798
884.269	18920
884.395	18646
884.52	18486
884.646	18540
884.772	18623
884.897	18490
885.023	18563
885.148	18593
885.274	18719
885.399	18616
885.524	18574
885.65	18566
885.775	18521
885.9	18483
886.025	18593
886.15	18578
886.275	18391
886.4	18414
886.525	18551
886.65	18410
886.775	18407
886.9	18574
887.025	18658
887.149	18464
887.274	18292
887.399	18323
887.523	18213
887.648	18167
887.773	18133
887.897	18304
888.021	18281
888.146	18117
888.27	18292
888.395	18273
888.519	18125
888.643	18285
888.767	18201
888.891	18171
889.015	18041
889.139	18053
889.263	18007
889.387	18174
889.511	18182
889.635	18171
889.759	17923
889.883	17935
890.006	18038
890.13	18064
890.254	17882
890.377	17977
890.501	17767
890.624	17627
890.748	17748
890.871	17638
890.995	17600
891.118	17589
891.241	17653
891.364	17668
891.488	17726
891.611	17623
891.734	17638
891.857	17661
891.98	17642
892.103	17733
892.226	17509
892.349	17482
892.471	17482
892.594	17520
892.717	17551
892.839	17547
892.962	17630
893.085	17623
893.207	17623
893.33	17455
893.452	17474
893.575	17634
893.697	17421
893.819	17729
893.941	17718
894.064	17589
894.186	17516
894.308	17353
894.43	17619
894.552	17691
894.674	17562
894.796	17490
894.918	17471
895.04	17589
895.161	17573
895.283	17592
895.405	17509
895.526	17558
895.648	17573
895.769	17638
895.891	17589
896.012	17630
896.134	17630
896.255	17512
896.376	17691
896.498	17573
896.619	17672
896.74	17672
896.861	17832
896.982	17843
897.103	18171
897.224	17878
897.345	17893
897.466	17771
897.587	17851
897.708	18057
897.828	17946
897.949	17771
898.07	17771
898.19	17786
898.311	18053
898.431	17843
898.552	17748
898.672	17882
898.792	17916
898.913	17859
899.033	17741
899.153	17726
899.273	17547
899.393	17668
899.513	17642
899.633	17745
899.753	17539
899.873	17539
899.993	17600
900.113	17596
900.232	17653
900.352	17596
900.472	17554
900.591	17471
900.711	17467
900.83	17493
900.95	17486
901.069	17665
901.189	17395
901.308	17151
901.427	17037
901.546	17162
901.665	17064
901.784	17086
901.904	16995
902.023	16812
902.141	16713
902.26	16691
902.379	16736
902.498	16706
902.617	16573
902.735	16649
902.854	16531
902.973	16462
903.091	16371
903.21	16268
903.328	16276
903.446	16303
903.565	16177
903.683	16078
903.801	16040
903.919	16074
904.038	16044
904.156	15888
904.274	16025
904.392	15892
904.51	15911
904.627	15911
904.745	15895
904.863	15968
904.981	15785
905.098	15530
905.216	15519
905.334	15618
905.451	15603
905.569	15469
905.686	15576
905.803	15534
905.921	15249
906.038	15439
906.155	15431
906.272	15203
906.389	15211
906.506	15089
906.623	15055
906.74	15089
906.857	15043
906.974	14963
907.091	15066
907.208	15173
907.324	15055
907.441	15051
907.557	14811
907.674	14880
907.79	14819
907.907	14769
908.023	14781
908.139	14754
908.256	14640
908.372	14632
908.488	14583
908.604	14560
908.72	14518
908.836	14408
908.952	14454
909.068	14457
909.184	14621
909.3	14476
909.415	14454
909.531	14473
909.647	14233
909.762	14294
909.878	14202
909.993	14191
910.108	14145
910.224	14134
910.339	14233
910.454	14153
910.57	14062
910.685	14005
910.8	14199
910.915	14157
911.03	13989
911.145	13814
911.259	13883
911.374	13845
911.489	13765
911.604	13693
911.718	13597
911.833	13533
911.947	13529
912.062	13331
912.176	13483
912.291	13540
912.405	13578
912.519	13799
912.633	13795
912.748	13624
912.862	13696
912.976	13358
913.09	13339
913.204	13434
913.318	13422
913.431	13506
913.545	13491
913.659	13476
913.772	13373
913.886	13327
914	13213
914.113	13411
914.226	13396
914.34	13381
914.453	13221
914.566	13362
914.68	13145
914.793	13179
914.906	12970
915.019	12817
915.132	12882
915.245	12977
915.358	12947
915.47	12973
915.583	13027
915.696	12935
915.809	13050
915.921	13149
916.034	12806
916.146	12856
916.259	12795
916.371	12970
916.483	12951
916.595	12840
916.708	12798
916.82	12833
916.932	12768
917.044	12791
917.156	12741
917.268	12669
917.38	12642
917.491	12631
917.603	12585
917.715	12696
917.826	12741
917.938	12555
918.049	12483
918.161	12700
918.272	12753
918.384	12757
918.495	12589
918.606	12471
918.717	12498
918.828	12536
918.939	12517
919.05	12429
919.161	12498
919.272	12232
919.383	12262
919.494	12555
919.604	12673
919.715	12429
919.826	12384
919.936	12399
920.047	12498
920.157	12589
920.267	12585
920.378	12456
920.488	12353
920.598	12597
920.708	12688
920.818	12544
920.928	12563
921.038	12741
921.148	12642
921.258	12429
921.368	12334
921.477	12258
921.587	12235
921.697	12155
921.806	12194
921.916	12057
922.025	12003
922.134	11908
922.244	11843
922.353	11939
922.462	11745
922.571	11783
922.68	11528
922.789	11615
922.898	11608
923.007	11505
923.116	11539
923.224	11493
923.333	11467
923.442	11471
923.55	11337
923.659	11448
923.767	11486
923.876	11372
923.984	11368
924.092	11277
924.201	11246
924.309	11284
924.417	11387
924.525	11235
924.633	11307
924.741	12232
924.849	11132
924.956	11220
925.064	11201
925.172	11060
925.279	11113
925.387	11128
925.494	11041
925.602	11174
925.709	11170
925.816	10987
925.924	11113
926.031	11147
926.138	11014
926.245	11174
926.352	10995
926.459	11090
926.566	11147
926.673	10972
926.779	10919
926.886	10847
926.993	10778
927.099	10755
927.206	10687
927.312	10675
927.419	10786
927.525	10778
927.631	10698
927.737	10485
927.843	10622
927.95	10485
928.056	10493
928.162	10622
928.267	10596
928.373	11170
928.479	10592
928.585	10459
928.69	10497
928.796	10592
928.901	10485
929.007	10227
929.112	10493
929.218	10379
929.323	10417
929.428	10284
929.533	10470
929.638	10219
929.743	10303
929.848	10295
929.953	10291
930.058	10169
930.163	10120
930.267	10124
930.372	10181
930.477	9983
930.581	10246
930.685	10131
930.79	9960
930.894	10017
930.998	9956
931.103	10055
931.207	9694
931.311	9633
931.415	9564
931.519	9443
931.623	9416
