Data from test_V78500241_1716.txt Node
Date: Fri Mar 25 14:45:39 CST 2022
User: usil
Spectrometer: V785-0024
Trigger mode: 0
Integration Time (sec): 4.000000E-1
Scans to average: 1
Nonlinearity correction enabled: false
Boxcar width: 0
Storing dark spectrum: false
XAxis mode: Wavelengths
Number of Pixels in Spectrum: 1024
>>>>>Begin Spectral Data<<<<<
801.071	22215
801.214	22215
801.356	21812
801.499	21751
801.641	21652
801.783	21568
801.926	21542
802.068	21477
802.211	21447
802.353	21424
802.496	21199
802.638	21062
802.78	20941
802.923	21112
803.065	20929
803.208	20963
803.35	20910
803.492	20998
803.635	20986
803.777	20902
803.919	20967
804.061	21195
804.204	21024
804.346	20929
804.488	20739
804.63	20830
804.773	20849
804.915	20792
805.057	20895
805.199	20929
805.341	20998
805.483	21051
805.626	20929
805.768	20902
805.91	20773
806.052	20872
806.194	20849
806.336	21001
806.478	20921
806.62	20815
806.762	20967
806.904	21104
807.046	21329
807.188	21207
807.33	21230
807.472	21279
807.614	21062
807.756	21169
807.898	21051
808.04	20921
808.182	20937
808.324	21058
808.465	21032
808.607	21070
808.749	21203
808.891	21321
809.033	21355
809.174	21408
809.316	21135
809.458	21321
809.6	21199
809.741	21298
809.883	21351
810.025	21405
810.166	21504
810.308	21439
810.45	21298
810.591	21264
810.733	21093
810.875	21032
811.016	20914
811.158	20998
811.299	21135
811.441	21135
811.582	21161
811.724	21058
811.865	21070
812.007	21013
812.148	20994
812.29	21043
812.431	21233
812.573	21355
812.714	21408
812.855	21523
812.997	21595
813.138	21637
813.279	21568
813.421	21530
813.562	21340
813.703	21310
813.845	21218
813.986	20941
814.127	20678
814.268	20678
814.41	20571
814.551	20552
814.692	20606
814.833	20583
814.974	20533
815.115	20571
815.256	20374
815.397	20560
815.539	20389
815.68	20328
815.821	20237
815.962	20377
816.103	20161
816.244	20214
816.385	20012
816.526	19936
816.666	19864
816.807	19830
816.948	19776
817.089	19723
817.23	19731
817.371	19712
817.512	19681
817.653	19639
817.793	19712
817.934	19616
818.075	19651
818.216	19655
818.356	19674
818.497	19605
818.638	19407
818.778	19472
818.919	19438
819.06	19400
819.2	19540
819.341	19559
819.481	19575
819.622	19616
819.762	19974
819.903	19871
820.043	19689
820.184	19670
820.324	19643
820.465	19788
820.605	19715
820.746	19639
820.886	19514
821.026	19647
821.167	19647
821.307	19727
821.447	19563
821.588	19529
821.728	19343
821.868	19232
822.008	19164
822.149	19053
822.289	19031
822.429	18776
822.569	18757
822.709	18741
822.849	18673
822.99	18566
823.13	18471
823.27	18429
823.41	18494
823.55	18327
823.69	18334
823.83	18273
823.97	18384
824.11	18133
824.25	18277
824.389	18087
824.529	18121
824.669	18178
824.809	18334
824.949	18281
825.089	18117
825.228	18110
825.368	17935
825.508	17935
825.648	17851
825.787	17927
825.927	18041
826.067	17920
826.206	17901
826.346	18003
826.485	17946
826.625	17920
826.765	17912
826.904	17973
827.044	17680
827.183	17672
827.323	17627
827.462	17695
827.601	17535
827.741	17691
827.88	17707
828.02	17509
828.159	17608
828.298	17737
828.437	17684
828.577	17672
828.716	17817
828.855	17547
828.994	17421
829.134	17356
829.273	17433
829.412	17402
829.551	17292
829.69	17395
829.829	17455
829.968	17501
830.107	17524
830.246	17421
830.385	17349
830.524	17318
830.663	17231
830.802	17197
830.941	16995
831.08	17041
831.219	17083
831.357	17121
831.496	17208
831.635	17109
831.774	17037
831.913	17033
832.051	16767
832.19	16885
832.329	16824
832.467	16767
832.606	16675
832.744	16767
832.883	16675
833.022	16733
833.16	16740
833.299	16790
833.437	16774
833.576	16634
833.714	16755
833.852	16778
833.991	16755
834.129	16923
834.267	16812
834.406	16736
834.544	16786
834.682	16771
834.821	16683
834.959	16972
835.097	16771
835.235	16828
835.373	16812
835.511	16843
835.65	16790
835.788	16805
835.926	16504
836.064	16504
836.202	16470
836.34	16679
836.478	16683
836.615	16645
836.753	16767
836.891	16805
837.029	16721
837.167	16561
837.305	16694
837.443	16558
837.58	16550
837.718	16618
837.856	16504
837.993	16508
838.131	16527
838.269	16417
838.406	16432
838.544	16398
838.681	16287
838.819	16253
838.956	16002
839.094	16055
839.231	16090
839.369	16219
839.506	16462
839.643	16360
839.781	16131
839.918	16017
840.055	16131
840.193	16090
840.33	16059
840.467	16006
840.604	16109
840.742	16405
840.879	15960
841.016	16029
841.153	16082
841.29	16169
841.427	16071
841.564	16143
841.701	16135
841.838	15998
841.975	15968
842.112	16002
842.249	15930
842.385	15857
842.522	16051
842.659	15918
842.796	15838
842.933	15861
843.069	15736
843.206	15850
843.343	15998
843.479	15766
843.616	15934
843.752	15751
843.889	15713
844.025	15759
844.162	15644
844.298	15770
844.435	15618
844.571	15591
844.708	15648
844.844	15762
844.98	15819
845.117	15713
845.253	15656
845.389	15618
845.525	15545
845.661	15686
845.798	15504
845.934	15614
846.07	15386
846.206	15542
846.342	15591
846.478	15523
846.614	15279
846.75	15207
846.886	15256
847.022	15329
847.158	15112
847.294	15154
847.429	15245
847.565	15233
847.701	15405
847.837	14963
847.972	14948
848.108	15108
848.244	14948
848.379	14804
848.515	14838
848.65	14842
848.786	14777
848.921	14887
849.057	14921
849.192	14876
849.328	14910
849.463	14857
849.598	14811
849.734	14811
849.869	14636
850.004	14640
850.14	14708
850.275	14606
850.41	14480
850.545	14590
850.68	14552
850.815	14712
850.95	14568
851.085	14800
851.22	14682
851.355	14644
851.49	14518
851.625	14602
851.76	14598
851.895	14583
852.03	14347
852.165	14522
852.299	14598
852.434	14648
852.569	14659
852.703	14651
852.838	14655
852.973	14712
853.107	14739
853.242	14545
853.376	14503
853.511	14377
853.645	14476
853.78	14507
853.914	14533
854.048	14514
854.183	14408
854.317	14434
854.451	14735
854.585	14427
854.72	14381
854.854	14533
854.988	14393
855.122	14362
855.256	14271
855.39	14393
855.524	14454
855.658	14469
855.792	14415
855.926	14594
856.06	14541
856.194	14541
856.327	14495
856.461	14339
856.595	14355
856.729	14419
856.862	14602
856.996	14583
857.13	14587
857.263	14579
857.397	14556
857.53	14488
857.664	14640
857.797	14457
857.931	14629
858.064	14552
858.197	14549
858.331	14419
858.464	14503
858.597	14396
858.731	14480
858.864	14393
858.997	14366
859.13	14454
859.263	14541
859.396	14613
859.529	14381
859.662	14480
859.795	14438
859.928	14450
860.061	14712
860.194	14560
860.327	14465
860.46	14484
860.592	14526
860.725	14610
860.858	14549
860.99	14484
861.123	14377
861.256	14503
861.388	14419
861.521	14921
861.653	14309
861.786	14286
861.918	14351
862.05	14317
862.183	14374
862.315	14461
862.447	14575
862.58	14332
862.712	14259
862.844	14157
862.976	14252
863.108	14286
863.24	14648
863.372	14199
863.504	14199
863.636	14225
863.768	14328
863.9	14313
864.032	14191
864.164	14210
864.296	14259
864.428	14377
864.559	14393
864.691	14336
864.823	14256
864.954	14248
865.086	14240
865.217	14229
865.349	14195
865.48	14202
865.612	14138
865.743	14362
865.875	14221
866.006	14172
866.137	14256
866.269	14355
866.4	14199
866.531	14092
866.662	14111
866.793	14183
866.924	14233
867.055	14309
867.186	14039
867.317	14107
867.448	14088
867.579	14092
867.71	14172
867.841	14221
867.972	14278
868.103	14149
868.233	14271
868.364	14176
868.495	14233
868.625	14408
868.756	14556
868.886	14267
869.017	14457
869.147	14545
869.278	14606
869.408	14598
869.539	14415
869.669	14514
869.799	14537
869.929	14511
870.06	14598
870.19	14773
870.32	14655
870.45	14876
870.58	14815
870.71	14937
870.84	14925
870.97	14807
871.1	14842
871.23	15036
871.36	14956
871.489	14948
871.619	15070
871.749	15047
871.879	15104
872.008	15180
872.138	14986
872.267	14998
872.397	15013
872.526	14868
872.656	14906
872.785	14861
872.915	15009
873.044	15127
873.173	15032
873.303	15066
873.432	15100
873.561	15157
873.69	15047
873.819	15081
873.948	15157
874.077	15169
874.206	15062
874.335	15119
874.464	15230
874.593	15374
874.722	15355
874.851	15397
874.979	15443
875.108	15481
875.237	15294
875.365	15264
875.494	15420
875.623	15447
875.751	15329
875.88	15443
876.008	15507
876.136	15603
876.265	15804
876.393	15991
876.521	15895
876.65	15888
876.778	15892
876.906	15785
877.034	15717
877.162	15762
877.29	15819
877.418	15823
877.546	15861
877.674	15785
877.802	15831
877.93	15770
878.058	15808
878.185	15637
878.313	15797
878.441	15854
878.568	15648
878.696	15800
878.824	15762
878.951	15884
879.079	16078
879.206	16147
879.333	16010
879.461	15964
879.588	15915
879.715	16010
879.842	16150
879.97	15846
880.097	15663
880.224	15686
880.351	15747
880.478	15770
880.605	15610
880.732	15728
880.859	15869
880.986	15557
881.112	15679
881.239	15595
881.366	15431
881.493	15363
881.619	15450
881.746	15302
881.872	15344
881.999	15416
882.125	15291
882.252	15291
882.378	15291
882.505	15408
882.631	15268
882.757	15192
882.883	15195
883.01	15188
883.136	15058
883.262	15055
883.388	14986
883.514	15169
883.64	15192
883.766	15138
883.892	14960
884.018	15009
884.143	15081
884.269	15233
884.395	14933
884.52	14887
884.646	14834
884.772	14826
884.897	14845
885.023	14838
885.148	14941
885.274	14994
885.399	14948
885.524	14857
885.65	14883
885.775	14830
885.9	14891
886.025	15013
886.15	15009
886.275	14800
886.4	14785
886.525	14842
886.65	14705
886.775	14826
886.9	15039
887.025	15161
887.149	14895
887.274	14750
887.399	14655
887.523	14564
887.648	14587
887.773	14606
887.897	14724
888.021	14716
888.146	14571
888.27	14773
888.395	14792
888.519	14636
888.643	14701
888.767	14735
888.891	14602
889.015	14461
889.139	14602
889.263	14457
889.387	14632
889.511	14739
889.635	14697
889.759	14556
889.883	14454
890.006	14537
890.13	14651
890.254	14469
890.377	14488
890.501	14355
890.624	14252
890.748	14514
890.871	14225
890.995	14271
891.118	14130
891.241	14259
891.364	14145
891.488	14347
891.611	14248
891.734	14134
891.857	14309
891.98	14210
892.103	14358
892.226	14252
892.349	14298
892.471	14073
892.594	14290
892.717	14259
892.839	14233
892.962	14271
893.085	14187
893.207	14229
893.33	14126
893.452	14157
893.575	14225
893.697	14134
893.819	14389
893.941	14385
894.064	14412
894.186	14206
894.308	14191
894.43	14351
894.552	14442
894.674	14324
894.796	14180
894.918	14218
895.04	14298
895.161	14332
895.283	14317
895.405	14233
895.526	14298
895.648	14381
895.769	14457
895.891	14374
896.012	14404
896.134	14484
896.255	14355
896.376	14370
896.498	14317
896.619	14484
896.74	14351
896.861	14495
896.982	14765
897.103	14883
897.224	14678
897.345	14568
897.466	14571
897.587	14617
897.708	14880
897.828	14727
897.949	14659
898.07	14587
898.19	14617
898.311	14708
898.431	14655
898.552	14785
898.672	14800
898.792	14796
898.913	14697
899.033	14678
899.153	14575
899.273	14507
899.393	14518
899.513	14606
899.633	14587
899.753	14636
899.873	14640
899.993	14613
900.113	14587
900.232	14598
900.352	14568
900.472	14415
900.591	14469
900.711	14488
900.83	14355
900.95	14465
901.069	14533
901.189	14347
901.308	14123
901.427	14145
901.546	14069
901.665	14286
901.784	14119
901.904	13967
902.023	13986
902.141	13791
902.26	13693
902.379	13753
902.498	13700
902.617	13693
902.735	13689
902.854	13647
902.973	13632
903.091	13369
903.21	13521
903.328	13384
903.446	13312
903.565	13343
903.683	13324
903.801	13251
903.919	13293
904.038	13228
904.156	13137
904.274	13137
904.392	12996
904.51	13023
904.627	13141
904.745	13164
904.863	13190
904.981	12890
905.098	12802
905.216	12734
905.334	12795
905.451	12806
905.569	12738
905.686	12905
905.803	12734
905.921	12631
906.038	12604
906.155	12684
906.272	12441
906.389	12597
906.506	12350
906.623	12311
906.74	12300
906.857	12289
906.974	12300
907.091	12479
907.208	12551
907.324	12388
907.441	12266
907.557	12129
907.674	12068
907.79	12053
907.907	12076
908.023	12110
908.139	12129
908.256	11977
908.372	12057
908.488	11950
908.604	11901
908.72	11866
908.836	11824
908.952	11870
909.068	11878
909.184	11980
909.3	11859
909.415	11942
909.531	11798
909.647	11672
909.762	11684
909.878	11497
909.993	11646
910.108	11649
910.224	11657
910.339	11680
910.454	11459
910.57	11471
910.685	11402
910.8	11672
910.915	11623
911.03	11543
911.145	11349
911.259	11444
911.374	11326
911.489	11239
911.604	11159
911.718	11083
911.833	11079
911.947	10984
912.062	10946
912.176	11124
912.291	10976
912.405	11132
912.519	11311
912.633	11337
912.748	11174
912.862	11143
912.976	10984
913.09	10812
913.204	10896
913.318	10938
913.431	11033
913.545	10972
913.659	11117
913.772	10946
913.886	10866
914	10881
914.113	10949
914.226	10866
914.34	10972
914.453	10805
914.566	10908
914.68	10698
914.793	10801
914.906	10615
915.019	10565
915.132	10447
915.245	10637
915.358	10615
915.47	10694
915.583	10717
915.696	10645
915.809	10744
915.921	10790
916.034	10596
916.146	10577
916.259	10470
916.371	10596
916.483	10637
916.595	10478
916.708	10573
916.82	10462
916.932	10451
917.044	10527
917.156	10535
917.268	10421
917.38	10455
917.491	10382
917.603	10409
917.715	10508
917.826	10546
917.938	10436
918.049	10333
918.161	10413
918.272	10538
918.384	10649
918.495	10428
918.606	10303
918.717	10253
918.828	10352
918.939	10337
919.05	10227
919.161	10314
919.272	10101
919.383	10196
919.494	10352
919.604	10542
919.715	10306
919.826	10116
919.936	10227
920.047	10394
920.157	10360
920.267	10519
920.378	10329
920.488	10363
920.598	10432
920.708	10675
920.818	10554
920.928	10500
921.038	10740
921.148	10634
921.258	10310
921.368	10204
921.477	10200
921.587	10101
921.697	10017
921.806	10173
921.916	10029
922.025	9850
922.134	9831
922.244	9838
922.353	9888
922.462	9774
922.571	9652
922.68	9545
922.789	9545
922.898	9557
923.007	9557
923.116	9561
923.224	9663
923.333	9530
923.442	9466
923.55	9473
923.659	9496
923.767	9485
923.876	9454
923.984	9538
924.092	9363
924.201	9420
924.309	9458
924.417	9428
924.525	9340
924.633	9382
924.741	10261
924.849	9116
924.956	9389
925.064	9230
925.172	9100
925.279	9245
925.387	9195
925.494	9287
925.602	9275
925.709	9313
925.816	9100
925.924	9222
926.031	9287
926.138	9272
926.245	9199
926.352	9165
926.459	9256
926.566	9222
926.673	9165
926.779	8994
926.886	9047
926.993	8963
927.099	8876
927.206	8891
927.312	8952
927.419	8971
927.525	8963
927.631	9036
927.737	8807
927.843	8811
927.95	8716
928.056	8766
928.162	8819
928.267	8842
928.373	9454
928.479	8861
928.585	8617
928.69	8849
928.796	8807
928.901	8724
929.007	8629
929.112	8766
929.218	8682
929.323	8632
929.428	8640
929.533	8777
929.638	8610
929.743	8556
929.848	8636
929.953	8655
930.058	8537
930.163	8332
930.267	8461
930.372	8526
930.477	8404
930.581	8579
930.685	8480
930.79	8343
930.894	8381
930.998	8313
931.103	8400
931.207	8145
931.311	8024
931.415	8050
931.519	7841
931.623	7852
