Data from test_V78500241_1876.txt Node
Date: Fri Mar 25 14:46:46 CST 2022
User: usil
Spectrometer: V785-0024
Trigger mode: 0
Integration Time (sec): 4.000000E-1
Scans to average: 1
Nonlinearity correction enabled: false
Boxcar width: 0
Storing dark spectrum: false
XAxis mode: Wavelengths
Number of Pixels in Spectrum: 1024
>>>>>Begin Spectral Data<<<<<
801.071	22204
801.214	22040
801.356	21701
801.499	21747
801.641	21511
801.783	21519
801.926	21534
802.068	21458
802.211	21294
802.353	21332
802.496	21116
802.638	20952
802.78	21066
802.923	20921
803.065	20883
803.208	20705
803.35	20773
803.492	20819
803.635	21005
803.777	20872
803.919	20765
804.061	20933
804.204	20872
804.346	20777
804.488	20686
804.63	20785
804.773	20716
804.915	20834
805.057	20921
805.199	20762
805.341	20830
805.483	20937
805.626	20785
805.768	20781
805.91	20750
806.052	20750
806.194	20716
806.336	20883
806.478	20762
806.62	20743
806.762	20826
806.904	20826
807.046	21176
807.188	21047
807.33	21055
807.472	21077
807.614	21013
807.756	21062
807.898	20952
808.04	20838
808.182	20811
808.324	20807
808.465	20868
808.607	21001
808.749	21146
808.891	21237
809.033	21268
809.174	21138
809.316	21108
809.458	21108
809.6	21017
809.741	21100
809.883	21169
810.025	21363
810.166	21370
810.308	21180
810.45	21184
810.591	21142
810.733	20982
810.875	20857
811.016	20792
811.158	20769
811.299	20876
811.441	21070
811.582	21142
811.724	20864
811.865	20918
812.007	20796
812.148	20883
812.29	20880
812.431	21100
812.573	21245
812.714	21256
812.855	21405
812.997	21492
813.138	21466
813.279	21511
813.421	21310
813.562	21359
813.703	21161
813.845	21055
813.986	20800
814.127	20613
814.268	20514
814.41	20530
814.551	20343
814.692	20552
814.833	20313
814.974	20339
815.115	20503
815.256	20229
815.397	20263
815.539	20339
815.68	20172
815.821	20111
815.962	20240
816.103	19959
816.244	19982
816.385	19795
816.526	19894
816.666	19693
816.807	19571
816.948	19670
817.089	19708
817.23	19624
817.371	19495
817.512	19518
817.653	19480
817.793	19525
817.934	19514
818.075	19616
818.216	19445
818.356	19552
818.497	19381
818.638	19236
818.778	19198
818.919	19297
819.06	19270
819.2	19251
819.341	19362
819.481	19381
819.622	19571
819.762	19639
819.903	19738
820.043	19499
820.184	19651
820.324	19499
820.465	19670
820.605	19575
820.746	19567
820.886	19324
821.026	19571
821.167	19525
821.307	19552
821.447	19457
821.588	19369
821.728	19244
821.868	19057
822.008	18859
822.149	18985
822.289	18848
822.429	18749
822.569	18566
822.709	18589
822.849	18464
822.99	18479
823.13	18407
823.27	18460
823.41	18357
823.55	18148
823.69	18167
823.83	18213
823.97	18228
824.11	18011
824.25	18022
824.389	18072
824.529	18095
824.669	18098
824.809	18083
824.949	18049
825.089	18049
825.228	18003
825.368	17901
825.508	17832
825.648	17882
825.787	17908
825.927	17935
826.067	17843
826.206	17733
826.346	17832
826.485	17912
826.625	17828
826.765	17935
826.904	17676
827.044	17497
827.183	17634
827.323	17459
827.462	17509
827.601	17509
827.741	17452
827.88	17528
828.02	17452
828.159	17402
828.298	17573
828.437	17615
828.577	17589
828.716	17684
828.855	17543
828.994	17334
829.134	17299
829.273	17353
829.412	17246
829.551	17181
829.69	17151
829.829	17391
829.968	17337
830.107	17299
830.246	17376
830.385	17216
830.524	17147
830.663	17067
830.802	16892
830.941	16961
831.08	16816
831.219	16987
831.357	16915
831.496	17098
831.635	16805
831.774	16816
831.913	16717
832.051	16698
832.19	16710
832.329	16729
832.467	16516
832.606	16634
832.744	16584
832.883	16675
833.022	16542
833.16	16558
833.299	16584
833.437	16588
833.576	16683
833.714	16664
833.852	16618
833.991	16736
834.129	16706
834.267	16717
834.406	16561
834.544	16748
834.682	16656
834.821	16607
834.959	16839
835.097	16713
835.235	16664
835.373	16717
835.511	16698
835.65	16630
835.788	16626
835.926	16440
836.064	16421
836.202	16504
836.34	16538
836.478	16611
836.615	16527
836.753	16531
836.891	16607
837.029	16607
837.167	16519
837.305	16417
837.443	16500
837.58	16421
837.718	16421
837.856	16310
837.993	16428
838.131	16424
838.269	16413
838.406	16371
838.544	16306
838.681	16090
838.819	16116
838.956	15956
839.094	15983
839.231	15987
839.369	16177
839.506	16417
839.643	16265
839.781	15987
839.918	15930
840.055	15892
840.193	15998
840.33	16002
840.467	15945
840.604	16017
840.742	16139
840.879	15903
841.016	15968
841.153	15827
841.29	16135
841.427	16082
841.564	15987
841.701	16143
841.838	15793
841.975	15865
842.112	15873
842.249	15819
842.385	15686
842.522	15953
842.659	15743
842.796	15724
842.933	15694
843.069	15701
843.206	15633
843.343	15876
843.479	15743
843.616	15800
843.752	15576
843.889	15614
844.025	15709
844.162	15488
844.298	15629
844.435	15545
844.571	15622
844.708	15526
844.844	15690
844.98	15739
845.117	15660
845.253	15447
845.389	15302
845.525	15530
845.661	15351
845.798	15279
845.934	15294
846.07	15325
846.206	15435
846.342	15511
846.478	15397
846.614	15173
846.75	15138
846.886	15077
847.022	15249
847.158	15218
847.294	15161
847.429	15173
847.565	15112
847.701	15329
847.837	14891
847.972	14845
848.108	14933
848.244	14891
848.379	14746
848.515	14796
848.65	14716
848.786	14670
848.921	14781
849.057	14785
849.192	14785
849.328	14773
849.463	14667
849.598	14697
849.734	14712
849.869	14568
850.004	14434
850.14	14545
850.275	14545
850.41	14366
850.545	14503
850.68	14450
850.815	14503
850.95	14476
851.085	14651
851.22	14594
851.355	14438
851.49	14393
851.625	14438
851.76	14522
851.895	14396
852.03	14305
852.165	14473
852.299	14522
852.434	14541
852.569	14606
852.703	14579
852.838	14541
852.973	14659
853.107	14648
853.242	14526
853.376	14290
853.511	14282
853.645	14282
853.78	14480
853.914	14328
854.048	14309
854.183	14408
854.317	14328
854.451	14461
854.585	14317
854.72	14305
854.854	14438
854.988	14343
855.122	14336
855.256	14259
855.39	14374
855.524	14393
855.658	14393
855.792	14328
855.926	14362
856.06	14438
856.194	14400
856.327	14339
856.461	14290
856.595	14324
856.729	14324
856.862	14427
856.996	14343
857.13	14431
857.263	14499
857.397	14366
857.53	14332
857.664	14473
857.797	14415
857.931	14514
858.064	14473
858.197	14450
858.331	14237
858.464	14343
858.597	14077
858.731	14404
858.864	14374
858.997	14343
859.13	14278
859.263	14484
859.396	14427
859.529	14355
859.662	14240
859.795	14385
859.928	14370
860.061	14427
860.194	14545
860.327	14320
860.46	14328
860.592	14419
860.725	14526
860.858	14492
860.99	14355
861.123	14229
861.256	14214
861.388	14442
861.521	14975
861.653	14233
861.786	14168
861.918	14290
862.05	14298
862.183	14377
862.315	14336
862.447	14377
862.58	14298
862.712	14275
862.844	14012
862.976	14149
863.108	14142
863.24	14476
863.372	14111
863.504	14096
863.636	14180
863.768	14172
863.9	14123
864.032	14012
864.164	14050
864.296	14233
864.428	14271
864.559	14221
864.691	14225
864.823	14119
864.954	14126
865.086	14199
865.217	14115
865.349	14077
865.48	14096
865.612	14077
865.743	14180
865.875	14149
866.006	14088
866.137	14065
866.269	14084
866.4	14096
866.531	14115
866.662	14092
866.793	14058
866.924	14058
867.055	14111
867.186	14149
867.317	14100
867.448	14077
867.579	14046
867.71	14054
867.841	14035
867.972	14126
868.103	14005
868.233	14195
868.364	14115
868.495	14221
868.625	14400
868.756	14564
868.886	14328
869.017	14336
869.147	14476
869.278	14518
869.408	14351
869.539	14476
869.669	14476
869.799	14480
869.929	14457
870.06	14499
870.19	14708
870.32	14765
870.45	14792
870.58	14727
870.71	14914
870.84	14811
870.97	14830
871.1	14792
871.23	14925
871.36	14975
871.489	14750
871.619	14853
871.749	14906
871.879	15009
872.008	15123
872.138	15020
872.267	14918
872.397	14895
872.526	14769
872.656	14781
872.785	14743
872.915	14967
873.044	15116
873.173	15055
873.303	15066
873.432	15119
873.561	15142
873.69	14967
873.819	15085
873.948	15058
874.077	15024
874.206	15077
874.335	15066
874.464	15119
874.593	15325
874.722	15222
874.851	15317
874.979	15431
875.108	15382
875.237	15207
875.365	15256
875.494	15302
875.623	15447
875.751	15329
875.88	15363
876.008	15439
876.136	15584
876.265	15690
876.393	15922
876.521	15842
876.65	15873
876.778	15743
876.906	15785
877.034	15671
877.162	15728
877.29	15618
877.418	15694
877.546	15709
877.674	15743
877.802	15701
877.93	15789
878.058	15660
878.185	15724
878.313	15846
878.441	15686
878.568	15667
878.696	15751
878.824	15770
878.951	15812
879.079	15892
879.206	16059
879.333	15934
879.461	15781
879.588	15869
879.715	15907
879.842	16036
879.97	15827
880.097	15671
880.224	15633
880.351	15701
880.478	15629
880.605	15564
880.732	15576
880.859	15865
880.986	15698
881.112	15595
881.239	15584
881.366	15359
881.493	15237
881.619	15294
881.746	15279
881.872	15249
881.999	15192
882.125	15249
882.252	15256
882.378	15241
882.505	15348
882.631	15222
882.757	15077
882.883	15138
883.01	15058
883.136	14921
883.262	14975
883.388	14876
883.514	15108
883.64	15131
883.766	15024
883.892	14948
884.018	14891
884.143	15017
884.269	15070
884.395	14796
884.52	14762
884.646	14701
884.772	14739
884.897	14697
885.023	14785
885.148	14857
885.274	14819
885.399	14804
885.524	14750
885.65	14754
885.775	14876
885.9	14815
886.025	14902
886.15	14788
886.275	14724
886.4	14682
886.525	14644
886.65	14610
886.775	14674
886.9	14929
887.025	14967
887.149	14796
887.274	14640
887.399	14541
887.523	14522
887.648	14537
887.773	14446
887.897	14689
888.021	14727
888.146	14545
888.27	14724
888.395	14689
888.519	14693
888.643	14712
888.767	14689
888.891	14511
889.015	14442
889.139	14606
889.263	14457
889.387	14655
889.511	14701
889.635	14533
889.759	14434
889.883	14434
890.006	14560
890.13	14503
890.254	14385
890.377	14385
890.501	14214
890.624	14161
890.748	14351
890.871	14229
890.995	14187
891.118	14027
891.241	14195
891.364	14210
891.488	14267
891.611	14130
891.734	14180
891.857	14256
891.98	14161
892.103	14225
892.226	14256
892.349	14199
892.471	14027
892.594	14145
892.717	14225
892.839	14134
892.962	14081
893.085	14149
893.207	14168
893.33	14024
893.452	14176
893.575	14100
893.697	14214
893.819	14294
893.941	14412
894.064	14339
894.186	14123
894.308	14153
894.43	14275
894.552	14336
894.674	14290
894.796	14145
894.918	14221
895.04	14233
895.161	14294
895.283	14225
895.405	14100
895.526	14248
895.648	14263
895.769	14271
895.891	14275
896.012	14434
896.134	14343
896.255	14290
896.376	14320
896.498	14328
896.619	14404
896.74	14347
896.861	14332
896.982	14594
897.103	14872
897.224	14655
897.345	14598
897.466	14549
897.587	14571
897.708	14746
897.828	14533
897.949	14568
898.07	14476
898.19	14560
898.311	14796
898.431	14613
898.552	14648
898.672	14682
898.792	14853
898.913	14712
899.033	14613
899.153	14484
899.273	14533
899.393	14454
899.513	14511
899.633	14541
899.753	14545
899.873	14465
899.993	14575
900.113	14495
900.232	14549
900.352	14617
900.472	14446
900.591	14404
900.711	14454
900.83	14362
900.95	14541
901.069	14530
901.189	14305
901.308	14123
901.427	14054
901.546	14069
901.665	14168
901.784	14065
901.904	13982
902.023	13967
902.141	13700
902.26	13563
902.379	13715
902.498	13689
902.617	13567
902.735	13723
902.854	13559
902.973	13483
903.091	13422
903.21	13304
903.328	13308
903.446	13259
903.565	13217
903.683	13236
903.801	13126
903.919	13190
904.038	13187
904.156	12993
904.274	13065
904.392	13080
904.51	12935
904.627	13103
904.745	13050
904.863	13072
904.981	12787
905.098	12715
905.216	12730
905.334	12779
905.451	12745
905.569	12665
905.686	12730
905.803	12650
905.921	12498
906.038	12646
906.155	12601
906.272	12414
906.389	12452
906.506	12258
906.623	12285
906.74	12350
906.857	12251
906.974	12171
907.091	12391
907.208	12399
907.324	12414
907.441	12251
907.557	12019
907.674	12083
907.79	11954
907.907	11973
908.023	12136
908.139	12026
908.256	12049
908.372	12026
908.488	11992
908.604	11866
908.72	11863
908.836	11802
908.952	11718
909.068	11843
909.184	11931
909.3	11809
909.415	11870
909.531	11958
909.647	11668
909.762	11646
909.878	11615
909.993	11543
910.108	11623
910.224	11581
910.339	11543
910.454	11436
910.57	11501
910.685	11318
910.8	11665
910.915	11539
911.03	11414
911.145	11307
911.259	11303
911.374	11318
911.489	11181
911.604	11178
911.718	11098
911.833	11052
911.947	10938
912.062	10835
912.176	11010
912.291	11018
912.405	11052
912.519	11250
912.633	11288
912.748	11136
912.862	11025
912.976	10961
913.09	10797
913.204	10862
913.318	10919
913.431	10953
913.545	10991
913.659	11045
913.772	10915
913.886	10778
914	10721
914.113	10862
914.226	10881
914.34	10862
914.453	10694
914.566	10850
914.68	10706
914.793	10736
914.906	10516
915.019	10447
915.132	10504
915.245	10512
915.358	10588
915.47	10523
915.583	10493
915.696	10668
915.809	10615
915.921	10577
916.034	10485
916.146	10523
916.259	10462
916.371	10569
916.483	10618
916.595	10417
916.708	10493
916.82	10500
916.932	10443
917.044	10481
917.156	10379
917.268	10287
917.38	10405
917.491	10386
917.603	10314
917.715	10447
917.826	10363
917.938	10386
918.049	10253
918.161	10325
918.272	10516
918.384	10554
918.495	10421
918.606	10295
918.717	10215
918.828	10291
918.939	10280
919.05	10097
919.161	10253
919.272	10051
919.383	10086
919.494	10371
919.604	10413
919.715	10291
919.826	10177
919.936	10246
920.047	10348
920.157	10265
920.267	10466
920.378	10242
920.488	10246
920.598	10421
920.708	10630
920.818	10451
920.928	10432
921.038	10656
921.148	10599
921.258	10322
921.368	10173
921.477	10143
921.587	10139
921.697	10071
921.806	10109
921.916	10029
922.025	9888
922.134	9884
922.244	9759
922.353	9880
922.462	9694
922.571	9606
922.68	9507
922.789	9511
922.898	9511
923.007	9435
923.116	9614
923.224	9473
923.333	9526
923.442	9496
923.55	9321
923.659	9348
923.767	9458
923.876	9317
923.984	9428
924.092	9344
924.201	9363
924.309	9317
924.417	9416
924.525	9294
924.633	9306
924.741	10230
924.849	9135
924.956	9317
925.064	9199
925.172	9089
925.279	9157
925.387	9180
925.494	9135
925.602	9291
925.709	9237
925.816	9169
925.924	9093
926.031	9169
926.138	9142
926.245	9211
926.352	9074
926.459	9165
926.566	9291
926.673	9154
926.779	9036
926.886	9093
926.993	8883
927.099	8823
927.206	8823
927.312	8849
927.419	8902
927.525	8887
927.631	8910
927.737	8815
927.843	8754
927.95	8625
928.056	8735
928.162	8777
928.267	8807
928.373	9321
928.479	8872
928.585	8686
928.69	8823
928.796	8811
928.901	8746
929.007	8590
929.112	8663
929.218	8640
929.323	8568
929.428	8552
929.533	8708
929.638	8495
929.743	8564
929.848	8632
929.953	8617
930.058	8495
930.163	8469
930.267	8362
930.372	8560
930.477	8313
930.581	8602
930.685	8358
930.79	8309
930.894	8404
930.998	8229
931.103	8431
931.207	8096
931.311	8065
931.415	8016
931.519	7799
931.623	7807
