Data from test_V78500241_3038.txt Node
Date: Fri Mar 25 14:54:52 CST 2022
User: usil
Spectrometer: V785-0024
Trigger mode: 0
Integration Time (sec): 4.000000E-1
Scans to average: 1
Nonlinearity correction enabled: false
Boxcar width: 0
Storing dark spectrum: false
XAxis mode: Wavelengths
Number of Pixels in Spectrum: 1024
>>>>>Begin Spectral Data<<<<<
801.071	22044
801.214	21945
801.356	21785
801.499	21633
801.641	21511
801.783	21496
801.926	21443
802.068	21420
802.211	21428
802.353	21321
802.496	21024
802.638	21020
802.78	20952
802.923	20895
803.065	20720
803.208	20750
803.35	20834
803.492	21032
803.635	20906
803.777	20762
803.919	20891
804.061	21123
804.204	20872
804.346	20781
804.488	20686
804.63	20785
804.773	20659
804.915	20686
805.057	20800
805.199	20648
805.341	20792
805.483	20663
805.626	20697
805.768	20705
805.91	20617
806.052	20682
806.194	20613
806.336	20815
806.478	20689
806.62	20655
806.762	20746
806.904	20895
807.046	21195
807.188	21047
807.33	20982
807.472	21192
807.614	20948
807.756	21017
807.898	20823
808.04	20830
808.182	20689
808.324	20819
808.465	20845
808.607	21005
808.749	21009
808.891	21131
809.033	21138
809.174	21146
809.316	21066
809.458	21112
809.6	21096
809.741	21066
809.883	21184
810.025	21146
810.166	21249
810.308	21195
810.45	21245
810.591	21112
810.733	20933
810.875	20785
811.016	20773
811.158	20670
811.299	20857
811.441	20998
811.582	20937
811.724	20914
811.865	20967
812.007	20933
812.148	20811
812.29	20868
812.431	21089
812.573	21203
812.714	21214
812.855	21351
812.997	21405
813.138	21504
813.279	21424
813.421	21389
813.562	21233
813.703	21138
813.845	21039
813.986	20708
814.127	20552
814.268	20492
814.41	20518
814.551	20419
814.692	20431
814.833	20347
814.974	20309
815.115	20301
815.256	20328
815.397	20237
815.539	20256
815.68	20142
815.821	20142
815.962	20172
816.103	20145
816.244	19986
816.385	19849
816.526	19852
816.666	19753
816.807	19540
816.948	19597
817.089	19689
817.23	19666
817.371	19594
817.512	19590
817.653	19502
817.793	19381
817.934	19430
818.075	19571
818.216	19426
818.356	19529
818.497	19312
818.638	19152
818.778	19255
818.919	19263
819.06	19194
819.2	19392
819.341	19460
819.481	19441
819.622	19613
819.762	19624
819.903	19590
820.043	19548
820.184	19487
820.324	19559
820.465	19472
820.605	19514
820.746	19381
820.886	19350
821.026	19373
821.167	19388
821.307	19594
821.447	19434
821.588	19354
821.728	19133
821.868	19050
822.008	18894
822.149	18920
822.289	18829
822.429	18635
822.569	18658
822.709	18532
822.849	18418
822.99	18433
823.13	18327
823.27	18369
823.41	18155
823.55	18155
823.69	18254
823.83	18140
823.97	18064
824.11	17904
824.25	18003
824.389	17923
824.529	17946
824.669	17965
824.809	18007
824.949	17961
825.089	18057
825.228	17912
825.368	17794
825.508	17729
825.648	17661
825.787	17745
825.927	17805
826.067	17821
826.206	17543
826.346	17836
826.485	17752
826.625	17764
826.765	17710
826.904	17764
827.044	17562
827.183	17524
827.323	17425
827.462	17482
827.601	17387
827.741	17478
827.88	17490
828.02	17204
828.159	17387
828.298	17398
828.437	17501
828.577	17372
828.716	17528
828.855	17395
828.994	17155
829.134	17143
829.273	17212
829.412	17162
829.551	17140
829.69	17193
829.829	17174
829.968	17258
830.107	17227
830.246	17216
830.385	17178
830.524	17121
830.663	16930
830.802	16820
830.941	16831
831.08	16653
831.219	16843
831.357	16790
831.496	16976
831.635	16702
831.774	16729
831.913	16748
832.051	16584
832.19	16561
832.329	16500
832.467	16485
832.606	16352
832.744	16451
832.883	16402
833.022	16443
833.16	16443
833.299	16527
833.437	16489
833.576	16413
833.714	16512
833.852	16478
833.991	16588
834.129	16508
834.267	16611
834.406	16451
834.544	16554
834.682	16596
834.821	16512
834.959	16622
835.097	16504
835.235	16626
835.373	16474
835.511	16542
835.65	16409
835.788	16466
835.926	16329
836.064	16135
836.202	16257
836.34	16417
836.478	16615
836.615	16447
836.753	16363
836.891	16504
837.029	16421
837.167	16333
837.305	16318
837.443	16284
837.58	16306
837.718	16379
837.856	16306
837.993	16185
838.131	16318
838.269	16177
838.406	16139
838.544	16287
838.681	16059
838.819	15945
838.956	15751
839.094	15804
839.231	15895
839.369	15953
839.506	16158
839.643	16040
839.781	15888
839.918	15747
840.055	15911
840.193	15842
840.33	15808
840.467	15705
840.604	15770
840.742	16067
840.879	15755
841.016	15728
841.153	15652
841.29	15884
841.427	15781
841.564	15728
841.701	15808
841.838	15812
841.975	15603
842.112	15663
842.249	15682
842.385	15595
842.522	15808
842.659	15629
842.796	15557
842.933	15572
843.069	15572
843.206	15614
843.343	15736
843.479	15523
843.616	15587
843.752	15397
843.889	15397
844.025	15500
844.162	15321
844.298	15344
844.435	15329
844.571	15321
844.708	15370
844.844	15382
844.98	15443
845.117	15473
845.253	15351
845.389	15264
845.525	15294
845.661	15298
845.798	15199
845.934	15173
846.07	15165
846.206	15112
846.342	15302
846.478	15188
846.614	14979
846.75	14887
846.886	14883
847.022	14929
847.158	14906
847.294	14960
847.429	14925
847.565	14952
847.701	15165
847.837	14720
847.972	14617
848.108	14697
848.244	14735
848.379	14640
848.515	14606
848.65	14533
848.786	14533
848.921	14568
849.057	14667
849.192	14648
849.328	14610
849.463	14564
849.598	14499
849.734	14351
849.869	14385
850.004	14362
850.14	14275
850.275	14385
850.41	14328
850.545	14164
850.68	14343
850.815	14332
850.95	14320
851.085	14473
851.22	14457
851.355	14313
851.49	14305
851.625	14183
851.76	14320
851.895	14145
852.03	14149
852.165	14218
852.299	14377
852.434	14423
852.569	14454
852.703	14400
852.838	14339
852.973	14537
853.107	14355
853.242	14237
853.376	14218
853.511	14065
853.645	14069
853.78	14275
853.914	14126
854.048	14225
854.183	14073
854.317	14191
854.451	14320
854.585	14195
854.72	14161
854.854	14263
854.988	14168
855.122	14168
855.256	14073
855.39	14168
855.524	14206
855.658	14259
855.792	14164
855.926	14187
856.06	14096
856.194	14286
856.327	14164
856.461	14092
856.595	14115
856.729	14046
856.862	14233
856.996	14233
857.13	14263
857.263	14271
857.397	14221
857.53	14229
857.664	14244
857.797	14218
857.931	14278
858.064	14130
858.197	14320
858.331	14161
858.464	14195
858.597	14031
858.731	14081
858.864	14168
858.997	14210
859.13	14218
859.263	14218
859.396	14244
859.529	14145
859.662	14046
859.795	14153
859.928	14214
860.061	14381
860.194	14278
860.327	14161
860.46	14214
860.592	14305
860.725	14290
860.858	14233
860.99	14111
861.123	14024
861.256	14039
861.388	14100
861.521	14876
861.653	14016
861.786	14126
861.918	14088
862.05	14073
862.183	14138
862.315	14199
862.447	14317
862.58	14119
862.712	13997
862.844	13936
862.976	13997
863.108	14050
863.24	14427
863.372	13814
863.504	13967
863.636	13932
863.768	14012
863.9	14016
864.032	13925
864.164	13936
864.296	13921
864.428	14107
864.559	14069
864.691	14027
864.823	14077
864.954	13940
865.086	13997
865.217	13982
865.349	13967
865.48	13951
865.612	13963
865.743	14069
865.875	13913
866.006	13871
866.137	14035
866.269	13909
866.4	13970
866.531	13944
866.662	13784
866.793	13928
866.924	13849
867.055	13986
867.186	13989
867.317	13811
867.448	13830
867.579	13898
867.71	13871
867.841	13898
867.972	13978
868.103	13909
868.233	13978
868.364	13871
868.495	14069
868.625	14176
868.756	14317
868.886	14081
869.017	14191
869.147	14225
869.278	14244
869.408	14161
869.539	14126
869.669	14259
869.799	14256
869.929	14317
870.06	14347
870.19	14549
870.32	14434
870.45	14522
870.58	14598
870.71	14659
870.84	14663
870.97	14632
871.1	14507
871.23	14731
871.36	14792
871.489	14731
871.619	14686
871.749	14762
871.879	14781
872.008	14899
872.138	14720
872.267	14800
872.397	14705
872.526	14659
872.656	14568
872.785	14613
872.915	14674
873.044	14880
873.173	14781
873.303	14971
873.432	14899
873.561	14941
873.69	14868
873.819	14910
873.948	14948
874.077	14944
874.206	14785
874.335	14857
874.464	15039
874.593	15104
874.722	14998
874.851	15157
874.979	15157
875.108	15169
875.237	15047
875.365	15066
875.494	15142
875.623	15226
875.751	15123
875.88	15146
876.008	15233
876.136	15329
876.265	15523
876.393	15724
876.521	15622
876.65	15663
876.778	15603
876.906	15637
877.034	15500
877.162	15553
877.29	15405
877.418	15584
877.546	15637
877.674	15743
877.802	15557
877.93	15492
878.058	15485
878.185	15473
878.313	15538
878.441	15576
878.568	15488
878.696	15458
878.824	15507
878.951	15641
879.079	15804
879.206	15983
879.333	15759
879.461	15629
879.588	15603
879.715	15831
879.842	15850
879.97	15663
880.097	15367
880.224	15481
880.351	15496
880.478	15393
880.605	15355
880.732	15435
880.859	15717
880.986	15492
881.112	15481
881.239	15348
881.366	15249
881.493	15123
881.619	15093
881.746	15089
881.872	15058
881.999	15116
882.125	15074
882.252	15131
882.378	15294
882.505	15268
882.631	15077
882.757	14979
882.883	14986
883.01	14887
883.136	14800
883.262	14830
883.388	14777
883.514	14914
883.64	14998
883.766	14918
883.892	14758
884.018	14823
884.143	14861
884.269	15070
884.395	14754
884.52	14610
884.646	14613
884.772	14587
884.897	14530
885.023	14598
885.148	14693
885.274	14819
885.399	14765
885.524	14613
885.65	14560
885.775	14556
885.9	14686
886.025	14781
886.15	14686
886.275	14587
886.4	14590
886.525	14522
886.65	14568
886.775	14613
886.9	14762
887.025	14853
887.149	14659
887.274	14385
887.399	14469
887.523	14404
887.648	14393
887.773	14370
887.897	14526
888.021	14590
888.146	14446
888.27	14606
888.395	14720
888.519	14484
888.643	14632
888.767	14602
888.891	14434
889.015	14309
889.139	14298
889.263	14244
889.387	14492
889.511	14758
889.635	14431
889.759	14294
889.883	14355
890.006	14389
890.13	14461
890.254	14267
890.377	14370
890.501	14180
890.624	14100
890.748	14145
890.871	14054
890.995	14001
891.118	13944
891.241	14058
891.364	14012
891.488	14157
891.611	14107
891.734	14043
891.857	14149
891.98	13955
892.103	14050
892.226	14005
892.349	13993
892.471	13909
892.594	13913
892.717	14035
892.839	13967
892.962	14103
893.085	14069
893.207	14084
893.33	13944
893.452	13925
893.575	14001
893.697	14081
893.819	14221
893.941	14187
894.064	14183
894.186	14069
894.308	13887
894.43	14206
894.552	14282
894.674	14103
894.796	14008
894.918	14035
895.04	14100
895.161	14206
895.283	14142
895.405	14046
895.526	14145
895.648	14126
895.769	14229
895.891	14077
896.012	14233
896.134	14218
896.255	14126
896.376	14103
896.498	14237
896.619	14229
896.74	14157
896.861	14286
896.982	14602
897.103	14636
897.224	14610
897.345	14461
897.466	14518
897.587	14473
897.708	14613
897.828	14541
897.949	14476
898.07	14400
898.19	14488
898.311	14644
898.431	14545
898.552	14499
898.672	14670
898.792	14636
898.913	14644
899.033	14602
899.153	14370
899.273	14309
899.393	14351
899.513	14518
899.633	14495
899.753	14431
899.873	14396
899.993	14537
900.113	14495
900.232	14480
900.352	14404
900.472	14339
900.591	14168
900.711	14358
900.83	14187
900.95	14362
901.069	14396
901.189	14244
901.308	14069
901.427	14008
901.546	13970
901.665	14077
901.784	14024
901.904	13890
902.023	13757
902.141	13590
902.26	13510
902.379	13499
902.498	13506
902.617	13514
902.735	13590
902.854	13434
902.973	13499
903.091	13369
903.21	13263
903.328	13213
903.446	13190
903.565	13168
903.683	13133
903.801	13012
903.919	13099
904.038	13080
904.156	12985
904.274	12996
904.392	12954
904.51	12916
904.627	12909
904.745	13031
904.863	12962
904.981	12738
905.098	12650
905.216	12620
905.334	12700
905.451	12608
905.569	12642
905.686	12589
905.803	12604
905.921	12494
906.038	12521
906.155	12445
906.272	12254
906.389	12346
906.506	12216
906.623	12292
906.74	12133
906.857	12060
906.974	12098
907.091	12270
907.208	12410
907.324	12209
907.441	12102
907.557	12003
907.674	11996
907.79	11832
907.907	11897
908.023	11954
908.139	11927
908.256	11904
908.372	11813
908.488	11901
908.604	11802
908.72	11668
908.836	11718
908.952	11684
909.068	11661
909.184	11855
909.3	11707
909.415	11676
909.531	11771
909.647	11463
909.762	11497
909.878	11417
909.993	11524
910.108	11455
910.224	11440
910.339	11509
910.454	11364
910.57	11364
910.685	11269
910.8	11463
910.915	11585
911.03	11387
911.145	11223
911.259	11132
911.374	11128
911.489	11086
911.604	11109
911.718	10934
911.833	10911
911.947	10850
912.062	10733
912.176	10953
912.291	11006
912.405	10987
912.519	11083
912.633	11189
912.748	11083
912.862	10946
912.976	10831
913.09	10641
913.204	10774
913.318	10763
913.431	10930
913.545	10919
913.659	10976
913.772	10831
913.886	10653
914	10675
914.113	10729
914.226	10847
914.34	10740
914.453	10603
914.566	10801
914.68	10649
914.793	10668
914.906	10485
915.019	10424
915.132	10272
915.245	10504
915.358	10459
915.47	10462
915.583	10478
915.696	10478
915.809	10626
915.921	10596
916.034	10489
916.146	10443
916.259	10470
916.371	10462
916.483	10497
916.595	10333
916.708	10432
916.82	10432
916.932	10314
917.044	10219
917.156	10295
917.268	10276
917.38	10280
917.491	10200
917.603	10337
917.715	10371
917.826	10371
917.938	10284
918.049	10158
918.161	10333
918.272	10466
918.384	10413
918.495	10333
918.606	10071
918.717	10086
918.828	10162
918.939	10257
919.05	10078
919.161	10135
919.272	9956
919.383	9987
919.494	10192
919.604	10421
919.715	10173
919.826	10128
919.936	10128
920.047	10310
920.157	10173
920.267	10440
920.378	10261
920.488	10162
920.598	10337
920.708	10462
920.818	10421
920.928	10375
921.038	10542
921.148	10413
921.258	10238
921.368	10173
921.477	10093
921.587	9956
921.697	10017
921.806	10044
921.916	9880
922.025	9686
922.134	9717
922.244	9698
922.353	9717
922.462	9595
922.571	9644
922.68	9519
922.789	9431
922.898	9481
923.007	9401
923.116	9504
923.224	9412
923.333	9344
923.442	9313
923.55	9313
923.659	9370
923.767	9351
923.876	9256
923.984	9313
924.092	9127
924.201	9370
924.309	9226
924.417	9241
924.525	9245
924.633	9249
924.741	10238
924.849	9116
924.956	9264
925.064	9077
925.172	8982
925.279	9013
925.387	9028
925.494	9116
925.602	9249
925.709	9146
925.816	9009
925.924	9028
926.031	9218
926.138	9081
926.245	9093
926.352	9055
926.459	9173
926.566	9233
926.673	9077
926.779	8952
926.886	8933
926.993	8853
927.099	8880
927.206	8716
927.312	8720
927.419	8849
927.525	8834
927.631	8914
927.737	8701
927.843	8758
927.95	8636
928.056	8659
928.162	8651
928.267	8720
928.373	9253
928.479	8880
928.585	8530
928.69	8815
928.796	8712
928.901	8667
929.007	8412
929.112	8537
929.218	8663
929.323	8552
929.428	8537
929.533	8659
929.638	8598
929.743	8495
929.848	8579
929.953	8492
930.058	8446
930.163	8336
930.267	8343
930.372	8408
930.477	8248
930.581	8457
930.685	8381
930.79	8279
930.894	8271
930.998	8256
931.103	8332
931.207	8069
931.311	7932
931.415	7883
931.519	7738
931.623	7734
