Data from test_V78500241_2653.txt Node
Date: Fri Mar 25 14:52:11 CST 2022
User: usil
Spectrometer: V785-0024
Trigger mode: 0
Integration Time (sec): 4.000000E-1
Scans to average: 1
Nonlinearity correction enabled: false
Boxcar width: 0
Storing dark spectrum: false
XAxis mode: Wavelengths
Number of Pixels in Spectrum: 1024
>>>>>Begin Spectral Data<<<<<
801.071	21918
801.214	21846
801.356	21576
801.499	21606
801.641	21325
801.783	21306
801.926	21424
802.068	21245
802.211	21230
802.353	21096
802.496	20906
802.638	20918
802.78	20785
802.923	20807
803.065	20705
803.208	20533
803.35	20678
803.492	20746
803.635	20765
803.777	20678
803.919	20815
804.061	21013
804.204	20754
804.346	20594
804.488	20621
804.63	20682
804.773	20545
804.915	20678
805.057	20632
805.199	20651
805.341	20617
805.483	20663
805.626	20693
805.768	20629
805.91	20533
806.052	20621
806.194	20511
806.336	20682
806.478	20571
806.62	20602
806.762	20648
806.904	20689
807.046	21005
807.188	20910
807.33	20883
807.472	21024
807.614	20758
807.756	20883
807.898	20708
808.04	20644
808.182	20644
808.324	20712
808.465	20830
808.607	20868
808.749	20971
808.891	21070
809.033	21093
809.174	21070
809.316	20929
809.458	20880
809.6	20941
809.741	21093
809.883	21077
810.025	21207
810.166	21127
810.308	20998
810.45	21009
810.591	20952
810.733	20762
810.875	20632
811.016	20640
811.158	20499
811.299	20788
811.441	20804
811.582	20807
811.724	20697
811.865	20739
812.007	20590
812.148	20743
812.29	20644
812.431	20895
812.573	20986
812.714	21051
812.855	21192
812.997	21458
813.138	21469
813.279	21233
813.421	21157
813.562	21180
813.703	20971
813.845	20731
813.986	20552
814.127	20434
814.268	20362
814.41	20427
814.551	20309
814.692	20278
814.833	20225
814.974	20271
815.115	20263
815.256	20073
815.397	20077
815.539	20073
815.68	20054
815.821	19940
815.962	19982
816.103	19951
816.244	19791
816.385	19715
816.526	19837
816.666	19693
816.807	19499
816.948	19468
817.089	19537
817.23	19480
817.371	19365
817.512	19445
817.653	19426
817.793	19320
817.934	19453
818.075	19403
818.216	19381
818.356	19289
818.497	19251
818.638	19046
818.778	19080
818.919	19171
819.06	19129
819.2	19148
819.341	19240
819.481	19266
819.622	19415
819.762	19548
819.903	19575
820.043	19480
820.184	19438
820.324	19354
820.465	19388
820.605	19354
820.746	19415
820.886	19183
821.026	19422
821.167	19392
821.307	19388
821.447	19354
821.588	19209
821.728	19091
821.868	18848
822.008	18741
822.149	18848
822.289	18749
822.429	18555
822.569	18357
822.709	18464
822.849	18232
822.99	18205
823.13	18266
823.27	18121
823.41	18148
823.55	18079
823.69	18129
823.83	18110
823.97	17912
824.11	17901
824.25	17916
824.389	17927
824.529	17927
824.669	17840
824.809	17828
824.949	17916
825.089	17969
825.228	17863
825.368	17573
825.508	17642
825.648	17805
825.787	17600
825.927	17786
826.067	17649
826.206	17611
826.346	17585
826.485	17615
826.625	17551
826.765	17676
826.904	17676
827.044	17478
827.183	17417
827.323	17353
827.462	17318
827.601	17311
827.741	17341
827.88	17269
828.02	17292
828.159	17341
828.298	17353
828.437	17334
828.577	17391
828.716	17433
828.855	17395
828.994	17136
829.134	17189
829.273	17098
829.412	17025
829.551	17048
829.69	17075
829.829	17143
829.968	17117
830.107	17162
830.246	17086
830.385	17075
830.524	16961
830.663	16961
830.802	16858
830.941	16649
831.08	16748
831.219	16828
831.357	16763
831.496	17006
831.635	16588
831.774	16664
831.913	16546
832.051	16535
832.19	16546
832.329	16584
832.467	16443
832.606	16371
832.744	16306
832.883	16314
833.022	16405
833.16	16447
833.299	16382
833.437	16382
833.576	16527
833.714	16519
833.852	16546
833.991	16447
834.129	16580
834.267	16523
834.406	16344
834.544	16538
834.682	16538
834.821	16512
834.959	16702
835.097	16436
835.235	16523
835.373	16527
835.511	16531
835.65	16485
835.788	16413
835.926	16268
836.064	16219
836.202	16230
836.34	16489
836.478	16565
836.615	16363
836.753	16390
836.891	16432
837.029	16440
837.167	16367
837.305	16356
837.443	16337
837.58	16291
837.718	16367
837.856	16360
837.993	16147
838.131	16268
838.269	16173
838.406	16280
838.544	16124
838.681	16032
838.819	15945
838.956	15759
839.094	15793
839.231	15812
839.369	15915
839.506	16272
839.643	16135
839.781	15854
839.918	15793
840.055	15880
840.193	15793
840.33	15846
840.467	15797
840.604	15812
840.742	16044
840.879	15599
841.016	15759
841.153	15747
841.29	15937
841.427	15876
841.564	15865
841.701	15850
841.838	15800
841.975	15629
842.112	15785
842.249	15595
842.385	15545
842.522	15739
842.659	15633
842.796	15549
842.933	15686
843.069	15549
843.206	15557
843.343	15717
843.479	15747
843.616	15633
843.752	15401
843.889	15370
844.025	15679
844.162	15382
844.298	15580
844.435	15408
844.571	15454
844.708	15412
844.844	15713
844.98	15599
845.117	15507
845.253	15355
845.389	15321
845.525	15226
845.661	15294
845.798	15119
845.934	15207
846.07	15207
846.206	15340
846.342	15294
846.478	15195
846.614	14948
846.75	14948
846.886	14971
847.022	15123
847.158	14941
847.294	14982
847.429	14944
847.565	14944
847.701	15275
847.837	14792
847.972	14689
848.108	14830
848.244	14769
848.379	14651
848.515	14552
848.65	14507
848.786	14541
848.921	14571
849.057	14727
849.192	14716
849.328	14442
849.463	14552
849.598	14457
849.734	14457
849.869	14423
850.004	14301
850.14	14484
850.275	14370
850.41	14320
850.545	14298
850.68	14275
850.815	14423
850.95	14328
851.085	14499
851.22	14454
851.355	14396
851.49	14324
851.625	14199
851.76	14301
851.895	14168
852.03	14176
852.165	14298
852.299	14320
852.434	14454
852.569	14457
852.703	14396
852.838	14355
852.973	14488
853.107	14514
853.242	14237
853.376	14271
853.511	14138
853.645	14168
853.78	14374
853.914	14225
854.048	14195
854.183	14187
854.317	14202
854.451	14419
854.585	14240
854.72	14145
854.854	14275
854.988	14062
855.122	14248
855.256	14039
855.39	14180
855.524	14374
855.658	14210
855.792	14202
855.926	14229
856.06	14317
856.194	14301
856.327	14237
856.461	14149
856.595	14153
856.729	14134
856.862	14370
856.996	14221
857.13	14320
857.263	14286
857.397	14446
857.53	14214
857.664	14275
857.797	14324
857.931	14396
858.064	14221
858.197	14313
858.331	14248
858.464	14164
858.597	14084
858.731	14183
858.864	14218
858.997	14225
859.13	14130
859.263	14271
859.396	14290
859.529	14256
859.662	14240
859.795	14187
859.928	14191
860.061	14290
860.194	14408
860.327	14248
860.46	14282
860.592	14404
860.725	14286
860.858	14305
860.99	14180
861.123	14050
861.256	14237
861.388	14244
861.521	14765
861.653	14145
861.786	14024
861.918	14111
862.05	14187
862.183	14263
862.315	14145
862.447	14195
862.58	14278
862.712	13963
862.844	13921
862.976	14088
863.108	14043
863.24	14419
863.372	13947
863.504	13951
863.636	14073
863.768	14008
863.9	13997
864.032	13928
864.164	13963
864.296	14058
864.428	14084
864.559	14092
864.691	14039
864.823	13993
864.954	13993
865.086	14020
865.217	14058
865.349	13902
865.48	13978
865.612	14027
865.743	14100
865.875	13955
866.006	13947
866.137	14008
866.269	13883
866.4	13925
866.531	13986
866.662	13978
866.793	13940
866.924	13963
867.055	13890
867.186	13811
867.317	13944
867.448	13925
867.579	13871
867.71	13864
867.841	13841
867.972	14043
868.103	13967
868.233	13974
868.364	14008
868.495	14138
868.625	14206
868.756	14278
868.886	14191
869.017	14221
869.147	14347
869.278	14351
869.408	14210
869.539	14252
869.669	14317
869.799	14336
869.929	14332
870.06	14358
870.19	14621
870.32	14469
870.45	14564
870.58	14651
870.71	14697
870.84	14727
870.97	14701
871.1	14640
871.23	14880
871.36	14853
871.489	14781
871.619	14819
871.749	14807
871.879	14830
872.008	15032
872.138	14811
872.267	14731
872.397	14743
872.526	14644
872.656	14712
872.785	14697
872.915	14944
873.044	14914
873.173	14918
873.303	15020
873.432	14899
873.561	14990
873.69	14845
873.819	14807
873.948	14971
874.077	14944
874.206	14815
874.335	14944
874.464	15039
874.593	15173
874.722	15154
874.851	15226
874.979	15233
875.108	15256
875.237	15180
875.365	15165
875.494	15074
875.623	15218
875.751	15218
875.88	15150
876.008	15344
876.136	15496
876.265	15576
876.393	15800
876.521	15603
876.65	15663
876.778	15534
876.906	15572
877.034	15500
877.162	15584
877.29	15595
877.418	15675
877.546	15622
877.674	15614
877.802	15545
877.93	15568
878.058	15515
878.185	15519
878.313	15580
878.441	15538
878.568	15447
878.696	15542
878.824	15603
878.951	15709
879.079	15797
879.206	15930
879.333	15797
879.461	15679
879.588	15720
879.715	15884
879.842	15876
879.97	15720
880.097	15549
880.224	15370
880.351	15488
880.478	15488
880.605	15408
880.732	15325
880.859	15663
880.986	15523
881.112	15431
881.239	15367
881.366	15294
881.493	15226
881.619	15108
881.746	15066
881.872	15146
881.999	15081
882.125	15100
882.252	15154
882.378	15173
882.505	15298
882.631	15135
882.757	15001
882.883	15138
883.01	15013
883.136	14861
883.262	14788
883.388	14842
883.514	14990
883.64	15020
883.766	14887
883.892	14655
884.018	14811
884.143	15085
884.269	15024
884.395	14678
884.52	14629
884.646	14670
884.772	14571
884.897	14552
885.023	14644
885.148	14773
885.274	14823
885.399	14670
885.524	14663
885.65	14674
885.775	14667
885.9	14606
886.025	14800
886.15	14667
886.275	14587
886.4	14575
886.525	14667
886.65	14644
886.775	14564
886.9	14777
887.025	14906
887.149	14708
887.274	14431
887.399	14381
887.523	14419
887.648	14446
887.773	14355
887.897	14537
888.021	14530
888.146	14415
888.27	14644
888.395	14560
888.519	14583
888.643	14514
888.767	14549
888.891	14454
889.015	14324
889.139	14381
889.263	14282
889.387	14488
889.511	14587
889.635	14522
889.759	14374
889.883	14214
890.006	14305
890.13	14351
890.254	14271
890.377	14229
890.501	14157
890.624	14202
890.748	14244
890.871	14035
890.995	13955
891.118	13959
891.241	13997
891.364	14084
891.488	14145
891.611	14039
891.734	14043
891.857	14126
891.98	13947
892.103	14058
892.226	14084
892.349	14050
892.471	13967
892.594	14027
892.717	14039
892.839	14088
892.962	14012
893.085	14210
893.207	14031
893.33	13997
893.452	13982
893.575	14157
893.697	13963
893.819	14183
893.941	14313
894.064	14240
894.186	14065
894.308	13978
894.43	14180
894.552	14191
894.674	14172
894.796	13963
894.918	14126
895.04	14183
895.161	14081
895.283	14145
895.405	14092
895.526	14107
895.648	14088
895.769	14176
895.891	14267
896.012	14237
896.134	14161
896.255	14343
896.376	14065
896.498	14202
896.619	14374
896.74	14256
896.861	14275
896.982	14640
897.103	14727
897.224	14503
897.345	14530
897.466	14396
897.587	14495
897.708	14602
897.828	14594
897.949	14419
898.07	14389
898.19	14454
898.311	14651
898.431	14450
898.552	14522
898.672	14697
898.792	14617
898.913	14579
899.033	14507
899.153	14446
899.273	14347
899.393	14385
899.513	14499
899.633	14423
899.753	14404
899.873	14469
899.993	14423
900.113	14442
900.232	14507
900.352	14434
900.472	14450
900.591	14214
900.711	14271
900.83	14267
900.95	14396
901.069	14324
901.189	14248
901.308	13993
901.427	13902
901.546	14024
901.665	13986
901.784	13974
901.904	13780
902.023	13715
902.141	13605
902.26	13499
902.379	13643
902.498	13559
902.617	13548
902.735	13552
902.854	13499
902.973	13426
903.091	13289
903.21	13133
903.328	13240
903.446	13164
903.565	13042
903.683	13122
903.801	12993
903.919	13015
904.038	13053
904.156	13027
904.274	12993
904.392	12890
904.51	12863
904.627	12859
904.745	12958
904.863	13046
904.981	12787
905.098	12582
905.216	12681
905.334	12601
905.451	12646
905.569	12608
905.686	12620
905.803	12574
905.921	12475
906.038	12517
906.155	12429
906.272	12323
906.389	12319
906.506	12224
906.623	12194
906.74	12216
906.857	12167
906.974	12072
907.091	12330
907.208	12296
907.324	12262
907.441	12209
907.557	11996
907.674	11973
907.79	11908
907.907	11939
908.023	11920
908.139	11908
908.256	11893
908.372	11821
908.488	11901
908.604	11726
908.72	11638
908.836	11786
908.952	11627
909.068	11726
909.184	11866
909.3	11741
909.415	11802
909.531	11680
909.647	11570
909.762	11440
909.878	11436
909.993	11554
910.108	11467
910.224	11376
910.339	11497
910.454	11372
910.57	11376
910.685	11296
910.8	11570
910.915	11512
911.03	11421
911.145	11166
911.259	11166
911.374	11170
911.489	11094
911.604	11041
911.718	10930
911.833	10946
911.947	10839
912.062	10740
912.176	10854
912.291	10911
912.405	10957
912.519	11197
912.633	11136
912.748	11052
912.862	11029
912.976	10816
913.09	10744
913.204	10820
913.318	10805
913.431	10900
913.545	10953
913.659	10938
913.772	10843
913.886	10721
914	10714
914.113	10835
914.226	10790
914.34	10634
914.453	10611
914.566	10809
914.68	10660
914.793	10645
914.906	10459
915.019	10512
915.132	10371
915.245	10348
915.358	10485
915.47	10512
915.583	10455
915.696	10451
915.809	10580
915.921	10538
916.034	10478
916.146	10382
916.259	10375
916.371	10474
916.483	10432
916.595	10333
916.708	10405
916.82	10413
916.932	10379
917.044	10341
917.156	10314
917.268	10284
917.38	10325
917.491	10265
917.603	10318
917.715	10352
917.826	10424
917.938	10299
918.049	10177
918.161	10265
918.272	10432
918.384	10390
918.495	10356
918.606	10078
918.717	10101
918.828	10185
918.939	10147
919.05	10017
919.161	10204
919.272	10010
919.383	10013
919.494	10261
919.604	10417
919.715	10223
919.826	10051
919.936	10147
920.047	10246
920.157	10166
920.267	10325
920.378	10230
920.488	10196
920.598	10390
920.708	10489
920.818	10379
920.928	10356
921.038	10512
921.148	10447
921.258	10192
921.368	10158
921.477	10112
921.587	10090
921.697	9975
921.806	10055
921.916	9953
922.025	9759
922.134	9743
922.244	9728
922.353	9812
922.462	9629
922.571	9568
922.68	9401
922.789	9473
922.898	9485
923.007	9317
923.116	9458
923.224	9477
923.333	9401
923.442	9336
923.55	9268
923.659	9370
923.767	9363
923.876	9283
923.984	9393
924.092	9313
924.201	9321
924.309	9359
924.417	9378
924.525	9268
924.633	9321
924.741	10044
924.849	9157
924.956	9214
925.064	9077
925.172	9017
925.279	9051
925.387	9188
925.494	9097
925.602	9211
925.709	9165
925.816	9020
925.924	9123
926.031	9169
926.138	9127
926.245	9211
926.352	9032
926.459	9203
926.566	9237
926.673	8990
926.779	8998
926.886	8925
926.993	8857
927.099	8758
927.206	8819
927.312	8746
927.419	8819
927.525	8773
927.631	8864
927.737	8769
927.843	8678
927.95	8560
928.056	8697
928.162	8720
928.267	8788
928.373	9355
928.479	8746
928.585	8594
928.69	8739
928.796	8632
928.901	8655
929.007	8434
929.112	8617
929.218	8514
929.323	8594
929.428	8518
929.533	8705
929.638	8492
929.743	8450
929.848	8560
929.953	8530
930.058	8377
930.163	8256
930.267	8237
930.372	8454
930.477	8282
930.581	8495
930.685	8374
930.79	8221
930.894	8286
930.998	8172
931.103	8347
931.207	8024
931.311	7944
931.415	7894
931.519	7765
931.623	7792
