Data from test_V78500241_625.txt Node
Date: Fri Mar 25 14:38:04 CST 2022
User: usil
Spectrometer: V785-0024
Trigger mode: 0
Integration Time (sec): 4.000000E-1
Scans to average: 1
Nonlinearity correction enabled: false
Boxcar width: 0
Storing dark spectrum: false
XAxis mode: Wavelengths
Number of Pixels in Spectrum: 1024
>>>>>Begin Spectral Data<<<<<
801.071	27918
801.214	27945
801.356	27416
801.499	27553
801.641	27424
801.783	27287
801.926	27264
802.068	27230
802.211	27108
802.353	27093
802.496	26952
802.638	26826
802.78	26842
802.923	26796
803.065	26731
803.208	26914
803.35	26777
803.492	26952
803.635	27013
803.777	27024
803.919	26899
804.061	27169
804.204	27096
804.346	26853
804.488	27051
804.63	27104
804.773	27024
804.915	27222
805.057	27135
805.199	27180
805.341	27313
805.483	27355
805.626	27355
805.768	27447
805.91	27462
806.052	27667
806.194	27591
806.336	27987
806.478	28025
806.62	28055
806.762	28375
806.904	28710
807.046	29178
807.188	29379
807.33	29741
807.472	30205
807.614	30525
807.756	31297
807.898	32043
808.04	33291
808.182	34820
808.324	36840
808.465	38971
808.607	41512
808.749	43750
808.891	45237
809.033	45256
809.174	43822
809.316	41627
809.458	39108
809.6	36513
809.741	34356
809.883	32948
810.025	31723
810.166	30924
810.308	30403
810.45	29897
810.591	29421
810.733	28995
810.875	28656
811.016	28470
811.158	28226
811.299	28246
811.441	28204
811.582	28101
811.724	27964
811.865	27713
812.007	27698
812.148	27614
812.29	27751
812.431	27827
812.573	27743
812.714	27728
812.855	27926
812.997	28010
813.138	28093
813.279	27895
813.421	27797
813.562	27698
813.703	27481
813.845	27420
813.986	27039
814.127	26857
814.268	26804
814.41	26746
814.551	26632
814.692	26735
814.833	26571
814.974	26408
815.115	26541
815.256	26381
815.397	26374
815.539	26438
815.68	26419
815.821	26130
815.962	26218
816.103	26145
816.244	26043
816.385	25875
816.526	25830
816.666	25780
816.807	25582
816.948	25643
817.089	25696
817.23	25559
817.371	25502
817.512	25415
817.653	25544
817.793	25320
817.934	25491
818.075	25479
818.216	25502
818.356	25308
818.497	25209
818.638	25187
818.778	25202
818.919	25152
819.06	25198
819.2	25468
819.341	25453
819.481	25320
819.622	25468
819.762	25643
819.903	25571
820.043	25506
820.184	25445
820.324	25419
820.465	25369
820.605	25335
820.746	25324
820.886	25148
821.026	25316
821.167	25244
821.307	25316
821.447	25160
821.588	24954
821.728	24886
821.868	24783
822.008	24544
822.149	24703
822.289	24669
822.429	24334
822.569	24232
822.709	24338
822.849	24114
822.99	24129
823.13	24087
823.27	24041
823.41	23874
823.55	23824
823.69	23969
823.83	23897
823.97	23722
824.11	23687
824.25	23596
824.389	23676
824.529	23699
824.669	23600
824.809	23809
824.949	23657
825.089	23710
825.228	23596
825.368	23311
825.508	23436
825.648	23539
825.787	23433
825.927	23429
826.067	23273
826.206	23337
826.346	23433
826.485	23474
826.625	23349
826.765	23425
826.904	23440
827.044	23197
827.183	23086
827.323	23083
827.462	23071
827.601	22987
827.741	23143
827.88	23052
828.02	22980
828.159	22984
828.298	23140
828.437	22885
828.577	23067
828.716	23121
828.855	22991
828.994	22664
829.134	22816
829.273	22816
829.412	22675
829.551	22634
829.69	22710
829.829	22721
829.968	22782
830.107	22679
830.246	22759
830.385	22706
830.524	22656
830.663	22519
830.802	22421
830.941	22341
831.08	22348
831.219	22402
831.357	22470
831.496	22466
831.635	22363
831.774	22291
831.913	22253
832.051	22253
832.19	22150
832.329	22090
832.467	22143
832.606	22067
832.744	22078
832.883	22093
833.022	22177
833.16	22188
833.299	22291
833.437	22428
833.576	22618
833.714	22721
833.852	22858
833.991	22862
834.129	22972
834.267	23025
834.406	22881
834.544	22946
834.682	22736
834.821	22698
834.959	22733
835.097	22611
835.235	22413
835.373	22314
835.511	22204
835.65	22112
835.788	22131
835.926	21964
836.064	21781
836.202	21686
836.34	21907
836.478	21899
836.615	21743
836.753	21892
836.891	21865
837.029	21816
837.167	21797
837.305	21705
837.443	21694
837.58	21633
837.718	21827
837.856	21534
837.993	21614
838.131	21530
838.269	21496
838.406	21519
838.544	21466
838.681	21306
838.819	21199
838.956	21051
839.094	21127
839.231	21131
839.369	21154
839.506	21393
839.643	21169
839.781	21024
839.918	20815
840.055	20975
840.193	20956
840.33	20960
840.467	21047
840.604	21047
840.742	21279
840.879	20906
841.016	20918
841.153	20887
841.29	21089
841.427	20948
841.564	20998
841.701	20994
841.838	20914
841.975	20861
842.112	20937
842.249	20819
842.385	20708
842.522	21017
842.659	20910
842.796	20682
842.933	20754
843.069	20845
843.206	20811
843.343	20986
843.479	20842
843.616	20883
843.752	20701
843.889	20868
844.025	20986
844.162	20811
844.298	21036
844.435	21043
844.571	21150
844.708	21351
844.844	21819
844.98	22074
845.117	22508
845.253	23121
845.389	24612
845.525	27180
845.661	31499
845.798	36635
845.934	40805
846.07	42277
846.206	41216
846.342	37947
846.478	32613
846.614	28147
846.75	25080
846.886	23303
847.022	22246
847.158	21606
847.294	21154
847.429	20891
847.565	20621
847.701	20842
847.837	20161
847.972	20092
848.108	20119
848.244	20084
848.379	19890
848.515	19776
848.65	19750
848.786	19696
848.921	19799
849.057	19769
849.192	19723
849.328	19719
849.463	19700
849.598	19632
849.734	19594
849.869	19590
850.004	19407
850.14	19331
850.275	19491
850.41	19259
850.545	19324
850.68	19400
850.815	19381
850.95	19232
851.085	19430
851.22	19392
851.355	19388
851.49	19316
851.625	19358
851.76	19213
851.895	19278
852.03	19114
852.165	19426
852.299	19346
852.434	19441
852.569	19563
852.703	19354
852.838	19419
852.973	19628
853.107	19419
853.242	19426
853.376	19285
853.511	19168
853.645	19304
853.78	19506
853.914	19445
854.048	19403
854.183	19453
854.317	19506
854.451	19613
854.585	19460
854.72	19449
854.854	19464
854.988	19373
855.122	19285
855.256	19152
855.39	19358
855.524	19358
855.658	19327
855.792	19350
855.926	19202
856.06	19301
856.194	19274
856.327	19103
856.461	19103
856.595	19107
856.729	19088
856.862	19164
856.996	19225
857.13	19213
857.263	19209
857.397	19164
857.53	18939
857.664	19156
857.797	19255
857.931	19255
858.064	19080
858.197	19164
858.331	19107
858.464	18989
858.597	18886
858.731	18939
858.864	19000
858.997	18985
859.13	19168
859.263	19000
859.396	19122
859.529	19053
859.662	18856
859.795	18943
859.928	19000
860.061	19137
860.194	19217
860.327	19031
860.46	19004
860.592	19023
860.725	19133
860.858	19141
860.99	19023
861.123	18875
861.256	18867
861.388	18954
861.521	19594
861.653	18806
861.786	18692
861.918	18935
862.05	18901
862.183	18981
862.315	18920
862.447	19057
862.58	18970
862.712	18696
862.844	18852
862.976	18833
863.108	18734
863.24	18993
863.372	18749
863.504	18631
863.636	18597
863.768	18749
863.9	18684
864.032	18639
864.164	18536
864.296	18738
864.428	18738
864.559	18555
864.691	18681
864.823	18741
864.954	18688
865.086	18563
865.217	18623
865.349	18585
865.48	18654
865.612	18665
865.743	18745
865.875	18536
866.006	18608
866.137	18642
866.269	18650
866.4	18559
866.531	18525
866.662	18448
866.793	18475
866.924	18517
867.055	18601
867.186	18441
867.317	18486
867.448	18528
867.579	18498
867.71	18464
867.841	18391
867.972	18589
868.103	18464
868.233	18551
868.364	18593
868.495	18608
868.625	18757
868.756	18772
868.886	18768
869.017	18886
869.147	18833
869.278	18798
869.408	18859
869.539	18772
869.669	18939
869.799	18890
869.929	18966
870.06	18985
870.19	19168
870.32	19084
870.45	19247
870.58	19266
870.71	19343
870.84	19293
870.97	19187
871.1	19175
871.23	19472
871.36	19514
871.489	19331
871.619	19483
871.749	19422
871.879	19460
872.008	19537
872.138	19487
872.267	19499
872.397	19365
872.526	19392
872.656	19438
872.785	19407
872.915	19597
873.044	19681
873.173	19506
873.303	19715
873.432	19677
873.561	19860
873.69	19746
873.819	19700
873.948	19799
874.077	19643
874.206	19791
874.335	19761
874.464	19902
874.593	20084
874.722	20126
874.851	20225
874.979	20172
875.108	20210
875.237	20153
875.365	20210
875.494	20195
875.623	20305
875.751	20278
875.88	20343
876.008	20461
876.136	20659
876.265	20880
876.393	21036
876.521	20937
876.65	21009
876.778	21093
876.906	21066
877.034	21074
877.162	21150
877.29	21108
877.418	21218
877.546	21397
877.674	21355
877.802	21466
877.93	21614
878.058	21660
878.185	21804
878.313	22090
878.441	22405
878.568	22565
878.696	22984
878.824	23714
878.951	24437
879.079	25594
879.206	27344
879.333	28968
879.461	30201
879.588	31107
879.715	31084
879.842	30505
879.97	28995
880.097	27127
880.224	25951
880.351	25137
880.478	24388
880.605	23901
880.732	23733
880.859	23634
880.986	23440
881.112	23345
881.239	23048
881.366	23022
881.493	22999
881.619	22866
881.746	22854
881.872	22927
881.999	22892
882.125	22790
882.252	22995
882.378	22995
882.505	23060
882.631	22824
882.757	22816
882.883	22843
883.01	22820
883.136	22744
883.262	22778
883.388	22569
883.514	22774
883.64	22767
883.766	22759
883.892	22432
884.018	22626
884.143	22668
884.269	22854
884.395	22599
884.52	22428
884.646	22386
884.772	22466
884.897	22421
885.023	22481
885.148	22542
885.274	22489
885.399	22497
885.524	22287
885.65	22249
885.775	22082
885.9	22025
886.025	21953
886.15	21926
886.275	21652
886.4	21428
886.525	21492
886.65	21256
886.775	21203
886.9	21359
887.025	21386
887.149	20963
887.274	20781
887.399	20712
887.523	20746
887.648	20476
887.773	20423
887.897	20590
888.021	20454
888.146	20419
888.27	20476
888.395	20389
888.519	20305
888.643	20244
888.767	20336
888.891	20126
889.015	19864
889.139	19856
889.263	19890
889.387	19860
889.511	19986
889.635	19917
889.759	19822
889.883	19791
890.006	19818
890.13	19719
890.254	19624
890.377	19662
890.501	19491
890.624	19358
890.748	19472
890.871	19225
890.995	19148
891.118	19061
891.241	19107
891.364	19141
891.488	19129
891.611	19069
891.734	19103
891.857	19088
891.98	19076
892.103	19076
892.226	18951
892.349	18859
892.471	18715
892.594	18757
892.717	18886
892.839	18802
892.962	18779
893.085	18791
893.207	18673
893.33	18738
893.452	18627
893.575	18734
893.697	18608
893.819	18741
893.941	18791
894.064	18806
894.186	18460
894.308	18582
894.43	18601
894.552	18669
894.674	18551
894.796	18376
894.918	18528
895.04	18414
895.161	18555
895.283	18540
895.405	18353
895.526	18399
895.648	18429
895.769	18448
895.891	18486
896.012	18467
896.134	18399
896.255	18437
896.376	18338
896.498	18388
896.619	18506
896.74	18365
896.861	18464
896.982	18734
897.103	18795
897.224	18669
897.345	18604
897.466	18559
897.587	18623
897.708	18707
897.828	18555
897.949	18525
898.07	18365
898.19	18498
898.311	18635
898.431	18517
898.552	18608
898.672	18601
898.792	18616
898.913	18517
899.033	18437
899.153	18327
899.273	18270
899.393	18380
899.513	18330
899.633	18403
899.753	18353
899.873	18232
899.993	18247
900.113	18254
900.232	18262
900.352	18353
900.472	18232
900.591	18106
900.711	18254
900.83	18171
900.95	18129
901.069	18319
901.189	18038
901.308	17942
901.427	17752
901.546	17726
901.665	17680
901.784	17764
901.904	17566
902.023	17486
902.141	17242
902.26	17200
902.379	17292
902.498	17227
902.617	17151
902.735	17353
902.854	17117
902.973	17147
903.091	16797
903.21	16831
903.328	16854
903.446	16691
903.565	16607
903.683	16622
903.801	16474
903.919	16645
904.038	16588
904.156	16527
904.274	16432
904.392	16405
904.51	16272
904.627	16363
904.745	16405
904.863	16421
904.981	16131
905.098	15975
905.216	15907
905.334	16063
905.451	16086
905.569	15926
905.686	16036
905.803	16048
905.921	15747
906.038	15816
906.155	15861
906.272	15603
906.389	15705
906.506	15553
906.623	15481
906.74	15443
906.857	15382
906.974	15439
907.091	15625
907.208	15576
907.324	15500
907.441	15336
907.557	15340
907.674	15226
907.79	15211
907.907	15203
908.023	15222
908.139	15245
908.256	15127
908.372	15165
908.488	15176
908.604	14933
908.72	14823
908.836	14876
908.952	14861
909.068	14990
909.184	14982
909.3	14929
909.415	15001
909.531	14921
909.647	14678
909.762	14648
909.878	14636
909.993	14659
910.108	14701
910.224	14590
910.339	14648
910.454	14507
910.57	14511
910.685	14294
910.8	14712
910.915	14571
911.03	14503
911.145	14214
911.259	14225
911.374	14237
911.489	14233
911.604	14149
911.718	14065
911.833	14069
911.947	13951
912.062	13890
912.176	13936
912.291	14031
912.405	14062
912.519	14195
912.633	14107
912.748	13978
912.862	13978
912.976	13909
913.09	13757
913.204	13791
913.318	13902
913.431	13921
913.545	13932
913.659	13951
913.772	13830
913.886	13727
914	13803
914.113	13772
914.226	13830
914.34	13769
914.453	13639
914.566	13791
914.68	13620
914.793	13590
914.906	13468
915.019	13373
915.132	13354
915.245	13270
915.358	13460
915.47	13339
915.583	13331
915.696	13449
915.809	13556
915.921	13529
916.034	13362
916.146	13301
916.259	13282
916.371	13403
916.483	13335
916.595	13255
916.708	13301
916.82	13285
916.932	13297
917.044	13324
917.156	13164
917.268	13168
917.38	13206
917.491	13160
917.603	13137
917.715	13228
917.826	13175
917.938	13103
918.049	12989
918.161	13080
918.272	13190
918.384	13183
918.495	13019
918.606	12863
918.717	12829
918.828	12863
918.939	12920
919.05	12795
919.161	12844
919.272	12711
919.383	12639
919.494	12867
919.604	13023
919.715	12848
919.826	12753
919.936	12787
920.047	12829
920.157	12859
920.267	13034
920.378	12833
920.488	12833
920.598	12981
920.708	13179
920.818	12993
920.928	12981
921.038	13019
921.148	13126
921.258	12810
921.368	12711
921.477	12711
921.587	12612
921.697	12403
921.806	12521
921.916	12445
922.025	12277
922.134	12304
922.244	12163
922.353	12247
922.462	12064
922.571	12041
922.68	11950
922.789	11931
922.898	11927
923.007	11813
923.116	11965
923.224	11847
923.333	11927
923.442	11714
923.55	11786
923.659	11741
923.767	11794
923.876	11752
923.984	11703
924.092	11604
924.201	11813
924.309	11672
924.417	11691
924.525	11630
924.633	11695
924.741	12369
924.849	11478
924.956	11573
925.064	11482
925.172	11296
925.279	11402
925.387	11429
925.494	11417
925.602	11577
925.709	11440
925.816	11353
925.924	11406
926.031	11493
926.138	11433
926.245	11383
926.352	11246
926.459	11471
926.566	11421
926.673	11364
926.779	11136
926.886	11178
926.993	11052
927.099	10999
927.206	11041
927.312	10908
927.419	11075
927.525	11014
927.631	11060
927.737	10942
927.843	10828
927.95	10778
928.056	10866
928.162	10820
928.267	10984
928.373	11429
928.479	11006
928.585	10797
928.69	10831
928.796	10919
928.901	10740
929.007	10618
929.112	10687
929.218	10748
929.323	10649
929.428	10618
929.533	10824
929.638	10607
929.743	10599
929.848	10634
929.953	10687
930.058	10504
930.163	10314
930.267	10398
930.372	10504
930.477	10367
930.581	10527
930.685	10402
930.79	10299
930.894	10280
930.998	10227
931.103	10341
931.207	9975
931.311	9941
931.415	9873
931.519	9740
931.623	9709
