Data from test_V78500241_1897.txt Node
Date: Fri Mar 25 14:46:55 CST 2022
User: usil
Spectrometer: V785-0024
Trigger mode: 0
Integration Time (sec): 4.000000E-1
Scans to average: 1
Nonlinearity correction enabled: false
Boxcar width: 0
Storing dark spectrum: false
XAxis mode: Wavelengths
Number of Pixels in Spectrum: 1024
>>>>>Begin Spectral Data<<<<<
801.071	22154
801.214	22036
801.356	21793
801.499	21641
801.641	21420
801.783	21488
801.926	21606
802.068	21504
802.211	21355
802.353	21218
802.496	21058
802.638	21005
802.78	20910
802.923	20857
803.065	20785
803.208	20754
803.35	20746
803.492	20838
803.635	20975
803.777	20952
803.919	20921
804.061	21218
804.204	20967
804.346	20788
804.488	20693
804.63	20796
804.773	20701
804.915	20750
805.057	20914
805.199	20765
805.341	20762
805.483	20979
805.626	20697
805.768	20765
805.91	20663
806.052	20735
806.194	20834
806.336	20883
806.478	20746
806.62	20746
806.762	20754
806.904	20853
807.046	21127
807.188	21001
807.33	21024
807.472	20906
807.614	20876
807.756	21043
807.898	20891
808.04	20830
808.182	20746
808.324	20861
808.465	20864
808.607	20929
808.749	21165
808.891	21192
809.033	21336
809.174	21146
809.316	21093
809.458	21131
809.6	21203
809.741	21089
809.883	21093
810.025	21408
810.166	21382
810.308	21252
810.45	21321
810.591	21112
810.733	20941
810.875	20937
811.016	20788
811.158	20807
811.299	20902
811.441	21036
811.582	20986
811.724	20872
811.865	20861
812.007	20872
812.148	20769
812.29	20906
812.431	20998
812.573	21119
812.714	21245
812.855	21382
812.997	21443
813.138	21580
813.279	21405
813.421	21336
813.562	21230
813.703	21157
813.845	21047
813.986	20667
814.127	20564
814.268	20488
814.41	20480
814.551	20385
814.692	20492
814.833	20320
814.974	20328
815.115	20377
815.256	20263
815.397	20298
815.539	20320
815.68	20157
815.821	20122
815.962	20142
816.103	20103
816.244	19890
816.385	19917
816.526	19902
816.666	19803
816.807	19590
816.948	19685
817.089	19727
817.23	19643
817.371	19571
817.512	19495
817.653	19563
817.793	19472
817.934	19422
818.075	19575
818.216	19628
818.356	19438
818.497	19297
818.638	19274
818.778	19232
818.919	19270
819.06	19148
819.2	19339
819.341	19453
819.481	19483
819.622	19537
819.762	19662
819.903	19719
820.043	19582
820.184	19563
820.324	19597
820.465	19552
820.605	19635
820.746	19662
820.886	19422
821.026	19518
821.167	19445
821.307	19578
821.447	19449
821.588	19381
821.728	19331
821.868	19080
822.008	18962
822.149	18977
822.289	18954
822.429	18776
822.569	18597
822.709	18559
822.849	18448
822.99	18422
823.13	18475
823.27	18403
823.41	18213
823.55	18152
823.69	18338
823.83	18376
823.97	18144
824.11	18007
824.25	18003
824.389	18083
824.529	18110
824.669	17954
824.809	18155
824.949	18095
825.089	18045
825.228	18041
825.368	17809
825.508	17882
825.648	17828
825.787	17760
825.927	17843
826.067	17653
826.206	17771
826.346	17843
826.485	17821
826.625	17752
826.765	17882
826.904	17942
827.044	17642
827.183	17573
827.323	17512
827.462	17627
827.601	17444
827.741	17474
827.88	17497
828.02	17459
828.159	17398
828.298	17600
828.437	17604
828.577	17444
828.716	17676
828.855	17436
828.994	17292
829.134	17261
829.273	17360
829.412	17208
829.551	17197
829.69	17166
829.829	17280
829.968	17341
830.107	17280
830.246	17337
830.385	17246
830.524	17181
830.663	17117
830.802	16957
830.941	16809
831.08	16889
831.219	16881
831.357	16877
831.496	17102
831.635	16869
831.774	16702
831.913	16740
832.051	16637
832.19	16596
832.329	16740
832.467	16580
832.606	16428
832.744	16519
832.883	16645
833.022	16569
833.16	16588
833.299	16554
833.437	16538
833.576	16565
833.714	16660
833.852	16660
833.991	16569
834.129	16710
834.267	16649
834.406	16679
834.544	16721
834.682	16675
834.821	16683
834.959	16812
835.097	16607
835.235	16641
835.373	16596
835.511	16660
835.65	16558
835.788	16588
835.926	16493
836.064	16314
836.202	16379
836.34	16554
836.478	16713
836.615	16470
836.753	16573
836.891	16618
837.029	16641
837.167	16656
837.305	16424
837.443	16375
837.58	16417
837.718	16497
837.856	16424
837.993	16424
838.131	16356
838.269	16188
838.406	16409
838.544	16242
838.681	16124
838.819	16154
838.956	15968
839.094	15972
839.231	16036
839.369	16040
839.506	16306
839.643	16200
839.781	15945
839.918	15964
840.055	16021
840.193	15994
840.33	15903
840.467	16021
840.604	15949
840.742	16215
840.879	15743
841.016	15842
841.153	15861
841.29	16063
841.427	16013
841.564	16040
841.701	15945
841.838	15918
841.975	15960
842.112	15781
842.249	15770
842.385	15686
842.522	15922
842.659	15816
842.796	15732
842.933	15774
843.069	15629
843.206	15713
843.343	15846
843.479	15800
843.616	15797
843.752	15568
843.889	15534
844.025	15705
844.162	15488
844.298	15599
844.435	15561
844.571	15466
844.708	15530
844.844	15682
844.98	15698
845.117	15698
845.253	15469
845.389	15439
845.525	15401
845.661	15412
845.798	15317
845.934	15424
846.07	15275
846.206	15393
846.342	15420
846.478	15272
846.614	15165
846.75	15074
846.886	15074
847.022	15100
847.158	15089
847.294	14975
847.429	15093
847.565	15077
847.701	15397
847.837	14842
847.972	14857
848.108	14914
848.244	14872
848.379	14724
848.515	14621
848.65	14655
848.786	14655
848.921	14701
849.057	14754
849.192	14754
849.328	14762
849.463	14727
849.598	14674
849.734	14648
849.869	14617
850.004	14549
850.14	14594
850.275	14507
850.41	14362
850.545	14408
850.68	14495
850.815	14522
850.95	14488
851.085	14571
851.22	14625
851.355	14476
851.49	14438
851.625	14461
851.76	14465
851.895	14442
852.03	14343
852.165	14415
852.299	14507
852.434	14541
852.569	14499
852.703	14530
852.838	14606
852.973	14613
853.107	14621
853.242	14415
853.376	14332
853.511	14195
853.645	14267
853.78	14476
853.914	14362
854.048	14339
854.183	14400
854.317	14339
854.451	14549
854.585	14267
854.72	14377
854.854	14358
854.988	14210
855.122	14347
855.256	14161
855.39	14396
855.524	14336
855.658	14358
855.792	14320
855.926	14381
856.06	14339
856.194	14461
856.327	14317
856.461	14298
856.595	14278
856.729	14275
856.862	14476
856.996	14461
857.13	14469
857.263	14332
857.397	14427
857.53	14362
857.664	14400
857.797	14484
857.931	14522
858.064	14393
858.197	14549
858.331	14309
858.464	14324
858.597	14240
858.731	14275
858.864	14320
858.997	14336
859.13	14404
859.263	14377
859.396	14450
859.529	14275
859.662	14366
859.795	14202
859.928	14400
860.061	14560
860.194	14552
860.327	14298
860.46	14374
860.592	14488
860.725	14530
860.858	14434
860.99	14366
861.123	14263
861.256	14370
861.388	14320
861.521	15104
861.653	14180
861.786	14153
861.918	14256
862.05	14263
862.183	14381
862.315	14374
862.447	14339
862.58	14374
862.712	14092
862.844	14062
862.976	14202
863.108	14126
863.24	14484
863.372	14065
863.504	14172
863.636	14058
863.768	14130
863.9	14126
864.032	14062
864.164	14039
864.296	14164
864.428	14305
864.559	14172
864.691	14221
864.823	14138
864.954	14073
865.086	14145
865.217	14115
865.349	14020
865.48	14164
865.612	14176
865.743	14233
865.875	14164
866.006	14084
866.137	14088
866.269	14191
866.4	14088
866.531	14020
866.662	14050
866.793	14069
866.924	14077
867.055	14077
867.186	14012
867.317	14145
867.448	14027
867.579	14134
867.71	14008
867.841	14081
867.972	14081
868.103	14012
868.233	14214
868.364	14180
868.495	14164
868.625	14317
868.756	14556
868.886	14347
869.017	14366
869.147	14381
869.278	14492
869.408	14408
869.539	14343
869.669	14438
869.799	14404
869.929	14503
870.06	14393
870.19	14693
870.32	14705
870.45	14663
870.58	14746
870.71	14853
870.84	14902
870.97	14811
871.1	14689
871.23	14971
871.36	15039
871.489	14842
871.619	14925
871.749	14933
871.879	14941
872.008	15062
872.138	14963
872.267	14960
872.397	14834
872.526	14906
872.656	14777
872.785	14773
872.915	14933
873.044	15028
873.173	15024
873.303	15066
873.432	15089
873.561	15005
873.69	14986
873.819	15032
873.948	15112
874.077	15089
874.206	14952
874.335	14975
874.464	15173
874.593	15378
874.722	15188
874.851	15298
874.979	15355
875.108	15405
875.237	15287
875.365	15272
875.494	15279
875.623	15412
875.751	15336
875.88	15340
876.008	15477
876.136	15462
876.265	15682
876.393	15869
876.521	15793
876.65	15804
876.778	15732
876.906	15698
877.034	15641
877.162	15644
877.29	15504
877.418	15743
877.546	15622
877.674	15656
877.802	15732
877.93	15766
878.058	15781
878.185	15682
878.313	15603
878.441	15728
878.568	15488
878.696	15667
878.824	15793
878.951	15755
879.079	15968
879.206	16071
879.333	15857
879.461	15873
879.588	15793
879.715	15937
879.842	16029
879.97	15808
880.097	15534
880.224	15534
880.351	15622
880.478	15618
880.605	15458
880.732	15553
880.859	15789
880.986	15538
881.112	15648
881.239	15458
881.366	15450
881.493	15249
881.619	15222
881.746	15237
881.872	15199
881.999	15222
882.125	15233
882.252	15313
882.378	15260
882.505	15370
882.631	15108
882.757	15028
882.883	15142
883.01	14998
883.136	14929
883.262	14986
883.388	14952
883.514	14994
883.64	15089
883.766	15001
883.892	14830
884.018	14849
884.143	14933
884.269	15112
884.395	14880
884.52	14716
884.646	14762
884.772	14754
884.897	14754
885.023	14777
885.148	14918
885.274	14876
885.399	14849
885.524	14765
885.65	14743
885.775	14777
885.9	14777
886.025	14864
886.15	14777
886.275	14697
886.4	14727
886.525	14720
886.65	14640
886.775	14663
886.9	14914
887.025	14998
887.149	14800
887.274	14594
887.399	14579
887.523	14511
887.648	14590
887.773	14522
887.897	14644
888.021	14621
888.146	14545
888.27	14731
888.395	14625
888.519	14617
888.643	14568
888.767	14693
888.891	14480
889.015	14362
889.139	14488
889.263	14377
889.387	14568
889.511	14632
889.635	14579
889.759	14488
889.883	14427
890.006	14518
890.13	14533
890.254	14408
890.377	14370
890.501	14271
890.624	14199
890.748	14396
890.871	14214
890.995	14134
891.118	14065
891.241	14123
891.364	14210
891.488	14313
891.611	14107
891.734	14130
891.857	14199
891.98	14107
892.103	14103
892.226	14191
892.349	14149
892.471	14008
892.594	14081
892.717	14088
892.839	14107
892.962	14199
893.085	14237
893.207	14092
893.33	13993
893.452	14077
893.575	14199
893.697	14115
893.819	14351
893.941	14313
894.064	14256
894.186	14084
894.308	14149
894.43	14240
894.552	14313
894.674	14267
894.796	14119
894.918	14183
895.04	14157
895.161	14393
895.283	14172
895.405	14161
895.526	14305
895.648	14115
895.769	14301
895.891	14313
896.012	14408
896.134	14305
896.255	14317
896.376	14278
896.498	14332
896.619	14370
896.74	14301
896.861	14381
896.982	14636
897.103	14876
897.224	14571
897.345	14568
897.466	14571
897.587	14522
897.708	14823
897.828	14579
897.949	14537
898.07	14511
898.19	14568
898.311	14686
898.431	14606
898.552	14693
898.672	14720
898.792	14724
898.913	14746
899.033	14610
899.153	14476
899.273	14377
899.393	14495
899.513	14552
899.633	14556
899.753	14549
899.873	14492
899.993	14594
900.113	14423
900.232	14564
900.352	14530
900.472	14370
900.591	14366
900.711	14480
900.83	14301
900.95	14442
901.069	14499
901.189	14290
901.308	14157
901.427	14001
901.546	14077
901.665	14062
901.784	14020
901.904	13902
902.023	13826
902.141	13719
902.26	13674
902.379	13772
902.498	13601
902.617	13559
902.735	13753
902.854	13609
902.973	13643
903.091	13346
903.21	13441
903.328	13320
903.446	13301
903.565	13225
903.683	13259
903.801	13198
903.919	13168
904.038	13107
904.156	13027
904.274	13118
904.392	12989
904.51	13034
904.627	13008
904.745	13095
904.863	12973
904.981	12859
905.098	12707
905.216	12677
905.334	12734
905.451	12779
905.569	12620
905.686	12662
905.803	12719
905.921	12563
906.038	12616
906.155	12551
906.272	12315
906.389	12365
906.506	12330
906.623	12346
906.74	12361
906.857	12190
906.974	12300
907.091	12414
907.208	12380
907.324	12338
907.441	12239
907.557	12129
907.674	12007
907.79	11920
907.907	11901
908.023	12019
908.139	12045
908.256	12022
908.372	12011
908.488	11988
908.604	11794
908.72	11771
908.836	11866
908.952	11832
909.068	11866
909.184	11920
909.3	11767
909.415	11741
909.531	11783
909.647	11558
909.762	11646
909.878	11543
909.993	11615
910.108	11573
910.224	11551
910.339	11619
910.454	11528
910.57	11463
910.685	11448
910.8	11649
910.915	11608
911.03	11414
911.145	11231
911.259	11239
911.374	11216
911.489	11261
911.604	11193
911.718	11048
911.833	11033
911.947	10843
912.062	10858
912.176	11056
912.291	11010
912.405	10968
912.519	11181
912.633	11254
912.748	11121
912.862	11003
912.976	10949
913.09	10820
913.204	10889
913.318	10919
913.431	10972
913.545	11033
913.659	10972
913.772	10900
913.886	10824
914	10706
914.113	10896
914.226	10949
914.34	10889
914.453	10675
914.566	10812
914.68	10736
914.793	10672
914.906	10596
915.019	10512
915.132	10516
915.245	10516
915.358	10607
915.47	10565
915.583	10512
915.696	10516
915.809	10645
915.921	10622
916.034	10508
916.146	10561
916.259	10398
916.371	10596
916.483	10577
916.595	10417
916.708	10405
916.82	10409
916.932	10493
917.044	10462
917.156	10371
917.268	10322
917.38	10356
917.491	10287
917.603	10352
917.715	10421
917.826	10459
917.938	10360
918.049	10238
918.161	10295
918.272	10428
918.384	10512
918.495	10379
918.606	10215
918.717	10154
918.828	10200
918.939	10287
919.05	10120
919.161	10200
919.272	9987
919.383	10097
919.494	10280
919.604	10443
919.715	10299
919.826	10253
919.936	10253
920.047	10333
920.157	10284
920.267	10379
920.378	10272
920.488	10246
920.598	10413
920.708	10592
920.818	10386
920.928	10508
921.038	10706
921.148	10493
921.258	10287
921.368	10200
921.477	10150
921.587	10162
921.697	10025
921.806	10120
921.916	9953
922.025	9835
922.134	9808
922.244	9759
922.353	9831
922.462	9770
922.571	9671
922.68	9515
922.789	9530
922.898	9530
923.007	9416
923.116	9564
923.224	9538
923.333	9511
923.442	9431
923.55	9302
923.659	9496
923.767	9382
923.876	9287
923.984	9507
924.092	9275
924.201	9370
924.309	9370
924.417	9332
924.525	9298
924.633	9351
924.741	10166
924.849	9226
924.956	9226
925.064	9169
925.172	9100
925.279	9173
925.387	9249
925.494	9055
925.602	9310
925.709	9249
925.816	9028
925.924	9135
926.031	9310
926.138	9138
926.245	9207
926.352	9081
926.459	9161
926.566	9233
926.673	9058
926.779	8986
926.886	9005
926.993	8891
927.099	8902
927.206	8937
927.312	8796
927.419	8948
927.525	8830
927.631	8952
927.737	8785
927.843	8807
927.95	8655
928.056	8724
928.162	8845
928.267	8796
928.373	9321
928.479	8891
928.585	8602
928.69	8693
928.796	8792
928.901	8693
929.007	8560
929.112	8697
929.218	8625
929.323	8522
929.428	8613
929.533	8743
929.638	8488
929.743	8564
929.848	8617
929.953	8549
930.058	8457
930.163	8309
930.267	8389
930.372	8454
930.477	8313
930.581	8568
930.685	8442
930.79	8301
930.894	8309
930.998	8309
931.103	8499
931.207	8065
931.311	8062
931.415	7913
931.519	7799
931.623	7776
