Data from test_V78500241_3194.txt Node
Date: Fri Mar 25 14:55:57 CST 2022
User: usil
Spectrometer: V785-0024
Trigger mode: 0
Integration Time (sec): 4.000000E-1
Scans to average: 1
Nonlinearity correction enabled: false
Boxcar width: 0
Storing dark spectrum: false
XAxis mode: Wavelengths
Number of Pixels in Spectrum: 1024
>>>>>Begin Spectral Data<<<<<
801.071	21907
801.214	21918
801.356	21542
801.499	21568
801.641	21462
801.783	21249
801.926	21393
802.068	21142
802.211	21199
802.353	21104
802.496	20902
802.638	20800
802.78	20853
802.923	20720
803.065	20716
803.208	20640
803.35	20686
803.492	20670
803.635	20773
803.777	20788
803.919	20697
804.061	20967
804.204	20705
804.346	20625
804.488	20537
804.63	20609
804.773	20545
804.915	20625
805.057	20716
805.199	20632
805.341	20575
805.483	20697
805.626	20739
805.768	20556
805.91	20617
806.052	20579
806.194	20579
806.336	20724
806.478	20632
806.62	20640
806.762	20720
806.904	20815
807.046	21138
807.188	20868
807.33	20868
807.472	20971
807.614	20792
807.756	20762
807.898	20765
808.04	20670
808.182	20644
808.324	20667
808.465	20758
808.607	20914
808.749	21066
808.891	20994
809.033	21260
809.174	21020
809.316	20971
809.458	21017
809.6	20921
809.741	20933
809.883	21131
810.025	21123
810.166	20998
810.308	21070
810.45	21085
810.591	21036
810.733	20845
810.875	20674
811.016	20594
811.158	20526
811.299	20720
811.441	20918
811.582	20868
811.724	20792
811.865	20739
812.007	20598
812.148	20609
812.29	20746
812.431	20845
812.573	21051
812.714	21146
812.855	21256
812.997	21313
813.138	21523
813.279	21302
813.421	21374
813.562	21256
813.703	20883
813.845	20990
813.986	20648
814.127	20454
814.268	20305
814.41	20271
814.551	20370
814.692	20320
814.833	20195
814.974	20225
815.115	20248
815.256	20062
815.397	20176
815.539	20092
815.68	19974
815.821	20020
815.962	20039
816.103	19921
816.244	19856
816.385	19689
816.526	19772
816.666	19635
816.807	19415
816.948	19575
817.089	19480
817.23	19449
817.371	19392
817.512	19350
817.653	19365
817.793	19354
817.934	19236
818.075	19381
818.216	19282
818.356	19388
818.497	19301
818.638	19050
818.778	19168
818.919	19118
819.06	19038
819.2	19232
819.341	19259
819.481	19240
819.622	19449
819.762	19582
819.903	19529
820.043	19441
820.184	19377
820.324	19381
820.465	19480
820.605	19388
820.746	19430
820.886	19312
821.026	19377
821.167	19373
821.307	19316
821.447	19362
821.588	19217
821.728	19015
821.868	18878
822.008	18886
822.149	18768
822.289	18722
822.429	18525
822.569	18388
822.709	18483
822.849	18327
822.99	18194
823.13	18277
823.27	18186
823.41	18136
823.55	18022
823.69	18072
823.83	18114
823.97	17992
824.11	17889
824.25	17866
824.389	17805
824.529	17912
824.669	17832
824.809	17984
824.949	17920
825.089	17889
825.228	17832
825.368	17707
825.508	17638
825.648	17764
825.787	17627
825.927	17771
826.067	17707
826.206	17642
826.346	17642
826.485	17676
826.625	17630
826.765	17817
826.904	17672
827.044	17493
827.183	17402
827.323	17353
827.462	17391
827.601	17330
827.741	17349
827.88	17315
828.02	17242
828.159	17273
828.298	17368
828.437	17349
828.577	17341
828.716	17421
828.855	17204
828.994	17045
829.134	17083
829.273	17178
829.412	17060
829.551	17022
829.69	16987
829.829	17094
829.968	17216
830.107	17220
830.246	17174
830.385	16984
830.524	16896
830.663	16786
830.802	16786
830.941	16816
831.08	16649
831.219	16866
831.357	16790
831.496	16927
831.635	16702
831.774	16535
831.913	16546
832.051	16561
832.19	16451
832.329	16516
832.467	16360
832.606	16234
832.744	16428
832.883	16352
833.022	16413
833.16	16322
833.299	16352
833.437	16402
833.576	16516
833.714	16382
833.852	16428
833.991	16390
834.129	16512
834.267	16478
834.406	16493
834.544	16451
834.682	16470
834.821	16405
834.959	16603
835.097	16379
835.235	16561
835.373	16493
835.511	16478
835.65	16303
835.788	16325
835.926	16238
836.064	16169
836.202	16234
836.34	16318
836.478	16478
836.615	16284
836.753	16398
836.891	16470
837.029	16428
837.167	16299
837.305	16284
837.443	16314
837.58	16124
837.718	16348
837.856	16223
837.993	16150
838.131	16211
838.269	16166
838.406	16169
838.544	16154
838.681	15926
838.819	15873
838.956	15812
839.094	15747
839.231	15816
839.369	15926
839.506	16158
839.643	15964
839.781	15751
839.918	15804
840.055	15747
840.193	15816
840.33	15781
840.467	15785
840.604	15785
840.742	16029
840.879	15576
841.016	15728
841.153	15694
841.29	15888
841.427	15739
841.564	15724
841.701	15736
841.838	15751
841.975	15660
842.112	15739
842.249	15564
842.385	15564
842.522	15694
842.659	15584
842.796	15523
842.933	15515
843.069	15458
843.206	15549
843.343	15629
843.479	15568
843.616	15580
843.752	15405
843.889	15241
844.025	15458
844.162	15256
844.298	15561
844.435	15313
844.571	15374
844.708	15382
844.844	15401
844.98	15481
845.117	15428
845.253	15374
845.389	15245
845.525	15195
845.661	15233
845.798	15222
845.934	15142
846.07	15116
846.206	15169
846.342	15260
846.478	15192
846.614	14998
846.75	14838
846.886	14891
847.022	15009
847.158	14796
847.294	14963
847.429	15001
847.565	14929
847.701	15157
847.837	14708
847.972	14560
848.108	14743
848.244	14735
848.379	14670
848.515	14526
848.65	14511
848.786	14507
848.921	14476
849.057	14659
849.192	14606
849.328	14480
849.463	14583
849.598	14476
849.734	14438
849.869	14396
850.004	14271
850.14	14305
850.275	14336
850.41	14278
850.545	14244
850.68	14206
850.815	14313
850.95	14259
851.085	14423
851.22	14385
851.355	14252
851.49	14210
851.625	14271
851.76	14256
851.895	14225
852.03	14221
852.165	14202
852.299	14347
852.434	14301
852.569	14396
852.703	14271
852.838	14336
852.973	14377
853.107	14442
853.242	14267
853.376	14126
853.511	14100
853.645	14149
853.78	14218
853.914	14077
854.048	14096
854.183	14119
854.317	14191
854.451	14267
854.585	14119
854.72	14180
854.854	14157
854.988	14058
855.122	14081
855.256	14039
855.39	14176
855.524	14248
855.658	14145
855.792	14210
855.926	14225
856.06	14202
856.194	14199
856.327	14233
856.461	14138
856.595	14062
856.729	14069
856.862	14244
856.996	14218
857.13	14206
857.263	14221
857.397	14233
857.53	14130
857.664	14210
857.797	14294
857.931	14263
858.064	14111
858.197	14320
858.331	14123
858.464	14020
858.597	14008
858.731	14180
858.864	14145
858.997	14134
859.13	14149
859.263	14145
859.396	14237
859.529	14134
859.662	14073
859.795	14096
859.928	14187
860.061	14328
860.194	14336
860.327	14202
860.46	14214
860.592	14275
860.725	14256
860.858	14267
860.99	14062
861.123	14016
861.256	14005
861.388	14153
861.521	14956
861.653	13993
861.786	13959
861.918	13974
862.05	14115
862.183	14069
862.315	14123
862.447	14229
862.58	14027
862.712	13902
862.844	13909
862.976	14016
863.108	13940
863.24	14290
863.372	13940
863.504	13830
863.636	13830
863.768	14027
863.9	13845
864.032	13769
864.164	13871
864.296	13940
864.428	14058
864.559	13997
864.691	14001
864.823	14069
864.954	13944
865.086	13974
865.217	13883
865.349	13890
865.48	13902
865.612	13898
865.743	14012
865.875	13917
866.006	13932
866.137	13864
866.269	13909
866.4	13947
866.531	13898
866.662	13871
866.793	13944
866.924	13753
867.055	13932
867.186	13906
867.317	13959
867.448	13837
867.579	13902
867.71	13875
867.841	13845
867.972	13879
868.103	13875
868.233	13906
868.364	13860
868.495	13982
868.625	14081
868.756	14267
868.886	14123
869.017	14218
869.147	14225
869.278	14309
869.408	14240
869.539	14153
869.669	14298
869.799	14275
869.929	14275
870.06	14305
870.19	14499
870.32	14484
870.45	14457
870.58	14533
870.71	14701
870.84	14712
870.97	14625
871.1	14488
871.23	14842
871.36	14762
871.489	14587
871.619	14804
871.749	14785
871.879	14754
872.008	14830
872.138	14746
872.267	14781
872.397	14644
872.526	14587
872.656	14606
872.785	14571
872.915	14727
873.044	14876
873.173	14765
873.303	14876
873.432	14948
873.561	14819
873.69	14788
873.819	14921
873.948	14868
874.077	14910
874.206	14853
874.335	14807
874.464	14979
874.593	15192
874.722	15028
874.851	15089
874.979	15131
875.108	15157
875.237	15093
875.365	15024
875.494	15135
875.623	15260
875.751	15085
875.88	15188
876.008	15302
876.136	15325
876.265	15568
876.393	15732
876.521	15675
876.65	15667
876.778	15534
876.906	15485
877.034	15511
877.162	15587
877.29	15462
877.418	15462
877.546	15557
877.674	15561
877.802	15610
877.93	15534
878.058	15481
878.185	15416
878.313	15496
878.441	15538
878.568	15405
878.696	15561
878.824	15648
878.951	15572
879.079	15686
879.206	15865
879.333	15622
879.461	15648
879.588	15656
879.715	15774
879.842	15869
879.97	15591
880.097	15317
880.224	15431
880.351	15408
880.478	15469
880.605	15386
880.732	15431
880.859	15599
880.986	15351
881.112	15492
881.239	15336
881.366	15199
881.493	15146
881.619	15188
881.746	15074
881.872	15074
881.999	15100
882.125	15047
882.252	15142
882.378	15116
882.505	15211
882.631	14990
882.757	14876
882.883	14906
883.01	14819
883.136	14746
883.262	14731
883.388	14788
883.514	14842
883.64	14941
883.766	14842
883.892	14689
884.018	14659
884.143	14876
884.269	14853
884.395	14556
884.52	14564
884.646	14617
884.772	14484
884.897	14442
885.023	14621
885.148	14743
885.274	14792
885.399	14629
885.524	14613
885.65	14530
885.775	14552
885.9	14598
886.025	14670
886.15	14655
886.275	14568
886.4	14492
886.525	14476
886.65	14579
886.775	14556
886.9	14708
887.025	14697
887.149	14602
887.274	14457
887.399	14503
887.523	14339
887.648	14286
887.773	14362
887.897	14499
888.021	14526
888.146	14301
888.27	14480
888.395	14556
888.519	14446
888.643	14552
888.767	14514
888.891	14389
889.015	14309
889.139	14339
889.263	14187
889.387	14396
889.511	14518
889.635	14412
889.759	14343
889.883	14396
890.006	14339
890.13	14404
890.254	14202
890.377	14320
890.501	14138
890.624	14161
890.748	14130
890.871	13955
890.995	13978
891.118	13902
891.241	13955
891.364	14008
891.488	14183
891.611	13989
891.734	14046
891.857	13959
891.98	13982
892.103	14050
892.226	14084
892.349	13993
892.471	13860
892.594	13989
892.717	14024
892.839	13970
892.962	14005
893.085	14016
893.207	14027
893.33	13940
893.452	13959
893.575	14012
893.697	13978
893.819	14153
893.941	14187
894.064	14267
894.186	14005
894.308	13947
894.43	14153
894.552	14202
894.674	14142
894.796	13921
894.918	14054
895.04	13944
895.161	14191
895.283	14111
895.405	14073
895.526	14008
895.648	14123
895.769	14130
895.891	14130
896.012	14164
896.134	14252
896.255	14145
896.376	14130
896.498	14088
896.619	14180
896.74	14225
896.861	14214
896.982	14465
897.103	14659
897.224	14488
897.345	14415
897.466	14324
897.587	14427
897.708	14598
897.828	14507
897.949	14347
898.07	14298
898.19	14499
898.311	14587
898.431	14351
898.552	14499
898.672	14545
898.792	14579
898.913	14571
899.033	14393
899.153	14412
899.273	14267
899.393	14324
899.513	14450
899.633	14393
899.753	14389
899.873	14366
899.993	14518
900.113	14351
900.232	14446
900.352	14320
900.472	14259
900.591	14252
900.711	14332
900.83	14157
900.95	14370
901.069	14347
901.189	14115
901.308	14005
901.427	13803
901.546	13890
901.665	13879
901.784	13871
901.904	13841
902.023	13723
902.141	13571
902.26	13552
902.379	13575
902.498	13464
902.617	13430
902.735	13468
902.854	13483
902.973	13403
903.091	13129
903.21	13206
903.328	13228
903.446	13145
903.565	13050
903.683	13023
903.801	13084
903.919	13031
904.038	13038
904.156	12890
904.274	12924
904.392	12894
904.51	12878
904.627	12905
904.745	12909
904.863	12932
904.981	12700
905.098	12601
905.216	12589
905.334	12654
905.451	12506
905.569	12570
905.686	12730
905.803	12570
905.921	12441
906.038	12426
906.155	12418
906.272	12350
906.389	12315
906.506	12155
906.623	12247
906.74	12152
906.857	12140
906.974	12026
907.091	12216
907.208	12281
907.324	12224
907.441	12076
907.557	11901
907.674	11916
907.79	11794
907.907	11889
908.023	11999
908.139	11901
908.256	11847
908.372	11843
908.488	11855
908.604	11741
908.72	11596
908.836	11668
908.952	11646
909.068	11699
909.184	11691
909.3	11665
909.415	11714
909.531	11665
909.647	11486
909.762	11379
909.878	11421
909.993	11452
910.108	11337
910.224	11478
910.339	11417
910.454	11345
910.57	11273
910.685	11220
910.8	11474
910.915	11429
911.03	11345
911.145	11124
911.259	11083
911.374	11174
911.489	11086
911.604	11067
911.718	10949
911.833	10889
911.947	10828
912.062	10721
912.176	10904
912.291	10828
912.405	10968
912.519	11083
912.633	11086
912.748	10980
912.862	10900
912.976	10797
913.09	10694
913.204	10771
913.318	10809
913.431	10862
913.545	10866
913.659	10938
913.772	10725
913.886	10733
914	10611
914.113	10744
914.226	10835
914.34	10763
914.453	10512
914.566	10668
914.68	10630
914.793	10618
914.906	10508
915.019	10409
915.132	10287
915.245	10394
915.358	10447
915.47	10459
915.583	10550
915.696	10440
915.809	10546
915.921	10550
916.034	10386
916.146	10363
916.259	10379
916.371	10470
916.483	10413
916.595	10291
916.708	10371
916.82	10314
916.932	10325
917.044	10306
917.156	10303
917.268	10238
917.38	10265
917.491	10192
917.603	10234
917.715	10382
917.826	10344
917.938	10196
918.049	10166
918.161	10200
918.272	10352
918.384	10375
918.495	10356
918.606	10101
918.717	10101
918.828	10120
918.939	10185
919.05	10055
919.161	10105
919.272	9899
919.383	9972
919.494	10158
919.604	10322
919.715	10124
919.826	10090
919.936	10067
920.047	10268
920.157	10162
920.267	10341
920.378	10131
920.488	10112
920.598	10344
920.708	10428
920.818	10341
920.928	10329
921.038	10519
921.148	10440
921.258	10169
921.368	10105
921.477	10044
921.587	10029
921.697	9911
921.806	9994
921.916	9922
922.025	9728
922.134	9690
922.244	9698
922.353	9732
922.462	9538
922.571	9557
922.68	9431
922.789	9431
922.898	9405
923.007	9329
923.116	9473
923.224	9447
923.333	9340
923.442	9294
923.55	9195
923.659	9351
923.767	9386
923.876	9218
923.984	9378
924.092	9237
924.201	9253
924.309	9245
924.417	9272
924.525	9176
924.633	9272
924.741	10147
924.849	9017
924.956	9203
925.064	9032
925.172	8982
925.279	9013
925.387	9047
925.494	9112
925.602	9211
925.709	9169
925.816	9009
925.924	9024
926.031	9116
926.138	9070
926.245	9135
926.352	9043
926.459	9135
926.566	9085
926.673	8994
926.779	8948
926.886	8941
926.993	8853
927.099	8792
927.206	8708
927.312	8781
927.419	8788
927.525	8678
927.631	8960
927.737	8686
927.843	8689
927.95	8587
928.056	8644
928.162	8663
928.267	8716
928.373	9233
928.479	8788
928.585	8530
928.69	8651
928.796	8689
928.901	8575
929.007	8419
929.112	8533
929.218	8533
929.323	8514
929.428	8492
929.533	8632
929.638	8423
929.743	8492
929.848	8537
929.953	8461
930.058	8355
930.163	8252
930.267	8324
930.372	8408
930.477	8267
930.581	8503
930.685	8366
930.79	8183
930.894	8221
930.998	8206
931.103	8332
931.207	8062
931.311	8008
931.415	7887
931.519	7693
931.623	7674
