Data from test_V78500241_3377.txt Node
Date: Fri Mar 25 14:57:13 CST 2022
User: usil
Spectrometer: V785-0024
Trigger mode: 0
Integration Time (sec): 4.000000E-1
Scans to average: 1
Nonlinearity correction enabled: false
Boxcar width: 0
Storing dark spectrum: false
XAxis mode: Wavelengths
Number of Pixels in Spectrum: 1024
>>>>>Begin Spectral Data<<<<<
801.071	21930
801.214	21736
801.356	21610
801.499	21591
801.641	21443
801.783	21287
801.926	21317
802.068	21207
802.211	21165
802.353	21135
802.496	20925
802.638	20857
802.78	20792
802.923	20727
803.065	20663
803.208	20636
803.35	20640
803.492	20697
803.635	20792
803.777	20667
803.919	20727
804.061	20944
804.204	20777
804.346	20587
804.488	20545
804.63	20598
804.773	20492
804.915	20590
805.057	20682
805.199	20499
805.341	20598
805.483	20655
805.626	20651
805.768	20511
805.91	20552
806.052	20632
806.194	20457
806.336	20598
806.478	20541
806.62	20587
806.762	20602
806.904	20727
807.046	20906
807.188	20811
807.33	20842
807.472	21013
807.614	20777
807.756	20746
807.898	20640
808.04	20568
808.182	20537
808.324	20632
808.465	20644
808.607	20853
808.749	20842
808.891	20872
809.033	21085
809.174	21036
809.316	20834
809.458	20910
809.6	20937
809.741	20891
809.883	21074
810.025	21051
810.166	21100
810.308	21058
810.45	20933
810.591	20998
810.733	20777
810.875	20819
811.016	20495
811.158	20632
811.299	20724
811.441	20891
811.582	20678
811.724	20674
811.865	20655
812.007	20701
812.148	20670
812.29	20804
812.431	20861
812.573	20902
812.714	21047
812.855	21154
812.997	21237
813.138	21340
813.279	21382
813.421	21127
813.562	21161
813.703	21024
813.845	20910
813.986	20564
814.127	20389
814.268	20225
814.41	20305
814.551	20164
814.692	20328
814.833	20153
814.974	20221
815.115	20206
815.256	20046
815.397	20050
815.539	20077
815.68	20031
815.821	19826
815.962	19849
816.103	19830
816.244	19883
816.385	19677
816.526	19670
816.666	19559
816.807	19308
816.948	19419
817.089	19525
817.23	19377
817.371	19415
817.512	19400
817.653	19419
817.793	19240
817.934	19304
818.075	19354
818.216	19293
818.356	19259
818.497	19168
818.638	19080
818.778	19053
818.919	19175
819.06	19061
819.2	19095
819.341	19122
819.481	19179
819.622	19282
819.762	19537
819.903	19518
820.043	19441
820.184	19369
820.324	19400
820.465	19430
820.605	19400
820.746	19350
820.886	19145
821.026	19343
821.167	19225
821.307	19308
821.447	19312
821.588	19160
821.728	19080
821.868	18924
822.008	18791
822.149	18745
822.289	18707
822.429	18494
822.569	18456
822.709	18399
822.849	18232
822.99	18273
823.13	18266
823.27	18209
823.41	18007
823.55	17874
823.69	17988
823.83	18045
823.97	17969
824.11	17874
824.25	17817
824.389	17882
824.529	17950
824.669	17745
824.809	18038
824.949	17912
825.089	17904
825.228	17786
825.368	17714
825.508	17676
825.648	17604
825.787	17619
825.927	17604
826.067	17551
826.206	17547
826.346	17558
826.485	17509
826.625	17551
826.765	17707
826.904	17634
827.044	17406
827.183	17376
827.323	17353
827.462	17356
827.601	17208
827.741	17261
827.88	17402
828.02	17151
828.159	17299
828.298	17242
828.437	17474
828.577	17235
828.716	17368
828.855	17280
828.994	16911
829.134	17090
829.273	17105
829.412	17010
829.551	17025
829.69	16949
829.829	17098
829.968	17220
830.107	17174
830.246	17064
830.385	17102
830.524	16949
830.663	16843
830.802	16771
830.941	16790
831.08	16653
831.219	16786
831.357	16740
831.496	16904
831.635	16675
831.774	16565
831.913	16626
832.051	16443
832.19	16428
832.329	16516
832.467	16405
832.606	16268
832.744	16341
832.883	16341
833.022	16363
833.16	16375
833.299	16424
833.437	16356
833.576	16322
833.714	16363
833.852	16489
833.991	16386
834.129	16428
834.267	16554
834.406	16424
834.544	16413
834.682	16478
834.821	16322
834.959	16588
835.097	16405
835.235	16504
835.373	16485
835.511	16500
835.65	16432
835.788	16325
835.926	16230
836.064	16101
836.202	16242
836.34	16413
836.478	16459
836.615	16265
836.753	16428
836.891	16504
837.029	16360
837.167	16265
837.305	16375
837.443	16265
837.58	16112
837.718	16306
837.856	16177
837.993	16242
838.131	16284
838.269	16185
838.406	16261
838.544	16006
838.681	16010
838.819	15918
838.956	15690
839.094	15747
839.231	15812
839.369	15953
839.506	16181
839.643	16006
839.781	15880
839.918	15793
840.055	15736
840.193	15762
840.33	15728
840.467	15743
840.604	15759
840.742	15998
840.879	15667
841.016	15732
841.153	15679
841.29	15926
841.427	15743
841.564	15846
841.701	15922
841.838	15774
841.975	15606
842.112	15679
842.249	15606
842.385	15622
842.522	15759
842.659	15618
842.796	15584
842.933	15603
843.069	15466
843.206	15519
843.343	15614
843.479	15534
843.616	15606
843.752	15424
843.889	15393
844.025	15431
844.162	15359
844.298	15496
844.435	15348
844.571	15359
844.708	15416
844.844	15450
844.98	15496
845.117	15481
845.253	15321
845.389	15203
845.525	15207
845.661	15211
845.798	15161
845.934	15226
846.07	15100
846.206	15207
846.342	15287
846.478	15203
846.614	14963
846.75	14921
846.886	14857
847.022	15020
847.158	14914
847.294	14918
847.429	14994
847.565	14899
847.701	15085
847.837	14712
847.972	14663
848.108	14716
848.244	14701
848.379	14606
848.515	14484
848.65	14457
848.786	14530
848.921	14518
849.057	14598
849.192	14575
849.328	14667
849.463	14632
849.598	14518
849.734	14457
849.869	14454
850.004	14336
850.14	14385
850.275	14362
850.41	14161
850.545	14332
850.68	14271
850.815	14267
850.95	14240
851.085	14533
851.22	14412
851.355	14324
851.49	14317
851.625	14275
851.76	14244
851.895	14214
852.03	14168
852.165	14267
852.299	14313
852.434	14347
852.569	14328
852.703	14355
852.838	14450
852.973	14469
853.107	14393
853.242	14278
853.376	14168
853.511	14062
853.645	14123
853.78	14286
853.914	14233
854.048	14210
854.183	14111
854.317	14161
854.451	14366
854.585	14065
854.72	14157
854.854	14172
854.988	14084
855.122	14123
855.256	13970
855.39	14210
855.524	14157
855.658	14248
855.792	14195
855.926	14221
856.06	14221
856.194	14313
856.327	14142
856.461	14077
856.595	14046
856.729	14115
856.862	14240
856.996	14244
857.13	14278
857.263	14324
857.397	14172
857.53	14301
857.664	14210
857.797	14225
857.931	14278
858.064	14214
858.197	14256
858.331	14199
858.464	14119
858.597	14145
858.731	14168
858.864	14081
858.997	14058
859.13	14278
859.263	14187
859.396	14202
859.529	14214
859.662	14142
859.795	14126
859.928	14195
860.061	14317
860.194	14320
860.327	14187
860.46	14130
860.592	14309
860.725	14237
860.858	14275
860.99	14073
861.123	14111
861.256	14069
861.388	14176
861.521	14883
861.653	14043
861.786	14027
861.918	14050
862.05	14027
862.183	14100
862.315	14092
862.447	14233
862.58	14107
862.712	13936
862.844	13852
862.976	13989
863.108	14008
863.24	14438
863.372	13818
863.504	13936
863.636	13906
863.768	13955
863.9	13974
864.032	13906
864.164	13803
864.296	13970
864.428	14016
864.559	13978
864.691	14043
864.823	14027
864.954	13978
865.086	14046
865.217	13864
865.349	13875
865.48	13890
865.612	13936
865.743	14012
865.875	13947
866.006	13887
866.137	13936
866.269	13959
866.4	13894
866.531	13860
866.662	13742
866.793	13898
866.924	13917
867.055	13921
867.186	13951
867.317	13982
867.448	13814
867.579	13936
867.71	13864
867.841	13841
867.972	13944
868.103	13921
868.233	14065
868.364	13986
868.495	14008
868.625	14168
868.756	14183
868.886	14103
869.017	14187
869.147	14305
869.278	14298
869.408	14210
869.539	14153
869.669	14229
869.799	14221
869.929	14336
870.06	14301
870.19	14492
870.32	14377
870.45	14461
870.58	14640
870.71	14659
870.84	14697
870.97	14579
871.1	14575
871.23	14804
871.36	14853
871.489	14602
871.619	14777
871.749	14853
871.879	14826
872.008	14891
872.138	14792
872.267	14739
872.397	14686
872.526	14602
872.656	14564
872.785	14651
872.915	14777
873.044	14948
873.173	14773
873.303	14842
873.432	14895
873.561	14838
873.69	14811
873.819	14785
873.948	14986
874.077	14960
874.206	14792
874.335	14857
874.464	14868
874.593	15169
874.722	15051
874.851	15169
874.979	15245
875.108	15226
875.237	15085
875.365	15104
875.494	15093
875.623	15211
875.751	15047
875.88	15161
876.008	15279
876.136	15412
876.265	15458
876.393	15713
876.521	15694
876.65	15644
876.778	15587
876.906	15515
877.034	15561
877.162	15557
877.29	15500
877.418	15542
877.546	15504
877.674	15504
877.802	15587
877.93	15561
878.058	15450
878.185	15466
878.313	15595
878.441	15576
878.568	15416
878.696	15492
878.824	15618
878.951	15694
879.079	15743
879.206	15835
879.333	15800
879.461	15591
879.588	15671
879.715	15724
879.842	15880
879.97	15610
880.097	15370
880.224	15348
880.351	15431
880.478	15488
880.605	15389
880.732	15412
880.859	15709
880.986	15507
881.112	15412
881.239	15363
881.366	15287
881.493	15203
881.619	15104
881.746	15112
881.872	15135
881.999	15161
882.125	15176
882.252	15100
882.378	15169
882.505	15256
882.631	15138
882.757	14921
882.883	14990
883.01	14986
883.136	14838
883.262	14773
883.388	14712
883.514	14880
883.64	14986
883.766	14872
883.892	14769
884.018	14826
884.143	14975
884.269	14979
884.395	14781
884.52	14663
884.646	14648
884.772	14560
884.897	14613
885.023	14625
885.148	14705
885.274	14872
885.399	14674
885.524	14739
885.65	14571
885.775	14629
885.9	14663
886.025	14746
886.15	14682
886.275	14473
886.4	14590
886.525	14629
886.65	14503
886.775	14606
886.9	14758
887.025	14796
887.149	14636
887.274	14571
887.399	14415
887.523	14469
887.648	14461
887.773	14355
887.897	14533
888.021	14530
888.146	14446
888.27	14526
888.395	14621
888.519	14541
888.643	14499
888.767	14571
888.891	14412
889.015	14415
889.139	14400
889.263	14332
889.387	14480
889.511	14545
889.635	14488
889.759	14278
889.883	14362
890.006	14438
890.13	14377
890.254	14263
890.377	14256
890.501	14191
890.624	14142
890.748	14290
890.871	14073
890.995	14008
891.118	14012
891.241	14012
891.364	14027
891.488	14172
891.611	14031
891.734	14058
891.857	14229
891.98	13997
892.103	14107
892.226	14084
892.349	14027
892.471	13856
892.594	13963
892.717	14001
892.839	13978
892.962	14081
893.085	14168
893.207	14058
893.33	13932
893.452	13978
893.575	14130
893.697	13986
893.819	14199
893.941	14229
894.064	14195
894.186	13993
894.308	14069
894.43	14161
894.552	14282
894.674	14191
894.796	13963
894.918	14081
895.04	14123
895.161	14195
895.283	14084
895.405	14130
895.526	14058
895.648	14149
895.769	14157
895.891	14225
896.012	14271
896.134	14221
896.255	14138
896.376	14199
896.498	14134
896.619	14191
896.74	14187
896.861	14263
896.982	14503
897.103	14678
897.224	14507
897.345	14457
897.466	14358
897.587	14549
897.708	14693
897.828	14522
897.949	14389
898.07	14313
898.19	14450
898.311	14575
898.431	14473
898.552	14518
898.672	14602
898.792	14594
898.913	14488
899.033	14465
899.153	14355
899.273	14290
899.393	14385
899.513	14377
899.633	14415
899.753	14438
899.873	14275
899.993	14454
900.113	14339
900.232	14530
900.352	14442
900.472	14294
900.591	14240
900.711	14286
900.83	14256
900.95	14389
901.069	14256
901.189	14183
901.308	13944
901.427	13940
901.546	13909
901.665	14039
901.784	13978
901.904	13803
902.023	13769
902.141	13578
902.26	13491
902.379	13537
902.498	13605
902.617	13441
902.735	13430
902.854	13491
902.973	13415
903.091	13251
903.21	13301
903.328	13270
903.446	13198
903.565	13050
903.683	13076
903.801	12852
903.919	13156
904.038	13126
904.156	12829
904.274	12947
904.392	12939
904.51	12840
904.627	12905
904.745	12856
904.863	12951
904.981	12692
905.098	12620
905.216	12574
905.334	12597
905.451	12642
905.569	12601
905.686	12623
905.803	12593
905.921	12422
906.038	12506
906.155	12437
906.272	12342
906.389	12372
906.506	12133
906.623	12175
906.74	12254
906.857	12030
906.974	12053
907.091	12194
907.208	12346
907.324	12213
907.441	12121
907.557	12022
907.674	11958
907.79	11935
907.907	11912
908.023	11988
908.139	11923
908.256	11916
908.372	11889
908.488	11824
908.604	11722
908.72	11592
908.836	11699
908.952	11592
909.068	11714
909.184	11847
909.3	11707
909.415	11748
909.531	11741
909.647	11425
909.762	11501
909.878	11463
909.993	11528
910.108	11425
910.224	11459
910.339	11414
910.454	11334
910.57	11364
910.685	11239
910.8	11509
910.915	11463
911.03	11322
911.145	11212
911.259	11105
911.374	11166
911.489	11094
911.604	10980
911.718	10968
911.833	10930
911.947	10862
912.062	10809
912.176	10908
912.291	10877
912.405	10957
912.519	11132
912.633	11025
912.748	11045
912.862	10885
912.976	10812
913.09	10725
913.204	10721
913.318	10850
913.431	10923
913.545	10927
913.659	10892
913.772	10854
913.886	10797
914	10656
914.113	10816
914.226	10759
914.34	10778
914.453	10599
914.566	10736
914.68	10580
914.793	10615
914.906	10516
915.019	10371
915.132	10276
915.245	10413
915.358	10421
915.47	10402
915.583	10455
915.696	10508
915.809	10596
915.921	10626
916.034	10405
916.146	10390
916.259	10337
916.371	10436
916.483	10379
916.595	10333
916.708	10470
916.82	10447
916.932	10352
917.044	10375
917.156	10382
917.268	10223
917.38	10192
917.491	10227
917.603	10299
917.715	10303
917.826	10360
917.938	10295
918.049	10128
918.161	10268
918.272	10417
918.384	10318
918.495	10238
918.606	10207
918.717	10013
918.828	10116
918.939	10223
919.05	10025
919.161	10143
919.272	10021
919.383	10048
919.494	10207
919.604	10337
919.715	10097
919.826	10101
919.936	10124
920.047	10261
920.157	10287
920.267	10382
920.378	10276
920.488	10177
920.598	10333
920.708	10558
920.818	10379
920.928	10367
921.038	10459
921.148	10459
921.258	10200
921.368	10078
921.477	10032
921.587	9975
921.697	9911
921.806	10131
921.916	9926
922.025	9808
922.134	9690
922.244	9724
922.353	9686
922.462	9603
922.571	9610
922.68	9458
922.789	9359
922.898	9458
923.007	9310
923.116	9466
923.224	9431
923.333	9306
923.442	9348
923.55	9294
923.659	9313
923.767	9351
923.876	9287
923.984	9374
924.092	9184
924.201	9332
924.309	9275
924.417	9329
924.525	9245
924.633	9226
924.741	10196
924.849	9009
924.956	9218
925.064	9085
925.172	8948
925.279	9077
925.387	9138
925.494	9097
925.602	9176
925.709	9123
925.816	9020
925.924	9093
926.031	9104
926.138	9123
926.245	9154
926.352	8948
926.459	9108
926.566	9199
926.673	8990
926.779	8914
926.886	8971
926.993	8857
927.099	8781
927.206	8792
927.312	8800
927.419	8830
927.525	8807
927.631	8864
927.737	8708
927.843	8678
927.95	8587
928.056	8667
928.162	8682
928.267	8781
928.373	9351
928.479	8785
928.585	8541
928.69	8674
928.796	8632
928.901	8636
929.007	8492
929.112	8606
929.218	8598
929.323	8518
929.428	8457
929.533	8610
929.638	8495
929.743	8473
929.848	8571
929.953	8552
930.058	8480
930.163	8202
930.267	8324
930.372	8389
930.477	8267
930.581	8530
930.685	8305
930.79	8259
930.894	8259
930.998	8210
931.103	8377
931.207	8001
931.311	7917
931.415	7871
931.519	7799
931.623	7727
