Data from test_V78500241_1147.txt Node
Date: Fri Mar 25 14:41:42 CST 2022
User: usil
Spectrometer: V785-0024
Trigger mode: 0
Integration Time (sec): 4.000000E-1
Scans to average: 1
Nonlinearity correction enabled: false
Boxcar width: 0
Storing dark spectrum: false
XAxis mode: Wavelengths
Number of Pixels in Spectrum: 1024
>>>>>Begin Spectral Data<<<<<
801.071	22508
801.214	22485
801.356	22253
801.499	22109
801.641	21979
801.783	22006
801.926	22006
802.068	21934
802.211	21774
802.353	21671
802.496	21542
802.638	21469
802.78	21332
802.923	21393
803.065	21233
803.208	21272
803.35	21233
803.492	21340
803.635	21374
803.777	21184
803.919	21420
804.061	21625
804.204	21279
804.346	21275
804.488	21119
804.63	21226
804.773	21108
804.915	21218
805.057	21249
805.199	21252
805.341	21188
805.483	21287
805.626	21294
805.768	21108
805.91	21173
806.052	21237
806.194	21116
806.336	21298
806.478	21055
806.62	21157
806.762	21157
806.904	21386
807.046	21591
807.188	21591
807.33	21481
807.472	21572
807.614	21473
807.756	21648
807.898	21382
808.04	21351
808.182	21192
808.324	21500
808.465	21435
808.607	21633
808.749	21892
808.891	21987
809.033	22040
809.174	21945
809.316	21747
809.458	21739
809.6	21610
809.741	21705
809.883	21743
810.025	21823
810.166	21781
810.308	21682
810.45	21701
810.591	21648
810.733	21507
810.875	21450
811.016	21367
811.158	21252
811.299	21462
811.441	21633
811.582	21488
811.724	21458
811.865	21389
812.007	21340
812.148	21355
812.29	21355
812.431	21587
812.573	21690
812.714	21793
812.855	21926
812.997	21907
813.138	22207
813.279	21941
813.421	21888
813.562	21743
813.703	21755
813.845	21591
813.986	21310
814.127	21096
814.268	21032
814.41	20921
814.551	20838
814.692	20906
814.833	20872
814.974	20941
815.115	20834
815.256	20724
815.397	20674
815.539	20792
815.68	20629
815.821	20613
815.962	20667
816.103	20617
816.244	20473
816.385	20495
816.526	20351
816.666	20168
816.807	20092
816.948	20218
817.089	20210
817.23	20119
817.371	20122
817.512	20092
817.653	20016
817.793	19993
817.934	20115
818.075	20111
818.216	20100
818.356	20027
818.497	19852
818.638	19849
818.778	19811
818.919	19845
819.06	19795
819.2	19856
819.341	19936
819.481	19944
819.622	20115
819.762	20290
819.903	20164
820.043	20176
820.184	20008
820.324	20096
820.465	19993
820.605	20062
820.746	20069
820.886	19898
821.026	20111
821.167	20084
821.307	20005
821.447	19970
821.588	19822
821.728	19734
821.868	19670
822.008	19411
822.149	19441
822.289	19449
822.429	19160
822.569	19160
822.709	19080
822.849	18951
822.99	18989
823.13	18973
823.27	18905
823.41	18779
823.55	18642
823.69	18726
823.83	18875
823.97	18745
824.11	18528
824.25	18589
824.389	18513
824.529	18589
824.669	18445
824.809	18528
824.949	18681
825.089	18700
825.228	18528
825.368	18334
825.508	18380
825.648	18319
825.787	18334
825.927	18380
826.067	18277
826.206	18346
826.346	18327
826.485	18296
826.625	18327
826.765	18342
826.904	18376
827.044	18125
827.183	18007
827.323	17931
827.462	18022
827.601	17992
827.741	18064
827.88	18030
828.02	17908
828.159	18110
828.298	18098
828.437	18076
828.577	17950
828.716	18102
828.855	18064
828.994	17691
829.134	17680
829.273	17840
829.412	17794
829.551	17695
829.69	17760
829.829	17798
829.968	17786
830.107	17836
830.246	17718
830.385	17684
830.524	17676
830.663	17577
830.802	17539
830.941	17414
831.08	17356
831.219	17455
831.357	17410
831.496	17535
831.635	17433
831.774	17208
831.913	17345
832.051	17178
832.19	17170
832.329	17273
832.467	17132
832.606	17109
832.744	17033
832.883	17071
833.022	16972
833.16	17166
833.299	17064
833.437	17083
833.576	17254
833.714	17147
833.852	17166
833.991	17159
834.129	17170
834.267	17208
834.406	17178
834.544	17162
834.682	17121
834.821	17136
834.959	17223
835.097	17136
835.235	17265
835.373	17303
835.511	17045
835.65	17113
835.788	17045
835.926	16923
836.064	16778
836.202	16831
836.34	17025
836.478	17147
836.615	16923
836.753	17003
836.891	17189
837.029	17060
837.167	16949
837.305	17048
837.443	16938
837.58	16805
837.718	16980
837.856	16999
837.993	16911
838.131	16793
838.269	16839
838.406	16862
838.544	16877
838.681	16554
838.819	16531
838.956	16481
839.094	16516
839.231	16519
839.369	16653
839.506	16797
839.643	16645
839.781	16493
839.918	16481
840.055	16535
840.193	16500
840.33	16462
840.467	16493
840.604	16565
840.742	16694
840.879	16272
841.016	16226
841.153	16371
841.29	16497
841.427	16497
841.564	16474
841.701	16382
841.838	16287
841.975	16371
842.112	16329
842.249	16299
842.385	16238
842.522	16375
842.659	16379
842.796	16280
842.933	16280
843.069	16230
843.206	16234
843.343	16211
843.479	16280
843.616	16188
843.752	16059
843.889	16006
844.025	16207
844.162	15888
844.298	16158
844.435	15994
844.571	15987
844.708	16074
844.844	16268
844.98	16242
845.117	16234
845.253	16048
845.389	15964
845.525	15987
845.661	15975
845.798	16036
845.934	16181
846.07	16074
846.206	16090
846.342	16120
846.478	15983
846.614	15717
846.75	15584
846.886	15584
847.022	15732
847.158	15580
847.294	15610
847.429	15622
847.565	15572
847.701	15690
847.837	15279
847.972	15317
848.108	15351
848.244	15401
848.379	15241
848.515	15188
848.65	15116
848.786	15188
848.921	15207
849.057	15363
849.192	15226
849.328	15131
849.463	15131
849.598	15131
849.734	15028
849.869	15058
850.004	14975
850.14	14948
850.275	14998
850.41	14815
850.545	14845
850.68	14948
850.815	14975
850.95	14925
851.085	15070
851.22	15062
851.355	15001
851.49	14902
851.625	14864
851.76	14914
851.895	14845
852.03	14727
852.165	14929
852.299	15001
852.434	15108
852.569	15009
852.703	14990
852.838	14971
852.973	15097
853.107	15127
853.242	14933
853.376	14807
853.511	14731
853.645	14861
853.78	14857
853.914	14773
854.048	14754
854.183	14716
854.317	14792
854.451	14975
854.585	14731
854.72	14823
854.854	14804
854.988	14727
855.122	14872
855.256	14678
855.39	14842
855.524	14861
855.658	14861
855.792	14800
855.926	14830
856.06	14807
856.194	14868
856.327	14807
856.461	14724
856.595	14788
856.729	14762
856.862	14853
856.996	14876
857.13	14925
857.263	14925
857.397	15017
857.53	14758
857.664	14864
857.797	14948
857.931	14887
858.064	14861
858.197	14956
858.331	14838
858.464	14765
858.597	14640
858.731	14777
858.864	14834
858.997	14781
859.13	14834
859.263	14849
859.396	14864
859.529	14731
859.662	14781
859.795	14648
859.928	14811
860.061	14948
860.194	14944
860.327	14807
860.46	14762
860.592	15043
860.725	14872
860.858	14887
860.99	14842
861.123	14716
861.256	14777
861.388	14727
861.521	15584
861.653	14625
861.786	14549
861.918	14613
862.05	14663
862.183	14781
862.315	14758
862.447	14765
862.58	14720
862.712	14465
862.844	14427
862.976	14613
863.108	14659
863.24	15055
863.372	14492
863.504	14511
863.636	14480
863.768	14511
863.9	14579
864.032	14476
864.164	14602
864.296	14579
864.428	14667
864.559	14640
864.691	14640
864.823	14651
864.954	14594
865.086	14602
865.217	14617
865.349	14503
865.48	14488
865.612	14480
865.743	14689
865.875	14530
866.006	14568
866.137	14560
866.269	14602
866.4	14537
866.531	14450
866.662	14454
866.793	14469
866.924	14446
867.055	14499
867.186	14583
867.317	14492
867.448	14404
867.579	14552
867.71	14526
867.841	14457
867.972	14648
868.103	14473
868.233	14495
868.364	14564
868.495	14636
868.625	14750
868.756	14868
868.886	14678
869.017	14777
869.147	14800
869.278	14910
869.408	14834
869.539	14750
869.669	14800
869.799	14777
869.929	14952
870.06	15017
870.19	15062
870.32	15024
870.45	15192
870.58	15241
870.71	15370
870.84	15264
870.97	15161
871.1	15203
871.23	15420
871.36	15393
871.489	15340
871.619	15401
871.749	15431
871.879	15363
872.008	15473
872.138	15500
872.267	15325
872.397	15268
872.526	15157
872.656	15169
872.785	15260
872.915	15450
873.044	15488
873.173	15420
873.303	15511
873.432	15424
873.561	15439
873.69	15374
873.819	15492
873.948	15469
874.077	15496
874.206	15428
874.335	15507
874.464	15652
874.593	15667
874.722	15652
874.851	15739
874.979	15770
875.108	15812
875.237	15808
875.365	15663
875.494	15713
875.623	15850
875.751	15759
875.88	15781
876.008	15865
876.136	16010
876.265	16200
876.393	16306
876.521	16211
876.65	16299
876.778	16211
876.906	16082
877.034	16002
877.162	16036
877.29	15983
877.418	16188
877.546	16101
877.674	16169
877.802	16185
877.93	16223
878.058	16128
878.185	16059
878.313	16204
878.441	16185
878.568	15975
878.696	16090
878.824	16276
878.951	16219
879.079	16322
879.206	16611
879.333	16417
879.461	16432
879.588	16379
879.715	16497
879.842	16580
879.97	16424
880.097	16120
880.224	16112
880.351	16101
880.478	16128
880.605	16059
880.732	16135
880.859	16428
880.986	16025
881.112	16074
881.239	15926
881.366	15778
881.493	15732
881.619	15686
881.746	15781
881.872	15610
881.999	15644
882.125	15701
882.252	15686
882.378	15622
882.505	15835
882.631	15561
882.757	15469
882.883	15614
883.01	15545
883.136	15401
883.262	15374
883.388	15272
883.514	15481
883.64	15504
883.766	15462
883.892	15256
884.018	15283
884.143	15488
884.269	15682
884.395	15294
884.52	15157
884.646	15233
884.772	15131
884.897	15097
885.023	15275
885.148	15237
885.274	15351
885.399	15355
885.524	15298
885.65	15165
885.775	15131
885.9	15214
886.025	15344
886.15	15226
886.275	15264
886.4	15131
886.525	15116
886.65	15252
886.775	15192
886.9	15268
887.025	15428
887.149	15252
887.274	15013
887.399	15009
887.523	14956
887.648	14979
887.773	14925
887.897	15062
888.021	15138
888.146	14941
888.27	15070
888.395	15127
888.519	15020
888.643	15116
888.767	15081
888.891	14937
889.015	14826
889.139	14925
889.263	14880
889.387	14963
889.511	15020
889.635	14998
889.759	14838
889.883	14762
890.006	14819
890.13	14975
890.254	14727
890.377	14838
890.501	14590
890.624	14533
890.748	14773
890.871	14602
890.995	14621
891.118	14469
891.241	14594
891.364	14530
891.488	14644
891.611	14583
891.734	14446
891.857	14560
891.98	14564
892.103	14655
892.226	14663
892.349	14450
892.471	14393
892.594	14514
892.717	14602
892.839	14461
892.962	14469
893.085	14579
893.207	14552
893.33	14541
893.452	14511
893.575	14617
893.697	14507
893.819	14773
893.941	14739
894.064	14686
894.186	14499
894.308	14446
894.43	14579
894.552	14769
894.674	14617
894.796	14511
894.918	14556
895.04	14590
895.161	14636
895.283	14625
895.405	14545
895.526	14617
895.648	14682
895.769	14670
895.891	14678
896.012	14743
896.134	14777
896.255	14651
896.376	14670
896.498	14651
896.619	14762
896.74	14697
896.861	14705
896.982	15108
897.103	15108
897.224	15070
897.345	14902
897.466	14929
897.587	14990
897.708	15112
897.828	15062
897.949	14864
898.07	14918
898.19	14937
898.311	15062
898.431	14933
898.552	15089
898.672	15062
898.792	15058
898.913	15074
899.033	14956
899.153	14956
899.273	14823
899.393	14872
899.513	14883
899.633	14861
899.753	14975
899.873	14819
899.993	14902
900.113	14849
900.232	14941
900.352	14929
900.472	14731
900.591	14674
900.711	14724
900.83	14773
900.95	14838
901.069	14815
901.189	14583
901.308	14507
901.427	14351
901.546	14343
901.665	14518
901.784	14434
901.904	14252
902.023	14256
902.141	14008
902.26	14016
902.379	14043
902.498	13917
902.617	13883
902.735	13936
902.854	13974
902.973	13909
903.091	13655
903.21	13700
903.328	13677
903.446	13499
903.565	13544
903.683	13575
903.801	13491
903.919	13605
904.038	13411
904.156	13434
904.274	13388
904.392	13362
904.51	13362
904.627	13346
904.745	13384
904.863	13392
904.981	13187
905.098	12985
905.216	13053
905.334	13023
905.451	13038
905.569	12977
905.686	13061
905.803	13088
905.921	12848
906.038	13000
906.155	12882
906.272	12829
906.389	12806
906.506	12669
906.623	12650
906.74	12616
906.857	12517
906.974	12513
907.091	12650
907.208	12745
907.324	12753
907.441	12513
907.557	12486
907.674	12418
907.79	12273
907.907	12441
908.023	12346
908.139	12445
908.256	12327
908.372	12346
908.488	12254
908.604	12098
908.72	12091
908.836	12114
908.952	12041
909.068	12197
909.184	12235
909.3	12079
909.415	12163
909.531	12117
909.647	11885
909.762	11866
909.878	11851
909.993	11870
910.108	11882
910.224	11836
910.339	11882
910.454	11775
910.57	11676
910.685	11710
910.8	11863
910.915	11897
911.03	11790
911.145	11634
911.259	11493
911.374	11547
911.489	11528
911.604	11497
911.718	11334
911.833	11368
911.947	11193
912.062	11181
912.176	11360
912.291	11280
912.405	11345
912.519	11524
912.633	11585
912.748	11448
912.862	11273
912.976	11170
913.09	11162
913.204	11083
913.318	11185
913.431	11223
913.545	11299
913.659	11353
913.772	11185
913.886	11075
914	11048
914.113	11170
914.226	11124
914.34	11204
914.453	11037
914.566	11242
914.68	11041
914.793	11045
914.906	10873
915.019	10816
915.132	10725
915.245	10778
915.358	10889
915.47	10866
915.583	10835
915.696	10896
915.809	10965
915.921	11018
916.034	10721
916.146	10793
916.259	10736
916.371	10843
916.483	10729
916.595	10767
916.708	10809
916.82	10729
916.932	10714
917.044	10744
917.156	10694
917.268	10565
917.38	10675
917.491	10626
917.603	10645
917.715	10759
917.826	10740
917.938	10615
918.049	10516
918.161	10615
918.272	10721
918.384	10763
918.495	10649
918.606	10519
918.717	10451
918.828	10626
918.939	10512
919.05	10402
919.161	10447
919.272	10341
919.383	10394
919.494	10584
919.604	10641
919.715	10519
919.826	10485
919.936	10440
920.047	10558
920.157	10565
920.267	10660
920.378	10542
920.488	10519
920.598	10694
920.708	10908
920.818	10729
920.928	10675
921.038	10881
921.148	10869
921.258	10470
921.368	10432
921.477	10421
921.587	10398
921.697	10257
921.806	10386
921.916	10276
922.025	10109
922.134	10067
922.244	10051
922.353	10063
922.462	10036
922.571	9930
922.68	9804
922.789	9736
922.898	9800
923.007	9663
923.116	9701
923.224	9751
923.333	9724
923.442	9599
923.55	9580
923.659	9656
923.767	9728
923.876	9572
923.984	9660
924.092	9580
924.201	9618
924.309	9644
924.417	9667
924.525	9587
924.633	9652
924.741	10402
924.849	9370
924.956	9523
925.064	9329
925.172	9359
925.279	9374
925.387	9389
925.494	9389
925.602	9530
925.709	9500
925.816	9283
925.924	9367
926.031	9443
926.138	9393
926.245	9485
926.352	9313
926.459	9431
926.566	9439
926.673	9367
926.779	9291
926.886	9294
926.993	9123
927.099	9127
927.206	9024
927.312	9100
927.419	9093
927.525	9119
927.631	9157
927.737	9013
927.843	9047
927.95	8872
928.056	8990
928.162	8967
928.267	9036
928.373	9633
928.479	9138
928.585	8887
928.69	8971
928.796	8986
928.901	8864
929.007	8769
929.112	8849
929.218	8804
929.323	8773
929.428	8743
929.533	9013
929.638	8815
929.743	8777
929.848	8815
929.953	8785
930.058	8727
930.163	8511
930.267	8571
930.372	8670
930.477	8541
930.581	8830
930.685	8716
930.79	8522
930.894	8556
930.998	8541
931.103	8648
931.207	8305
931.311	8225
931.415	8145
931.519	7951
931.623	7955
