Data from test_V78500241_2118.txt Node
Date: Fri Mar 25 14:48:27 CST 2022
User: usil
Spectrometer: V785-0024
Trigger mode: 0
Integration Time (sec): 4.000000E-1
Scans to average: 1
Nonlinearity correction enabled: false
Boxcar width: 0
Storing dark spectrum: false
XAxis mode: Wavelengths
Number of Pixels in Spectrum: 1024
>>>>>Begin Spectral Data<<<<<
801.071	22112
801.214	22036
801.356	21701
801.499	21785
801.641	21572
801.783	21408
801.926	21424
802.068	21511
802.211	21405
802.353	21336
802.496	21051
802.638	21051
802.78	20960
802.923	20842
803.065	20788
803.208	20701
803.35	20845
803.492	20883
803.635	21039
803.777	20899
803.919	20838
804.061	21116
804.204	20815
804.346	20609
804.488	20670
804.63	20807
804.773	20754
804.915	20765
805.057	20796
805.199	20746
805.341	20941
805.483	20914
805.626	20788
805.768	20727
805.91	20807
806.052	20937
806.194	20644
806.336	20979
806.478	20762
806.62	20716
806.762	20823
806.904	20872
807.046	21089
807.188	21150
807.33	21032
807.472	21138
807.614	20952
807.756	20921
807.898	20727
808.04	20838
808.182	20876
808.324	20853
808.465	20910
808.607	20948
808.749	21176
808.891	21226
809.033	21268
809.174	21279
809.316	21074
809.458	21112
809.6	21093
809.741	21188
809.883	21230
810.025	21378
810.166	21302
810.308	21272
810.45	21154
810.591	21176
810.733	20998
810.875	20880
811.016	20811
811.158	20727
811.299	20925
811.441	21108
811.582	20998
811.724	20918
811.865	20876
812.007	20963
812.148	20868
812.29	20948
812.431	21043
812.573	21127
812.714	21325
812.855	21370
812.997	21424
813.138	21663
813.279	21485
813.421	21332
813.562	21188
813.703	21085
813.845	20952
813.986	20758
814.127	20556
814.268	20533
814.41	20419
814.551	20571
814.692	20393
814.833	20396
814.974	20286
815.115	20446
815.256	20271
815.397	20240
815.539	20339
815.68	20202
815.821	20073
815.962	20122
816.103	20111
816.244	20058
816.385	19940
816.526	19917
816.666	19700
816.807	19639
816.948	19609
817.089	19788
817.23	19681
817.371	19613
817.512	19559
817.653	19567
817.793	19525
817.934	19647
818.075	19556
818.216	19582
818.356	19533
818.497	19468
818.638	19377
818.778	19384
818.919	19316
819.06	19297
819.2	19388
819.341	19419
819.481	19468
819.622	19567
819.762	19731
819.903	19635
820.043	19582
820.184	19647
820.324	19563
820.465	19624
820.605	19518
820.746	19537
820.886	19453
821.026	19533
821.167	19434
821.307	19613
821.447	19480
821.588	19411
821.728	19270
821.868	19057
822.008	18951
822.149	18966
822.289	18996
822.429	18760
822.569	18631
822.709	18741
822.849	18452
822.99	18509
823.13	18395
823.27	18353
823.41	18190
823.55	18277
823.69	18216
823.83	18346
823.97	18281
824.11	18098
824.25	18038
824.389	17961
824.529	18114
824.669	17980
824.809	18194
824.949	18072
825.089	18106
825.228	18015
825.368	17939
825.508	17809
825.648	17824
825.787	17908
825.927	17908
826.067	17756
826.206	17767
826.346	17828
826.485	17824
826.625	17748
826.765	17832
826.904	17870
827.044	17638
827.183	17585
827.323	17482
827.462	17642
827.601	17554
827.741	17406
827.88	17478
828.02	17429
828.159	17459
828.298	17490
828.437	17570
828.577	17562
828.716	17630
828.855	17554
828.994	17318
829.134	17235
829.273	17356
829.412	17181
829.551	17193
829.69	17216
829.829	17208
829.968	17364
830.107	17296
830.246	17311
830.385	17273
830.524	17212
830.663	17102
830.802	17041
830.941	16942
831.08	16820
831.219	16946
831.357	16919
831.496	17018
831.635	16889
831.774	16805
831.913	16812
832.051	16668
832.19	16615
832.329	16630
832.467	16588
832.606	16615
832.744	16531
832.883	16630
833.022	16481
833.16	16569
833.299	16531
833.437	16599
833.576	16565
833.714	16481
833.852	16694
833.991	16626
834.129	16725
834.267	16634
834.406	16615
834.544	16668
834.682	16664
834.821	16546
834.959	16835
835.097	16561
835.235	16672
835.373	16618
835.511	16615
835.65	16481
835.788	16580
835.926	16322
836.064	16291
836.202	16409
836.34	16478
836.478	16672
836.615	16443
836.753	16489
836.891	16580
837.029	16569
837.167	16489
837.305	16443
837.443	16424
837.58	16432
837.718	16363
837.856	16322
837.993	16287
838.131	16478
838.269	16291
838.406	16261
838.544	16158
838.681	16173
838.819	16093
838.956	15842
839.094	15945
839.231	15975
839.369	16097
839.506	16337
839.643	16204
839.781	15861
839.918	15835
840.055	16143
840.193	15918
840.33	15930
840.467	15934
840.604	15937
840.742	16181
840.879	15812
841.016	15884
841.153	15827
841.29	16040
841.427	16082
841.564	15968
841.701	15960
841.838	15876
841.975	15800
842.112	15911
842.249	15724
842.385	15743
842.522	15869
842.659	15728
842.796	15656
842.933	15648
843.069	15618
843.206	15652
843.343	15827
843.479	15736
843.616	15641
843.752	15542
843.889	15572
844.025	15568
844.162	15382
844.298	15618
844.435	15473
844.571	15435
844.708	15557
844.844	15603
844.98	15671
845.117	15629
845.253	15420
845.389	15329
845.525	15416
845.661	15458
845.798	15264
845.934	15298
846.07	15237
846.206	15382
846.342	15397
846.478	15370
846.614	15154
846.75	15085
846.886	15020
847.022	15123
847.158	15093
847.294	15058
847.429	15131
847.565	15009
847.701	15275
847.837	14796
847.972	14712
848.108	14872
848.244	14765
848.379	14655
848.515	14636
848.65	14594
848.786	14705
848.921	14629
849.057	14705
849.192	14823
849.328	14762
849.463	14716
849.598	14598
849.734	14594
849.869	14575
850.004	14476
850.14	14480
850.275	14499
850.41	14408
850.545	14396
850.68	14423
850.815	14431
850.95	14438
851.085	14552
851.22	14461
851.355	14431
851.49	14480
851.625	14408
851.76	14404
851.895	14469
852.03	14176
852.165	14476
852.299	14469
852.434	14533
852.569	14412
852.703	14522
852.838	14571
852.973	14568
853.107	14533
853.242	14366
853.376	14233
853.511	14183
853.645	14191
853.78	14484
853.914	14320
854.048	14389
854.183	14202
854.317	14332
854.451	14522
854.585	14259
854.72	14290
854.854	14309
854.988	14256
855.122	14225
855.256	14130
855.39	14381
855.524	14431
855.658	14294
855.792	14259
855.926	14366
856.06	14362
856.194	14476
856.327	14267
856.461	14229
856.595	14362
856.729	14206
856.862	14446
856.996	14294
857.13	14256
857.263	14305
857.397	14381
857.53	14313
857.664	14434
857.797	14415
857.931	14450
858.064	14385
858.197	14324
858.331	14370
858.464	14339
858.597	14244
858.731	14259
858.864	14248
858.997	14320
859.13	14290
859.263	14195
859.396	14347
859.529	14309
859.662	14301
859.795	14221
859.928	14355
860.061	14450
860.194	14556
860.327	14309
860.46	14290
860.592	14492
860.725	14450
860.858	14442
860.99	14336
861.123	14332
861.256	14286
861.388	14362
861.521	14990
861.653	14199
861.786	14088
861.918	14240
862.05	14161
862.183	14278
862.315	14313
862.447	14355
862.58	14301
862.712	14039
862.844	14069
862.976	14103
863.108	14191
863.24	14431
863.372	14123
863.504	14103
863.636	14035
863.768	14229
863.9	14126
864.032	14035
864.164	14005
864.296	14164
864.428	14138
864.559	14134
864.691	14164
864.823	14225
864.954	14123
865.086	14172
865.217	14084
865.349	14001
865.48	14024
865.612	14145
865.743	14248
865.875	14183
866.006	14031
866.137	14115
866.269	13974
866.4	14103
866.531	14035
866.662	14054
866.793	14016
866.924	14054
867.055	14088
867.186	14065
867.317	13951
867.448	13951
867.579	14058
867.71	13917
867.841	13974
867.972	14077
868.103	14107
868.233	14035
868.364	14027
868.495	14180
868.625	14259
868.756	14408
868.886	14172
869.017	14275
869.147	14408
869.278	14366
869.408	14347
869.539	14290
869.669	14393
869.799	14442
869.929	14450
870.06	14450
870.19	14693
870.32	14663
870.45	14693
870.58	14819
870.71	14724
870.84	14823
870.97	14632
871.1	14708
871.23	14849
871.36	14883
871.489	14921
871.619	14971
871.749	14941
871.879	14941
872.008	14960
872.138	15001
872.267	14906
872.397	14788
872.526	14693
872.656	14815
872.785	14785
872.915	14925
873.044	14986
873.173	14998
873.303	14921
873.432	15100
873.561	15077
873.69	14933
873.819	15013
873.948	15081
874.077	14971
874.206	14967
874.335	14982
874.464	15119
874.593	15317
874.722	15150
874.851	15252
874.979	15233
875.108	15272
875.237	15279
875.365	15199
875.494	15237
875.623	15382
875.751	15214
875.88	15256
876.008	15447
876.136	15557
876.265	15720
876.393	15949
876.521	15781
876.65	15732
876.778	15793
876.906	15614
877.034	15713
877.162	15717
877.29	15622
877.418	15743
877.546	15755
877.674	15709
877.802	15679
877.93	15698
878.058	15690
878.185	15599
878.313	15713
878.441	15667
878.568	15587
878.696	15538
878.824	15812
878.951	15743
879.079	15789
879.206	15930
879.333	15865
879.461	15816
879.588	15770
879.715	15945
879.842	15922
879.97	15804
880.097	15549
880.224	15576
880.351	15614
880.478	15538
880.605	15496
880.732	15511
880.859	15781
880.986	15694
881.112	15584
881.239	15466
881.366	15291
881.493	15275
881.619	15104
881.746	15283
881.872	15249
881.999	15176
882.125	15062
882.252	15264
882.378	15188
882.505	15298
882.631	15138
882.757	15024
882.883	15112
883.01	15013
883.136	14880
883.262	14929
883.388	14868
883.514	15032
883.64	15043
883.766	14998
883.892	14773
884.018	14891
884.143	14933
884.269	15146
884.395	14800
884.52	14758
884.646	14724
884.772	14613
884.897	14621
885.023	14648
885.148	14823
885.274	14929
885.399	14746
885.524	14686
885.65	14826
885.775	14678
885.9	14765
886.025	14910
886.15	14830
886.275	14727
886.4	14648
886.525	14674
886.65	14636
886.775	14655
886.9	14921
887.025	14937
887.149	14746
887.274	14594
887.399	14568
887.523	14446
887.648	14442
887.773	14446
887.897	14670
888.021	14621
888.146	14594
888.27	14621
888.395	14716
888.519	14613
888.643	14644
888.767	14636
888.891	14507
889.015	14450
889.139	14434
889.263	14404
889.387	14499
889.511	14625
889.635	14473
889.759	14374
889.883	14431
890.006	14465
890.13	14492
890.254	14332
890.377	14374
890.501	14199
890.624	14145
890.748	14278
890.871	14168
890.995	14008
891.118	14081
891.241	14088
891.364	14100
891.488	14290
891.611	14164
891.734	14130
891.857	14202
891.98	14172
892.103	14256
892.226	14145
892.349	14046
892.471	14005
892.594	13978
892.717	14103
892.839	14062
892.962	14134
893.085	14187
893.207	14096
893.33	13925
893.452	14008
893.575	14252
893.697	14020
893.819	14256
893.941	14324
894.064	14259
894.186	14024
894.308	14043
894.43	14256
894.552	14290
894.674	14381
894.796	14077
894.918	14195
895.04	14195
895.161	14240
895.283	14111
895.405	14183
895.526	14267
895.648	14240
895.769	14210
895.891	14259
896.012	14347
896.134	14294
896.255	14229
896.376	14206
896.498	14267
896.619	14336
896.74	14256
896.861	14313
896.982	14629
897.103	14845
897.224	14625
897.345	14579
897.466	14324
897.587	14533
897.708	14708
897.828	14621
897.949	14511
898.07	14480
898.19	14480
898.311	14636
898.431	14480
898.552	14602
898.672	14750
898.792	14667
898.913	14644
899.033	14552
899.153	14473
899.273	14332
899.393	14446
899.513	14514
899.633	14507
899.753	14495
899.873	14393
899.993	14476
900.113	14454
900.232	14560
900.352	14450
900.472	14400
900.591	14275
900.711	14278
900.83	14317
900.95	14415
901.069	14533
901.189	14248
901.308	14092
901.427	14039
901.546	14016
901.665	14046
901.784	14043
901.904	13883
902.023	13811
902.141	13658
902.26	13605
902.379	13639
902.498	13605
902.617	13491
902.735	13651
902.854	13571
902.973	13544
903.091	13247
903.21	13274
903.328	13358
903.446	13160
903.565	13213
903.683	13244
903.801	13232
903.919	13202
904.038	13141
904.156	12973
904.274	13088
904.392	13000
904.51	12951
904.627	13012
904.745	13023
904.863	13008
904.981	12711
905.098	12631
905.216	12662
905.334	12669
905.451	12688
905.569	12726
905.686	12719
905.803	12692
905.921	12540
906.038	12589
906.155	12563
906.272	12407
906.389	12395
906.506	12266
906.623	12342
906.74	12220
906.857	12178
906.974	12125
907.091	12330
907.208	12330
907.324	12353
907.441	12129
907.557	12041
907.674	11973
907.79	11942
907.907	11969
908.023	12003
908.139	11996
908.256	12060
908.372	11984
908.488	11931
908.604	11847
908.72	11680
908.836	11756
908.952	11817
909.068	11817
909.184	11866
909.3	11741
909.415	11882
909.531	11813
909.647	11573
909.762	11585
909.878	11478
909.993	11570
910.108	11497
910.224	11455
910.339	11608
910.454	11429
910.57	11337
910.685	11288
910.8	11657
910.915	11551
911.03	11455
911.145	11315
911.259	11181
911.374	11326
911.489	11124
911.604	11265
911.718	10984
911.833	11010
911.947	10911
912.062	10782
912.176	10934
912.291	11064
912.405	10953
912.519	11140
912.633	11201
912.748	11025
912.862	11033
912.976	10866
913.09	10736
913.204	10839
913.318	10839
913.431	10995
913.545	11067
913.659	10949
913.772	10869
913.886	10767
914	10721
914.113	10862
914.226	10801
914.34	10714
914.453	10710
914.566	10885
914.68	10714
914.793	10702
914.906	10489
915.019	10421
915.132	10409
915.245	10474
915.358	10459
915.47	10451
915.583	10531
915.696	10542
915.809	10641
915.921	10637
916.034	10436
916.146	10504
916.259	10470
916.371	10618
916.483	10508
916.595	10428
916.708	10478
916.82	10462
916.932	10356
917.044	10363
917.156	10451
917.268	10341
917.38	10306
917.491	10246
917.603	10428
917.715	10390
917.826	10447
917.938	10310
918.049	10287
918.161	10341
918.272	10485
918.384	10459
918.495	10447
918.606	10253
918.717	10177
918.828	10253
918.939	10215
919.05	10128
919.161	10162
919.272	9991
919.383	10036
919.494	10246
919.604	10481
919.715	10207
919.826	10124
919.936	10154
920.047	10322
920.157	10158
920.267	10493
920.378	10162
920.488	10211
920.598	10455
920.708	10550
920.818	10485
920.928	10333
921.038	10653
921.148	10596
921.258	10257
921.368	10185
921.477	10063
921.587	10101
921.697	9934
921.806	10150
921.916	9926
922.025	9911
922.134	9823
922.244	9701
922.353	9846
922.462	9717
922.571	9584
922.68	9504
922.789	9473
922.898	9500
923.007	9386
923.116	9530
923.224	9492
923.333	9557
923.442	9325
923.55	9336
923.659	9336
923.767	9393
923.876	9332
923.984	9355
924.092	9184
924.201	9420
924.309	9454
924.417	9378
924.525	9317
924.633	9359
924.741	10211
924.849	9165
924.956	9283
925.064	9192
925.172	9119
925.279	9116
925.387	9169
925.494	9131
925.602	9367
925.709	9154
925.816	9055
925.924	9157
926.031	9233
926.138	9161
926.245	9157
926.352	9100
926.459	9188
926.566	9275
926.673	9093
926.779	9051
926.886	8998
926.993	8929
927.099	8815
927.206	8853
927.312	8819
927.419	8849
927.525	8834
927.631	8895
927.737	8735
927.843	8731
927.95	8716
928.056	8746
928.162	8788
928.267	8830
928.373	9321
928.479	8826
928.585	8651
928.69	8724
928.796	8777
928.901	8655
929.007	8499
929.112	8632
929.218	8663
929.323	8594
929.428	8598
929.533	8705
929.638	8518
929.743	8549
929.848	8598
929.953	8663
930.058	8427
930.163	8294
930.267	8389
930.372	8427
930.477	8358
930.581	8564
930.685	8423
930.79	8256
930.894	8309
930.998	8267
931.103	8400
931.207	8142
931.311	8100
931.415	7989
931.519	7776
931.623	7799
