Data from test_V78500241_2168.txt Node
Date: Fri Mar 25 14:48:48 CST 2022
User: usil
Spectrometer: V785-0024
Trigger mode: 0
Integration Time (sec): 4.000000E-1
Scans to average: 1
Nonlinearity correction enabled: false
Boxcar width: 0
Storing dark spectrum: false
XAxis mode: Wavelengths
Number of Pixels in Spectrum: 1024
>>>>>Begin Spectral Data<<<<<
801.071	22185
801.214	22025
801.356	21945
801.499	21728
801.641	21591
801.783	21485
801.926	21496
802.068	21359
802.211	21374
802.353	21348
802.496	21100
802.638	21028
802.78	21024
802.923	20918
803.065	20754
803.208	20853
803.35	20895
803.492	21024
803.635	20937
803.777	20918
803.919	21043
804.061	21146
804.204	20963
804.346	20883
804.488	20785
804.63	20861
804.773	20724
804.915	20811
805.057	20853
805.199	20800
805.341	20823
805.483	20963
805.626	20925
805.768	20735
805.91	20883
806.052	20819
806.194	20640
806.336	20872
806.478	20720
806.62	20830
806.762	20826
806.904	20982
807.046	21226
807.188	21070
807.33	21131
807.472	21184
807.614	20929
807.756	21070
807.898	20956
808.04	20811
808.182	20838
808.324	20948
808.465	20944
808.607	20990
808.749	21146
808.891	21264
809.033	21211
809.174	21332
809.316	21165
809.458	21146
809.6	21131
809.741	21222
809.883	21214
810.025	21245
810.166	21279
810.308	21291
810.45	21359
810.591	21245
810.733	20902
810.875	21036
811.016	20876
811.158	20921
811.299	21036
811.441	21119
811.582	21081
811.724	20937
811.865	20998
812.007	21013
812.148	20853
812.29	20918
812.431	21036
812.573	21302
812.714	21260
812.855	21408
812.997	21507
813.138	21625
813.279	21481
813.421	21386
813.562	21351
813.703	21169
813.845	21005
813.986	20811
814.127	20762
814.268	20503
814.41	20568
814.551	20495
814.692	20484
814.833	20332
814.974	20499
815.115	20503
815.256	20237
815.397	20400
815.539	20351
815.68	20267
815.821	20240
815.962	20187
816.103	20278
816.244	20062
816.385	19883
816.526	20043
816.666	19788
816.807	19655
816.948	19753
817.089	19670
817.23	19662
817.371	19563
817.512	19616
817.653	19643
817.793	19571
817.934	19559
818.075	19715
818.216	19620
818.356	19518
818.497	19483
818.638	19324
818.778	19365
818.919	19381
819.06	19362
819.2	19335
819.341	19499
819.481	19510
819.622	19746
819.762	19830
819.903	19807
820.043	19597
820.184	19651
820.324	19594
820.465	19693
820.605	19548
820.746	19731
820.886	19434
821.026	19499
821.167	19624
821.307	19666
821.447	19548
821.588	19453
821.728	19316
821.868	19255
822.008	19095
822.149	19012
822.289	19004
822.429	18757
822.569	18783
822.709	18760
822.849	18410
822.99	18429
823.13	18486
823.27	18544
823.41	18410
823.55	18247
823.69	18319
823.83	18357
823.97	18254
824.11	18152
824.25	17996
824.389	18102
824.529	18220
824.669	17999
824.809	18136
824.949	18159
825.089	18110
825.228	18053
825.368	17977
825.508	17980
825.648	17843
825.787	17969
825.927	17980
826.067	17775
826.206	17847
826.346	17908
826.485	17870
826.625	17882
826.765	18041
826.904	17821
827.044	17589
827.183	17589
827.323	17467
827.462	17577
827.601	17547
827.741	17490
827.88	17566
828.02	17444
828.159	17406
828.298	17676
828.437	17638
828.577	17452
828.716	17570
828.855	17459
828.994	17467
829.134	17326
829.273	17307
829.412	17200
829.551	17124
829.69	17349
829.829	17277
829.968	17360
830.107	17284
830.246	17337
830.385	17223
830.524	17117
830.663	17010
830.802	17014
830.941	16877
831.08	16934
831.219	16923
831.357	16934
831.496	17147
831.635	16930
831.774	16774
831.913	16752
832.051	16725
832.19	16577
832.329	16729
832.467	16535
832.606	16535
832.744	16596
832.883	16596
833.022	16535
833.16	16634
833.299	16725
833.437	16550
833.576	16645
833.714	16611
833.852	16641
833.991	16656
834.129	16752
834.267	16702
834.406	16645
834.544	16698
834.682	16615
834.821	16645
834.959	16911
835.097	16596
835.235	16736
835.373	16733
835.511	16637
835.65	16470
835.788	16584
835.926	16398
836.064	16352
836.202	16398
836.34	16672
836.478	16656
836.615	16558
836.753	16565
836.891	16672
837.029	16516
837.167	16466
837.305	16451
837.443	16451
837.58	16287
837.718	16519
837.856	16584
837.993	16474
838.131	16440
838.269	16306
838.406	16356
838.544	16253
838.681	16139
838.819	16173
838.956	15941
839.094	15884
839.231	15979
839.369	16082
839.506	16421
839.643	16082
839.781	15953
839.918	15956
840.055	15979
840.193	15972
840.33	15751
840.467	15907
840.604	16074
840.742	16226
840.879	15819
841.016	15785
841.153	15873
841.29	16013
841.427	16051
841.564	15876
841.701	15865
841.838	15911
841.975	15861
842.112	15915
842.249	15842
842.385	15603
842.522	15964
842.659	15686
842.796	15827
842.933	15606
843.069	15656
843.206	15599
843.343	15717
843.479	15743
843.616	15797
843.752	15485
843.889	15584
844.025	15671
844.162	15458
844.298	15603
844.435	15553
844.571	15564
844.708	15561
844.844	15610
844.98	15675
845.117	15671
845.253	15488
845.389	15344
845.525	15458
845.661	15424
845.798	15348
845.934	15355
846.07	15363
846.206	15412
846.342	15450
846.478	15317
846.614	15188
846.75	15081
846.886	15036
847.022	15127
847.158	15104
847.294	15104
847.429	15119
847.565	15062
847.701	15363
847.837	14842
847.972	14830
848.108	14861
848.244	14937
848.379	14697
848.515	14598
848.65	14640
848.786	14735
848.921	14773
849.057	14788
849.192	14826
849.328	14838
849.463	14697
849.598	14648
849.734	14594
849.869	14511
850.004	14526
850.14	14484
850.275	14415
850.41	14271
850.545	14400
850.68	14351
850.815	14480
850.95	14412
851.085	14682
851.22	14640
851.355	14492
851.49	14404
851.625	14374
851.76	14404
851.895	14385
852.03	14355
852.165	14404
852.299	14537
852.434	14556
852.569	14480
852.703	14518
852.838	14511
852.973	14697
853.107	14606
853.242	14454
853.376	14389
853.511	14142
853.645	14275
853.78	14438
853.914	14434
854.048	14298
854.183	14252
854.317	14343
854.451	14442
854.585	14286
854.72	14278
854.854	14347
854.988	14256
855.122	14389
855.256	14172
855.39	14240
855.524	14431
855.658	14366
855.792	14332
855.926	14377
856.06	14415
856.194	14438
856.327	14336
856.461	14240
856.595	14317
856.729	14271
856.862	14347
856.996	14381
857.13	14419
857.263	14431
857.397	14549
857.53	14366
857.664	14343
857.797	14400
857.931	14492
858.064	14343
858.197	14488
858.331	14355
858.464	14282
858.597	14183
858.731	14328
858.864	14305
858.997	14195
859.13	14244
859.263	14339
859.396	14320
859.529	14259
859.662	14237
859.795	14309
859.928	14355
860.061	14492
860.194	14454
860.327	14366
860.46	14313
860.592	14434
860.725	14457
860.858	14351
860.99	14278
861.123	14172
861.256	14252
861.388	14347
861.521	14883
861.653	14225
861.786	14172
861.918	14324
862.05	14332
862.183	14271
862.315	14301
862.447	14431
862.58	14252
862.712	14187
862.844	14035
862.976	14248
863.108	14111
863.24	14431
863.372	14035
863.504	14058
863.636	14027
863.768	14092
863.9	14058
864.032	14020
864.164	13997
864.296	14123
864.428	14244
864.559	14199
864.691	14202
864.823	14157
864.954	14164
865.086	14145
865.217	14142
865.349	14100
865.48	14054
865.612	14092
865.743	14210
865.875	14100
866.006	14062
866.137	14027
866.269	14134
866.4	14191
866.531	14027
866.662	14115
866.793	14039
866.924	13967
867.055	14115
867.186	14111
867.317	14050
867.448	14001
867.579	14008
867.71	13993
867.841	13993
867.972	14077
868.103	14039
868.233	14119
868.364	14062
868.495	14088
868.625	14347
868.756	14362
868.886	14248
869.017	14233
869.147	14461
869.278	14419
869.408	14389
869.539	14374
869.669	14492
869.799	14389
869.929	14446
870.06	14530
870.19	14590
870.32	14602
870.45	14727
870.58	14758
870.71	14834
870.84	14777
870.97	14632
871.1	14670
871.23	14902
871.36	14902
871.489	14807
871.619	14826
871.749	14895
871.879	14918
872.008	14948
872.138	14880
872.267	14975
872.397	14838
872.526	14739
872.656	14727
872.785	14804
872.915	14941
873.044	14998
873.173	14914
873.303	14990
873.432	14948
873.561	15017
873.69	14975
873.819	14963
873.948	15062
874.077	15009
874.206	14941
874.335	14979
874.464	15123
874.593	15252
874.722	15256
874.851	15230
874.979	15321
875.108	15317
875.237	15146
875.365	15119
875.494	15279
875.623	15374
875.751	15207
875.88	15245
876.008	15454
876.136	15466
876.265	15736
876.393	15842
876.521	15705
876.65	15835
876.778	15739
876.906	15781
877.034	15644
877.162	15606
877.29	15637
877.418	15781
877.546	15641
877.674	15682
877.802	15819
877.93	15686
878.058	15648
878.185	15526
878.313	15667
878.441	15759
878.568	15618
878.696	15591
878.824	15804
878.951	15724
879.079	15823
879.206	15915
879.333	15907
879.461	15778
879.588	15926
879.715	15998
879.842	15983
879.97	15766
880.097	15587
880.224	15454
880.351	15568
880.478	15568
880.605	15393
880.732	15515
880.859	15873
880.986	15538
881.112	15614
881.239	15443
881.366	15332
881.493	15207
881.619	15146
881.746	15294
881.872	15116
881.999	15176
882.125	15150
882.252	15241
882.378	15226
882.505	15416
882.631	15233
882.757	14941
882.883	15077
883.01	15108
883.136	14883
883.262	14895
883.388	14967
883.514	15036
883.64	15066
883.766	15009
883.892	14842
884.018	14998
884.143	15043
884.269	15108
884.395	14807
884.52	14689
884.646	14758
884.772	14613
884.897	14625
885.023	14800
885.148	14819
885.274	14876
885.399	14785
885.524	14720
885.65	14762
885.775	14758
885.9	14727
886.025	14792
886.15	14845
886.275	14678
886.4	14617
886.525	14762
886.65	14636
886.775	14769
886.9	14876
887.025	14986
887.149	14667
887.274	14667
887.399	14552
887.523	14431
887.648	14568
887.773	14465
887.897	14590
888.021	14575
888.146	14575
888.27	14651
888.395	14644
888.519	14617
888.643	14598
888.767	14613
888.891	14526
889.015	14438
889.139	14438
889.263	14393
889.387	14522
889.511	14701
889.635	14541
889.759	14393
889.883	14385
890.006	14431
890.13	14579
890.254	14278
890.377	14290
890.501	14256
890.624	14138
890.748	14263
890.871	14126
890.995	14100
891.118	14100
891.241	14100
891.364	14149
891.488	14202
891.611	14119
891.734	14054
891.857	14221
891.98	14107
892.103	14187
892.226	14237
892.349	14088
892.471	13989
892.594	14092
892.717	14119
892.839	14046
892.962	14157
893.085	14244
893.207	14065
893.33	14016
893.452	14039
893.575	14172
893.697	14092
893.819	14240
893.941	14339
894.064	14343
894.186	14183
894.308	14130
894.43	14240
894.552	14294
894.674	14336
894.796	14024
894.918	14142
895.04	14168
895.161	14233
895.283	14233
895.405	14218
895.526	14248
895.648	14221
895.769	14351
895.891	14324
896.012	14404
896.134	14298
896.255	14355
896.376	14305
896.498	14240
896.619	14332
896.74	14332
896.861	14332
896.982	14720
897.103	14762
897.224	14610
897.345	14602
897.466	14465
897.587	14541
897.708	14678
897.828	14579
897.949	14530
898.07	14393
898.19	14533
898.311	14655
898.431	14507
898.552	14625
898.672	14773
898.792	14701
898.913	14640
899.033	14556
899.153	14484
899.273	14381
899.393	14545
899.513	14610
899.633	14404
899.753	14579
899.873	14434
899.993	14571
900.113	14393
900.232	14568
900.352	14473
900.472	14393
900.591	14355
900.711	14442
900.83	14256
900.95	14476
901.069	14484
901.189	14278
901.308	13993
901.427	14046
901.546	13986
901.665	14054
901.784	14084
901.904	13864
902.023	13849
902.141	13693
902.26	13575
902.379	13658
902.498	13643
902.617	13529
902.735	13605
902.854	13628
902.973	13521
903.091	13384
903.21	13308
903.328	13358
903.446	13221
903.565	13221
903.683	13175
903.801	13129
903.919	13088
904.038	13175
904.156	13031
904.274	13061
904.392	12962
904.51	13004
904.627	13012
904.745	12989
904.863	13061
904.981	12806
905.098	12631
905.216	12734
905.334	12863
905.451	12604
905.569	12711
905.686	12681
905.803	12719
905.921	12479
906.038	12601
906.155	12574
906.272	12384
906.389	12422
906.506	12258
906.623	12311
906.74	12311
906.857	12144
906.974	12182
907.091	12391
907.208	12388
907.324	12235
907.441	12277
907.557	12003
907.674	12057
907.79	11946
907.907	12034
908.023	12034
908.139	12106
908.256	12053
908.372	11980
908.488	11935
908.604	11783
908.72	11760
908.836	11817
908.952	11767
909.068	11824
909.184	11889
909.3	11790
909.415	11832
909.531	11764
909.647	11581
909.762	11604
909.878	11573
909.993	11585
910.108	11455
910.224	11562
910.339	11619
910.454	11463
910.57	11440
910.685	11326
910.8	11611
910.915	11490
911.03	11421
911.145	11269
911.259	11235
911.374	11277
911.489	11155
911.604	11102
911.718	10987
911.833	11003
911.947	10919
912.062	10915
912.176	10976
912.291	10930
912.405	11006
912.519	11239
912.633	11201
912.748	11162
912.862	10987
912.976	10858
913.09	10771
913.204	10824
913.318	10843
913.431	11037
913.545	10938
913.659	11018
913.772	10881
913.886	10774
914	10797
914.113	10782
914.226	10938
914.34	10774
914.453	10698
914.566	10820
914.68	10702
914.793	10725
914.906	10577
915.019	10405
915.132	10386
915.245	10497
915.358	10565
915.47	10577
915.583	10500
915.696	10535
915.809	10615
915.921	10634
916.034	10500
916.146	10432
916.259	10398
916.371	10535
916.483	10546
916.595	10428
916.708	10470
916.82	10478
916.932	10344
917.044	10447
917.156	10417
917.268	10318
917.38	10379
917.491	10413
917.603	10344
917.715	10527
917.826	10413
917.938	10363
918.049	10276
918.161	10333
918.272	10523
918.384	10478
918.495	10356
918.606	10188
918.717	10131
918.828	10284
918.939	10257
919.05	10109
919.161	10154
919.272	10074
919.383	10112
919.494	10238
919.604	10432
919.715	10192
919.826	10135
919.936	10150
920.047	10352
920.157	10272
920.267	10455
920.378	10253
920.488	10215
920.598	10341
920.708	10535
920.818	10436
920.928	10470
921.038	10645
921.148	10626
921.258	10265
921.368	10246
921.477	10143
921.587	10029
921.697	9991
921.806	10112
921.916	9960
922.025	9918
922.134	9827
922.244	9698
922.353	9880
922.462	9781
922.571	9679
922.68	9477
922.789	9469
922.898	9507
923.007	9469
923.116	9564
923.224	9538
923.333	9462
923.442	9359
923.55	9302
923.659	9435
923.767	9412
923.876	9389
923.984	9370
924.092	9351
924.201	9401
924.309	9378
924.417	9424
924.525	9321
924.633	9291
924.741	10093
924.849	9157
924.956	9245
925.064	9093
925.172	9051
925.279	9142
925.387	9180
925.494	9104
925.602	9260
925.709	9195
925.816	9123
925.924	9081
926.031	9188
926.138	9222
926.245	9138
926.352	9100
926.459	9245
926.566	9264
926.673	9093
926.779	8975
926.886	8986
926.993	8849
927.099	8777
927.206	8796
927.312	8758
927.419	8880
927.525	8849
927.631	8857
927.737	8800
927.843	8739
927.95	8617
928.056	8762
928.162	8735
928.267	8796
928.373	9408
928.479	8842
928.585	8587
928.69	8758
928.796	8819
928.901	8629
929.007	8552
929.112	8590
929.218	8606
929.323	8629
929.428	8621
929.533	8689
929.638	8579
929.743	8492
929.848	8537
929.953	8583
930.058	8499
930.163	8336
930.267	8336
930.372	8507
930.477	8355
930.581	8545
930.685	8454
930.79	8290
930.894	8301
930.998	8218
931.103	8514
931.207	8130
931.311	8039
931.415	7967
931.519	7731
931.623	7818
