Data from test_V78500241_1829.txt Node
Date: Fri Mar 25 14:46:26 CST 2022
User: usil
Spectrometer: V785-0024
Trigger mode: 0
Integration Time (sec): 4.000000E-1
Scans to average: 1
Nonlinearity correction enabled: false
Boxcar width: 0
Storing dark spectrum: false
XAxis mode: Wavelengths
Number of Pixels in Spectrum: 1024
>>>>>Begin Spectral Data<<<<<
801.071	22166
801.214	22044
801.356	21785
801.499	21751
801.641	21580
801.783	21428
801.926	21462
802.068	21370
802.211	21359
802.353	21291
802.496	21093
802.638	21096
802.78	21112
802.923	20910
803.065	20853
803.208	20842
803.35	20906
803.492	21043
803.635	21005
803.777	20842
803.919	20823
804.061	21085
804.204	20796
804.346	20781
804.488	20667
804.63	20785
804.773	20701
804.915	20804
805.057	20910
805.199	20773
805.341	20735
805.483	20994
805.626	20830
805.768	20853
805.91	20807
806.052	20777
806.194	20587
806.336	20899
806.478	20800
806.62	20785
806.762	20807
806.904	20914
807.046	21203
807.188	21184
807.33	21123
807.472	21154
807.614	21116
807.756	20994
807.898	20948
808.04	20845
808.182	20891
808.324	20804
808.465	20990
808.607	21032
808.749	21096
808.891	21291
809.033	21321
809.174	21241
809.316	21116
809.458	21085
809.6	20967
809.741	21176
809.883	21287
810.025	21283
810.166	21245
810.308	21424
810.45	21222
810.591	21275
810.733	21024
810.875	21062
811.016	20785
811.158	20769
811.299	20982
811.441	21161
811.582	21001
811.724	20948
811.865	20952
812.007	21020
812.148	20906
812.29	20994
812.431	21222
812.573	21268
812.714	21340
812.855	21447
812.997	21507
813.138	21629
813.279	21466
813.421	21344
813.562	21370
813.703	21207
813.845	21066
813.986	20686
814.127	20689
814.268	20469
814.41	20533
814.551	20484
814.692	20514
814.833	20484
814.974	20457
815.115	20408
815.256	20362
815.397	20271
815.539	20305
815.68	20263
815.821	20092
815.962	20157
816.103	20157
816.244	20111
816.385	19928
816.526	19947
816.666	19833
816.807	19571
816.948	19616
817.089	19769
817.23	19666
817.371	19651
817.512	19658
817.653	19647
817.793	19567
817.934	19799
818.075	19613
818.216	19559
818.356	19548
818.497	19324
818.638	19308
818.778	19301
818.919	19209
819.06	19293
819.2	19445
819.341	19495
819.481	19434
819.622	19613
819.762	19856
819.903	19746
820.043	19628
820.184	19685
820.324	19506
820.465	19635
820.605	19628
820.746	19597
820.886	19476
821.026	19628
821.167	19468
821.307	19628
821.447	19533
821.588	19438
821.728	19381
821.868	19145
822.008	19000
822.149	18970
822.289	18989
822.429	18684
822.569	18783
822.709	18593
822.849	18403
822.99	18479
823.13	18426
823.27	18410
823.41	18270
823.55	18201
823.69	18228
823.83	18178
823.97	18201
824.11	18045
824.25	18087
824.389	18087
824.529	18026
824.669	18041
824.809	18186
824.949	18216
825.089	18102
825.228	18041
825.368	17851
825.508	17878
825.648	17855
825.787	17939
825.927	17946
826.067	17897
826.206	17866
826.346	17935
826.485	17824
826.625	17889
826.765	17870
826.904	17809
827.044	17623
827.183	17520
827.323	17440
827.462	17615
827.601	17532
827.741	17638
827.88	17478
828.02	17455
828.159	17497
828.298	17512
828.437	17611
828.577	17444
828.716	17703
828.855	17505
828.994	17239
829.134	17368
829.273	17311
829.412	17292
829.551	17166
829.69	17254
829.829	17356
829.968	17368
830.107	17425
830.246	17235
830.385	17235
830.524	17143
830.663	17056
830.802	17041
830.941	16885
831.08	16942
831.219	16942
831.357	17048
831.496	17056
831.635	16869
831.774	16847
831.913	16881
832.051	16706
832.19	16607
832.329	16717
832.467	16603
832.606	16656
832.744	16516
832.883	16588
833.022	16538
833.16	16637
833.299	16630
833.437	16675
833.576	16653
833.714	16691
833.852	16675
833.991	16611
834.129	16793
834.267	16653
834.406	16630
834.544	16698
834.682	16637
834.821	16694
834.959	16702
835.097	16645
835.235	16653
835.373	16805
835.511	16569
835.65	16481
835.788	16573
835.926	16394
836.064	16417
836.202	16314
836.34	16702
836.478	16656
836.615	16611
836.753	16561
836.891	16683
837.029	16729
837.167	16485
837.305	16390
837.443	16432
837.58	16352
837.718	16428
837.856	16497
837.993	16421
838.131	16386
838.269	16352
838.406	16329
838.544	16379
838.681	16147
838.819	16101
838.956	15964
839.094	15926
839.231	16078
839.369	16116
839.506	16337
839.643	16268
839.781	16036
839.918	15975
840.055	15964
840.193	15880
840.33	15964
840.467	16025
840.604	15945
840.742	16185
840.879	15975
841.016	15918
841.153	16029
841.29	16006
841.427	15915
841.564	16036
841.701	15945
841.838	15922
841.975	15899
842.112	15907
842.249	15876
842.385	15774
842.522	15960
842.659	15789
842.796	15743
842.933	15842
843.069	15766
843.206	15793
843.343	15793
843.479	15850
843.616	15831
843.752	15561
843.889	15576
844.025	15789
844.162	15576
844.298	15644
844.435	15534
844.571	15435
844.708	15614
844.844	15759
844.98	15705
845.117	15679
845.253	15530
845.389	15382
845.525	15538
845.661	15473
845.798	15275
845.934	15420
846.07	15367
846.206	15313
846.342	15500
846.478	15313
846.614	15097
846.75	15055
846.886	15188
847.022	15192
847.158	15127
847.294	15188
847.429	15119
847.565	15108
847.701	15321
847.837	14842
847.972	14800
848.108	14838
848.244	14842
848.379	14762
848.515	14743
848.65	14640
848.786	14720
848.921	14731
849.057	14785
849.192	14842
849.328	14697
849.463	14765
849.598	14750
849.734	14651
849.869	14629
850.004	14533
850.14	14522
850.275	14423
850.41	14446
850.545	14434
850.68	14404
850.815	14461
850.95	14457
851.085	14712
851.22	14568
851.355	14492
851.49	14442
851.625	14351
851.76	14484
851.895	14305
852.03	14370
852.165	14442
852.299	14503
852.434	14518
852.569	14488
852.703	14590
852.838	14404
852.973	14625
853.107	14697
853.242	14530
853.376	14377
853.511	14149
853.645	14396
853.78	14537
853.914	14427
854.048	14336
854.183	14400
854.317	14457
854.451	14446
854.585	14320
854.72	14229
854.854	14442
854.988	14332
855.122	14347
855.256	14275
855.39	14381
855.524	14434
855.658	14374
855.792	14309
855.926	14499
856.06	14427
856.194	14396
856.327	14396
856.461	14358
856.595	14362
856.729	14301
856.862	14488
856.996	14355
857.13	14412
857.263	14484
857.397	14393
857.53	14301
857.664	14396
857.797	14423
857.931	14484
858.064	14377
858.197	14495
858.331	14324
858.464	14324
858.597	14256
858.731	14465
858.864	14271
858.997	14218
859.13	14366
859.263	14476
859.396	14461
859.529	14317
859.662	14343
859.795	14317
859.928	14419
860.061	14530
860.194	14492
860.327	14294
860.46	14339
860.592	14507
860.725	14473
860.858	14530
860.99	14317
861.123	14282
861.256	14343
861.388	14324
861.521	15077
861.653	14225
861.786	14248
861.918	14248
862.05	14237
862.183	14339
862.315	14358
862.447	14412
862.58	14267
862.712	14100
862.844	14123
862.976	14123
863.108	14126
863.24	14549
863.372	14027
863.504	14088
863.636	14123
863.768	14149
863.9	14233
864.032	14164
864.164	14107
864.296	14096
864.428	14248
864.559	14142
864.691	14172
864.823	14237
864.954	14187
865.086	14115
865.217	14161
865.349	14058
865.48	14123
865.612	14237
865.743	14271
865.875	14199
866.006	14016
866.137	14134
866.269	14134
866.4	14111
866.531	14077
866.662	14134
866.793	14092
866.924	14119
867.055	14134
867.186	14119
867.317	14031
867.448	14035
867.579	14107
867.71	13997
867.841	14024
867.972	14111
868.103	14084
868.233	14187
868.364	14172
868.495	14183
868.625	14366
868.756	14412
868.886	14336
869.017	14358
869.147	14484
869.278	14442
869.408	14313
869.539	14366
869.669	14461
869.799	14408
869.929	14552
870.06	14511
870.19	14708
870.32	14712
870.45	14750
870.58	14845
870.71	14876
870.84	14838
870.97	14830
871.1	14678
871.23	15005
871.36	14861
871.489	14762
871.619	14838
871.749	14941
871.879	14948
872.008	15077
872.138	14967
872.267	14872
872.397	14811
872.526	14849
872.656	14864
872.785	14781
872.915	15013
873.044	15097
873.173	15013
873.303	15020
873.432	15032
873.561	15161
873.69	15028
873.819	15039
873.948	15131
874.077	15150
874.206	14963
874.335	15024
874.464	15127
874.593	15207
874.722	15165
874.851	15302
874.979	15351
875.108	15401
875.237	15329
875.365	15214
875.494	15302
875.623	15454
875.751	15340
875.88	15302
876.008	15428
876.136	15492
876.265	15880
876.393	15922
876.521	15835
876.65	15835
876.778	15876
876.906	15785
877.034	15720
877.162	15778
877.29	15724
877.418	15724
877.546	15720
877.674	15766
877.802	15739
877.93	15751
878.058	15667
878.185	15694
878.313	15660
878.441	15701
878.568	15633
878.696	15686
878.824	15827
878.951	15797
879.079	15857
879.206	16120
879.333	15895
879.461	15739
879.588	15850
879.715	15861
879.842	16013
879.97	15766
880.097	15580
880.224	15519
880.351	15633
880.478	15576
880.605	15576
880.732	15549
880.859	15819
880.986	15545
881.112	15625
881.239	15542
881.366	15374
881.493	15283
881.619	15283
881.746	15332
881.872	15306
881.999	15150
882.125	15199
882.252	15287
882.378	15249
882.505	15370
882.631	15214
882.757	15135
882.883	15085
883.01	15051
883.136	15112
883.262	15024
883.388	14990
883.514	15180
883.64	15135
883.766	15127
883.892	14823
884.018	14887
884.143	15051
884.269	15013
884.395	14861
884.52	14754
884.646	14773
884.772	14705
884.897	14598
885.023	14819
885.148	14891
885.274	14986
885.399	14887
885.524	14815
885.65	14811
885.775	14811
885.9	14857
886.025	14910
886.15	14842
886.275	14686
886.4	14693
886.525	14762
886.65	14693
886.775	14648
886.9	14902
887.025	14975
887.149	14765
887.274	14655
887.399	14686
887.523	14621
887.648	14533
887.773	14492
887.897	14746
888.021	14720
888.146	14530
888.27	14659
888.395	14731
888.519	14640
888.643	14686
888.767	14697
888.891	14533
889.015	14450
889.139	14480
889.263	14400
889.387	14594
889.511	14720
889.635	14610
889.759	14476
889.883	14381
890.006	14488
890.13	14560
890.254	14385
890.377	14522
890.501	14358
890.624	14286
890.748	14404
890.871	14225
890.995	14221
891.118	14084
891.241	14195
891.364	14161
891.488	14328
891.611	14164
891.734	14202
891.857	14180
891.98	14218
892.103	14256
892.226	14218
892.349	14240
892.471	14024
892.594	14149
892.717	14115
892.839	14123
892.962	14180
893.085	14115
893.207	14210
893.33	14100
893.452	14100
893.575	14263
893.697	14088
893.819	14278
893.941	14396
894.064	14343
894.186	14123
894.308	14164
894.43	14221
894.552	14320
894.674	14320
894.796	14096
894.918	14214
895.04	14248
895.161	14355
895.283	14328
895.405	14221
895.526	14267
895.648	14225
895.769	14278
895.891	14275
896.012	14442
896.134	14370
896.255	14313
896.376	14305
896.498	14317
896.619	14370
896.74	14454
896.861	14366
896.982	14735
897.103	14899
897.224	14606
897.345	14560
897.466	14446
897.587	14526
897.708	14834
897.828	14731
897.949	14495
898.07	14492
898.19	14640
898.311	14689
898.431	14659
898.552	14762
898.672	14697
898.792	14792
898.913	14804
899.033	14583
899.153	14499
899.273	14457
899.393	14499
899.513	14571
899.633	14526
899.753	14689
899.873	14503
899.993	14579
900.113	14598
900.232	14545
900.352	14594
900.472	14476
900.591	14404
900.711	14461
900.83	14317
900.95	14495
901.069	14454
901.189	14332
901.308	14149
901.427	14084
901.546	14065
901.665	14020
901.784	14092
901.904	14031
902.023	13906
902.141	13643
902.26	13693
902.379	13700
902.498	13658
902.617	13624
902.735	13609
902.854	13738
902.973	13521
903.091	13400
903.21	13362
903.328	13308
903.446	13285
903.565	13183
903.683	13209
903.801	13156
903.919	13122
904.038	13240
904.156	13038
904.274	13076
904.392	13000
904.51	13012
904.627	13038
904.745	13000
904.863	13141
904.981	12779
905.098	12734
905.216	12753
905.334	12776
905.451	12722
905.569	12741
905.686	12707
905.803	12722
905.921	12471
906.038	12612
906.155	12566
906.272	12426
906.389	12464
906.506	12220
906.623	12308
906.74	12270
906.857	12171
906.974	12216
907.091	12357
907.208	12448
907.324	12365
907.441	12296
907.557	12038
907.674	12106
907.79	12019
907.907	11980
908.023	12087
908.139	12011
908.256	11992
908.372	11935
908.488	11988
908.604	11809
908.72	11794
908.836	11840
908.952	11889
909.068	11836
909.184	11916
909.3	11794
909.415	11805
909.531	11802
909.647	11630
909.762	11566
909.878	11528
909.993	11642
910.108	11528
910.224	11547
910.339	11600
910.454	11471
910.57	11307
910.685	11391
910.8	11722
910.915	11554
911.03	11433
911.145	11269
911.259	11193
911.374	11284
911.489	11105
911.604	11220
911.718	11064
911.833	11014
911.947	10957
912.062	10877
912.176	10991
912.291	11064
912.405	10984
912.519	11231
912.633	11292
912.748	11170
912.862	11083
912.976	10949
913.09	10774
913.204	10866
913.318	10915
913.431	11045
913.545	11022
913.659	11064
913.772	10881
913.886	10816
914	10805
914.113	10839
914.226	10911
914.34	10831
914.453	10687
914.566	10873
914.68	10771
914.793	10748
914.906	10542
915.019	10565
915.132	10504
915.245	10493
915.358	10573
915.47	10558
915.583	10523
915.696	10584
915.809	10683
915.921	10698
916.034	10538
916.146	10466
916.259	10413
916.371	10573
916.483	10538
916.595	10405
916.708	10489
916.82	10485
916.932	10466
917.044	10402
917.156	10436
917.268	10295
917.38	10371
917.491	10382
917.603	10462
917.715	10428
917.826	10546
917.938	10402
918.049	10265
918.161	10417
918.272	10447
918.384	10493
918.495	10424
918.606	10257
918.717	10154
918.828	10268
918.939	10291
919.05	10185
919.161	10200
919.272	10029
919.383	10116
919.494	10363
919.604	10493
919.715	10268
919.826	10185
919.936	10230
920.047	10379
920.157	10314
920.267	10516
920.378	10341
920.488	10204
920.598	10409
920.708	10649
920.818	10462
920.928	10466
921.038	10577
921.148	10565
921.258	10344
921.368	10135
921.477	10192
921.587	10086
921.697	10002
921.806	10147
921.916	10029
922.025	9804
922.134	9800
922.244	9740
922.353	9918
922.462	9728
922.571	9610
922.68	9557
922.789	9454
922.898	9572
923.007	9473
923.116	9530
923.224	9545
923.333	9481
923.442	9454
923.55	9348
923.659	9408
923.767	9462
923.876	9401
923.984	9473
924.092	9294
924.201	9367
924.309	9428
924.417	9378
924.525	9313
924.633	9279
924.741	10249
924.849	9085
924.956	9310
925.064	9241
925.172	9070
925.279	9184
925.387	9180
925.494	9214
925.602	9317
925.709	9214
925.816	9100
925.924	9142
926.031	9192
926.138	9214
926.245	9211
926.352	9058
926.459	9241
926.566	9203
926.673	9055
926.779	9055
926.886	8982
926.993	8914
927.099	8872
927.206	8796
927.312	8796
927.419	8880
927.525	8876
927.631	8845
927.737	8834
927.843	8819
927.95	8667
928.056	8819
928.162	8849
928.267	8796
928.373	9298
928.479	8857
928.585	8651
928.69	8834
928.796	8777
928.901	8701
929.007	8499
929.112	8724
929.218	8655
929.323	8583
929.428	8560
929.533	8746
929.638	8503
929.743	8454
929.848	8621
929.953	8568
930.058	8476
930.163	8358
930.267	8389
930.372	8526
930.477	8336
930.581	8549
930.685	8438
930.79	8320
930.894	8271
930.998	8317
931.103	8431
931.207	8081
931.311	8035
931.415	7967
931.519	7757
931.623	7860
