Data from test_V78500241_292.txt Node
Date: Fri Mar 25 14:35:45 CST 2022
User: usil
Spectrometer: V785-0024
Trigger mode: 0
Integration Time (sec): 4.000000E-1
Scans to average: 1
Nonlinearity correction enabled: false
Boxcar width: 0
Storing dark spectrum: false
XAxis mode: Wavelengths
Number of Pixels in Spectrum: 1024
>>>>>Begin Spectral Data<<<<<
801.071	27245
801.214	27123
801.356	26838
801.499	26815
801.641	26636
801.783	26644
801.926	26564
802.068	26507
802.211	26549
802.353	26408
802.496	26256
802.638	26218
802.78	26157
802.923	26096
803.065	26115
803.208	26138
803.35	26039
803.492	26229
803.635	26298
803.777	26058
803.919	26396
804.061	26541
804.204	26126
804.346	26069
804.488	26157
804.63	26092
804.773	26058
804.915	26229
805.057	26298
805.199	26221
805.341	26237
805.483	26393
805.626	25993
805.768	26214
805.91	26202
806.052	26256
806.194	26134
806.336	26248
806.478	26107
806.62	26191
806.762	26153
806.904	26370
807.046	26735
807.188	26609
807.33	26602
807.472	26750
807.614	26514
807.756	26412
807.898	26431
808.04	26415
808.182	26446
808.324	26655
808.465	26396
808.607	26476
808.749	26845
808.891	26842
809.033	26967
809.174	26830
809.316	26785
809.458	26769
809.6	26762
809.741	26826
809.883	26712
810.025	26895
810.166	26849
810.308	27043
810.45	26830
810.591	26720
810.733	26609
810.875	26438
811.016	26431
811.158	26442
811.299	26598
811.441	26762
811.582	26587
811.724	26476
811.865	26473
812.007	26537
812.148	26499
812.29	26518
812.431	26743
812.573	26708
812.714	26998
812.855	27013
812.997	27154
813.138	27252
813.279	27169
813.421	26956
813.562	27055
813.703	26765
813.845	26788
813.986	26461
814.127	26271
814.268	26145
814.41	25959
814.551	26088
814.692	26161
814.833	26138
814.974	26130
815.115	26153
815.256	26001
815.397	26039
815.539	25830
815.68	25913
815.821	25746
815.962	25841
816.103	25947
816.244	25628
816.385	25586
816.526	25635
816.666	25426
816.807	25225
816.948	25304
817.089	25407
817.23	25259
817.371	25228
817.512	25278
817.653	25103
817.793	25171
817.934	25228
818.075	25206
818.216	25354
818.356	25133
818.497	25019
818.638	24905
818.778	24970
818.919	24894
819.06	24932
819.2	24947
819.341	25168
819.481	25042
819.622	25316
819.762	25457
819.903	25327
820.043	25190
820.184	25160
820.324	25206
820.465	25156
820.605	25225
820.746	25103
820.886	24947
821.026	25179
821.167	25129
821.307	25137
821.447	25031
821.588	24996
821.728	24745
821.868	24840
822.008	24654
822.149	24528
822.289	24399
822.429	24350
822.569	24300
822.709	24197
822.849	24083
822.99	24136
823.13	23973
823.27	23961
823.41	23840
823.55	23771
823.69	23859
823.83	23863
823.97	23813
824.11	23710
824.25	23581
824.389	23543
824.529	23718
824.669	23551
824.809	23729
824.949	23528
825.089	23726
825.228	23535
825.368	23360
825.508	23391
825.648	23414
825.787	23425
825.927	23482
826.067	23512
826.206	23376
826.346	23387
826.485	23436
826.625	23303
826.765	23356
826.904	23414
827.044	23174
827.183	23060
827.323	22953
827.462	23151
827.601	23105
827.741	23003
827.88	23159
828.02	22984
828.159	22873
828.298	23083
828.437	23083
828.577	22908
828.716	23147
828.855	22862
828.994	22596
829.134	22740
829.273	22683
829.412	22672
829.551	22660
829.69	22675
829.829	22694
829.968	22771
830.107	22740
830.246	22687
830.385	22687
830.524	22626
830.663	22436
830.802	22409
830.941	22299
831.08	22344
831.219	22409
831.357	22371
831.496	22462
831.635	22200
831.774	22215
831.913	22223
832.051	22021
832.19	22120
832.329	22048
832.467	21964
832.606	21930
832.744	22013
832.883	21835
833.022	21960
833.16	21899
833.299	21964
833.437	21964
833.576	21972
833.714	21941
833.852	21998
833.991	21949
834.129	22143
834.267	22051
834.406	22036
834.544	21934
834.682	22067
834.821	21915
834.959	22086
835.097	21880
835.235	22006
835.373	21979
835.511	21911
835.65	21766
835.788	21762
835.926	21720
836.064	21488
836.202	21625
836.34	21751
836.478	21857
836.615	21717
836.753	21819
836.891	21808
837.029	21793
837.167	21603
837.305	21709
837.443	21629
837.58	21583
837.718	21679
837.856	21572
837.993	21568
838.131	21698
838.269	21473
838.406	21591
838.544	21405
838.681	21294
838.819	21104
838.956	21142
839.094	20971
839.231	21081
839.369	21169
839.506	21310
839.643	21294
839.781	21081
839.918	21020
840.055	21017
840.193	20952
840.33	20910
840.467	20975
840.604	20941
840.742	21180
840.879	20853
841.016	20830
841.153	20887
841.29	21176
841.427	20990
841.564	20887
841.701	20986
841.838	20883
841.975	20796
842.112	20773
842.249	20754
842.385	20769
842.522	20887
842.659	20762
842.796	20617
842.933	20663
843.069	20727
843.206	20568
843.343	20720
843.479	20659
843.616	20712
843.752	20446
843.889	20552
844.025	20571
844.162	20427
844.298	20579
844.435	20442
844.571	20438
844.708	20427
844.844	20590
844.98	20492
845.117	20488
845.253	20415
845.389	20377
845.525	20347
845.661	20423
845.798	20320
845.934	20412
846.07	20320
846.206	20396
846.342	20396
846.478	20290
846.614	20092
846.75	19898
846.886	19940
847.022	19936
847.158	19917
847.294	19864
847.429	19940
847.565	19799
847.701	20100
847.837	19746
847.972	19624
848.108	19712
848.244	19712
848.379	19476
848.515	19441
848.65	19407
848.786	19480
848.921	19381
849.057	19563
849.192	19575
849.328	19506
849.463	19419
849.598	19464
849.734	19354
849.869	19236
850.004	19251
850.14	19247
850.275	19339
850.41	19148
850.545	19209
850.68	19088
850.815	19263
850.95	19187
851.085	19183
851.22	19282
851.355	19133
851.49	19141
851.625	19259
851.76	19171
851.895	19122
852.03	19034
852.165	18993
852.299	19301
852.434	19263
852.569	19114
852.703	19217
852.838	19171
852.973	19285
853.107	19282
853.242	19160
853.376	19110
853.511	18993
853.645	19050
853.78	19118
853.914	19126
854.048	18981
854.183	19088
854.317	18966
854.451	19069
854.585	19072
854.72	19034
854.854	19015
854.988	18890
855.122	18954
855.256	18909
855.39	18966
855.524	19114
855.658	18981
855.792	19015
855.926	18993
856.06	19076
856.194	19091
856.327	18996
856.461	18951
856.595	18985
856.729	19042
856.862	19042
856.996	19050
857.13	19015
857.263	18977
857.397	19118
857.53	18920
857.664	19107
857.797	18962
857.931	19076
858.064	19034
858.197	19072
858.331	19027
858.464	18943
858.597	18890
858.731	18993
858.864	18935
858.997	18848
859.13	18966
859.263	18981
859.396	19129
859.529	18909
859.662	18859
859.795	18810
859.928	18947
860.061	18973
860.194	19038
860.327	18905
860.46	18951
860.592	19008
860.725	19050
860.858	19190
860.99	18871
861.123	18829
861.256	18817
861.388	18943
861.521	19510
861.653	18684
861.786	18760
861.918	18856
862.05	18947
862.183	18810
862.315	18977
862.447	19042
862.58	18897
862.712	18776
862.844	18673
862.976	18738
863.108	18654
863.24	18962
863.372	18532
863.504	18570
863.636	18703
863.768	18696
863.9	18700
864.032	18597
864.164	18536
864.296	18734
864.428	18741
864.559	18677
864.691	18707
864.823	18700
864.954	18601
865.086	18681
865.217	18536
865.349	18525
865.48	18570
865.612	18585
865.743	18730
865.875	18669
866.006	18574
866.137	18547
866.269	18688
866.4	18544
866.531	18464
866.662	18467
866.793	18544
866.924	18490
867.055	18483
867.186	18502
867.317	18528
867.448	18350
867.579	18452
867.71	18532
867.841	18433
867.972	18525
868.103	18426
868.233	18521
868.364	18422
868.495	18658
868.625	18681
868.756	18764
868.886	18608
869.017	18719
869.147	18867
869.278	18894
869.408	18795
869.539	18711
869.669	18741
869.799	18715
869.929	18890
870.06	18798
870.19	19164
870.32	19023
870.45	19118
870.58	19206
870.71	19312
870.84	19141
870.97	19137
871.1	19069
871.23	19213
871.36	19381
871.489	19228
871.619	19270
871.749	19266
871.879	19362
872.008	19487
872.138	19312
872.267	19263
872.397	19190
872.526	19202
872.656	19148
872.785	19095
872.915	19232
873.044	19445
873.173	19270
873.303	19320
873.432	19331
873.561	19464
873.69	19430
873.819	19392
873.948	19449
874.077	19392
874.206	19255
874.335	19339
874.464	19445
874.593	19624
874.722	19544
874.851	19613
874.979	19620
875.108	19704
875.237	19502
875.365	19616
875.494	19624
875.623	19791
875.751	19567
875.88	19643
876.008	19746
876.136	19921
876.265	20024
876.393	20252
876.521	20027
876.65	20096
876.778	19970
876.906	19887
877.034	19902
877.162	19902
877.29	19917
877.418	20008
877.546	19963
877.674	19997
877.802	20065
877.93	20016
878.058	19955
878.185	19913
878.313	19902
878.441	19947
878.568	19986
878.696	19993
878.824	19963
878.951	20054
879.079	20256
879.206	20233
879.333	20225
879.461	19970
879.588	20195
879.715	20313
879.842	20408
879.97	20054
880.097	20024
880.224	19833
880.351	20024
880.478	19826
880.605	19860
880.732	19849
880.859	20062
880.986	19921
881.112	19955
881.239	19700
881.366	19658
881.493	19597
881.619	19499
881.746	19529
881.872	19476
881.999	19430
882.125	19438
882.252	19552
882.378	19514
882.505	19605
882.631	19373
882.757	19278
882.883	19354
883.01	19278
883.136	19175
883.262	19076
883.388	19076
883.514	19187
883.64	19255
883.766	19213
883.892	19080
884.018	19072
884.143	19148
884.269	19282
884.395	19023
884.52	18924
884.646	18901
884.772	18852
884.897	18806
885.023	18996
885.148	19008
885.274	19137
885.399	18939
885.524	18916
885.65	18890
885.775	18954
885.9	18707
886.025	19099
886.15	18966
886.275	18962
886.4	18627
886.525	18791
886.65	18741
886.775	18783
886.9	19019
887.025	19088
887.149	18833
887.274	18764
887.399	18597
887.523	18639
887.648	18536
887.773	18464
887.897	18654
888.021	18757
888.146	18585
888.27	18730
888.395	18734
888.519	18677
888.643	18570
888.767	18764
888.891	18525
889.015	18570
889.139	18506
889.263	18380
889.387	18494
889.511	18585
889.635	18555
889.759	18490
889.883	18365
890.006	18441
890.13	18490
890.254	18342
890.377	18418
890.501	18228
890.624	18323
890.748	18213
890.871	18117
890.995	18022
891.118	18041
891.241	18125
891.364	18121
891.488	18148
891.611	18041
891.734	18079
891.857	18087
891.98	18053
892.103	18068
892.226	18030
892.349	17961
892.471	17783
892.594	18034
892.717	18087
892.839	17923
892.962	17946
893.085	18136
893.207	17965
893.33	17916
893.452	17912
893.575	17973
893.697	17939
893.819	18182
893.941	18186
894.064	18125
894.186	17961
894.308	17817
894.43	18060
894.552	18083
894.674	18121
894.796	17954
894.918	18026
895.04	17980
895.161	18064
895.283	18007
895.405	17973
895.526	17988
895.648	17992
895.769	17988
895.891	18098
896.012	18114
896.134	18159
896.255	17992
896.376	18007
896.498	18057
896.619	18083
896.74	18068
896.861	18148
896.982	18399
897.103	18517
897.224	18407
897.345	18315
897.466	18342
897.587	18330
897.708	18429
897.828	18277
897.949	18346
898.07	18178
898.19	18243
898.311	18433
898.431	18292
898.552	18285
898.672	18414
898.792	18384
898.913	18372
899.033	18182
899.153	18182
899.273	17984
899.393	18030
899.513	17965
899.633	17973
899.753	17961
899.873	18011
899.993	17984
900.113	18053
900.232	17999
900.352	17988
900.472	17832
900.591	17885
900.711	17878
900.83	17889
900.95	17954
901.069	17999
901.189	17866
901.308	17516
901.427	17581
901.546	17600
901.665	17577
901.784	17585
901.904	17360
902.023	17265
902.141	17143
902.26	17025
902.379	17045
902.498	16946
902.617	17037
902.735	17010
902.854	16976
902.973	16991
903.091	16771
903.21	16702
903.328	16755
903.446	16679
903.565	16500
903.683	16592
903.801	16504
903.919	16508
904.038	16421
904.156	16268
904.274	16459
904.392	16314
904.51	16192
904.627	16272
904.745	16268
904.863	16352
904.981	16196
905.098	16002
905.216	15975
905.334	15941
905.451	15949
905.569	15922
905.686	15930
905.803	15991
905.921	15736
906.038	15937
906.155	15705
906.272	15682
906.389	15656
906.506	15622
906.623	15519
906.74	15542
906.857	15344
906.974	15405
907.091	15496
907.208	15545
907.324	15420
907.441	15416
907.557	15317
907.674	15241
907.79	15283
907.907	15165
908.023	15203
908.139	15256
908.256	15127
908.372	15127
908.488	15135
908.604	14971
908.72	14838
908.836	14967
908.952	14902
909.068	14956
909.184	15020
909.3	14918
909.415	14895
909.531	14838
909.647	14667
909.762	14724
909.878	14575
909.993	14663
910.108	14720
910.224	14541
910.339	14636
910.454	14507
910.57	14446
910.685	14370
910.8	14644
910.915	14594
911.03	14396
911.145	14282
911.259	14259
911.374	14278
911.489	14069
911.604	14180
911.718	14012
911.833	13925
911.947	13811
912.062	13864
912.176	13932
912.291	14005
912.405	13902
912.519	14062
912.633	14176
912.748	13970
912.862	13917
912.976	13864
913.09	13761
913.204	13715
913.318	13818
913.431	13852
913.545	13868
913.659	13879
913.772	13795
913.886	13708
914	13719
914.113	13731
914.226	13765
914.34	13643
914.453	13594
914.566	13753
914.68	13696
914.793	13578
914.906	13441
915.019	13388
915.132	13240
915.245	13377
915.358	13301
915.47	13232
915.583	13358
915.696	13327
915.809	13419
915.921	13487
916.034	13274
916.146	13168
916.259	13206
916.371	13240
916.483	13377
916.595	13137
916.708	13133
916.82	13107
916.932	13129
917.044	13050
917.156	13145
917.268	13057
917.38	13103
917.491	12981
917.603	13034
917.715	12981
917.826	13053
917.938	12901
918.049	12920
918.161	13000
918.272	13129
918.384	13114
918.495	12920
918.606	12924
918.717	12779
918.828	12837
918.939	12814
919.05	12730
919.161	12791
919.272	12677
919.383	12650
919.494	12913
919.604	12973
919.715	12833
919.826	12669
919.936	12768
920.047	12844
920.157	12707
920.267	13004
920.378	12882
920.488	12810
920.598	12962
920.708	13126
920.818	12935
920.928	12894
921.038	13145
921.148	13023
921.258	12726
921.368	12589
921.477	12540
921.587	12528
921.697	12399
921.806	12635
921.916	12426
922.025	12281
922.134	12190
922.244	12216
922.353	12285
922.462	12079
922.571	11965
922.68	11897
922.789	11889
922.898	11836
923.007	11821
923.116	11931
923.224	11775
923.333	11878
923.442	11752
923.55	11653
923.659	11764
923.767	11813
923.876	11604
923.984	11714
924.092	11615
924.201	11676
924.309	11703
924.417	11733
924.525	11646
924.633	11532
924.741	12563
924.849	11459
924.956	11589
925.064	11368
925.172	11265
925.279	11334
925.387	11478
925.494	11414
925.602	11501
925.709	11356
925.816	11322
925.924	11341
926.031	11383
926.138	11360
926.245	11383
926.352	11303
926.459	11345
926.566	11356
926.673	11337
926.779	11189
926.886	11193
926.993	11056
927.099	11006
927.206	10991
927.312	10938
927.419	11052
927.525	11025
927.631	11090
927.737	10881
927.843	10919
927.95	10778
928.056	10850
928.162	10889
928.267	10767
928.373	11516
928.479	10953
928.585	10683
928.69	10782
928.796	10828
928.901	10755
929.007	10558
929.112	10672
929.218	10672
929.323	10535
929.428	10645
929.533	10683
929.638	10542
929.743	10603
929.848	10626
929.953	10489
930.058	10462
930.163	10318
930.267	10394
930.372	10413
930.477	10265
930.581	10500
930.685	10299
930.79	10207
930.894	10211
930.998	10181
931.103	10284
931.207	9968
931.311	9888
931.415	9816
931.519	9648
931.623	9682
