Data from test_V78500241_1072.txt Node
Date: Fri Mar 25 14:41:10 CST 2022
User: usil
Spectrometer: V785-0024
Trigger mode: 0
Integration Time (sec): 4.000000E-1
Scans to average: 1
Nonlinearity correction enabled: false
Boxcar width: 0
Storing dark spectrum: false
XAxis mode: Wavelengths
Number of Pixels in Spectrum: 1024
>>>>>Begin Spectral Data<<<<<
801.071	22835
801.214	22675
801.356	22481
801.499	22348
801.641	22234
801.783	22143
801.926	22204
802.068	22044
802.211	22021
802.353	21888
802.496	21774
802.638	21595
802.78	21595
802.923	21481
803.065	21454
803.208	21363
803.35	21580
803.492	21538
803.635	21641
803.777	21439
803.919	21660
804.061	21724
804.204	21648
804.346	21389
804.488	21401
804.63	21405
804.773	21416
804.915	21424
805.057	21492
805.199	21469
805.341	21439
805.483	21515
805.626	21496
805.768	21420
805.91	21462
806.052	21397
806.194	21405
806.336	21485
806.478	21439
806.62	21348
806.762	21545
806.904	21679
807.046	21907
807.188	21747
807.33	21888
807.472	21941
807.614	21854
807.756	21922
807.898	21903
808.04	21663
808.182	21812
808.324	22013
808.465	21941
808.607	22246
808.749	22421
808.891	22455
809.033	22409
809.174	22394
809.316	22181
809.458	22276
809.6	22150
809.741	22150
809.883	22063
810.025	22211
810.166	22093
810.308	22120
810.45	22036
810.591	21956
810.733	21835
810.875	21580
811.016	21679
811.158	21728
811.299	21755
811.441	21918
811.582	21903
811.724	21583
811.865	21652
812.007	21671
812.148	21625
812.29	21641
812.431	21934
812.573	21975
812.714	22032
812.855	22150
812.997	22200
813.138	22417
813.279	22299
813.421	22109
813.562	22036
813.703	22036
813.845	21800
813.986	21580
814.127	21317
814.268	21214
814.41	21226
814.551	21203
814.692	21294
814.833	21119
814.974	21123
815.115	21085
815.256	21020
815.397	21104
815.539	20982
815.68	21017
815.821	20891
815.962	20998
816.103	20979
816.244	20739
816.385	20644
816.526	20716
816.666	20427
816.807	20427
816.948	20400
817.089	20465
817.23	20442
817.371	20404
817.512	20404
817.653	20263
817.793	20336
817.934	20248
818.075	20271
818.216	20343
818.356	20324
818.497	20237
818.638	20088
818.778	20126
818.919	20081
819.06	20046
819.2	20206
819.341	20153
819.481	20176
819.622	20377
819.762	20560
819.903	20575
820.043	20370
820.184	20385
820.324	20271
820.465	20495
820.605	20393
820.746	20252
820.886	20199
821.026	20343
821.167	20309
821.307	20370
821.447	20107
821.588	20092
821.728	20039
821.868	19902
822.008	19635
822.149	19746
822.289	19700
822.429	19567
822.569	19480
822.709	19392
822.849	19293
822.99	19244
823.13	19312
823.27	19198
823.41	19076
823.55	19019
823.69	19061
823.83	19072
823.97	18962
824.11	18844
824.25	18760
824.389	18795
824.529	18798
824.669	18734
824.809	18852
824.949	18848
825.089	18806
825.228	18833
825.368	18616
825.508	18654
825.648	18631
825.787	18627
825.927	18681
826.067	18528
826.206	18646
826.346	18639
826.485	18566
826.625	18532
826.765	18601
826.904	18646
827.044	18426
827.183	18361
827.323	18289
827.462	18319
827.601	18194
827.741	18262
827.88	18311
828.02	18083
828.159	18114
828.298	18308
828.437	18201
828.577	18262
828.716	18445
828.855	18159
828.994	18007
829.134	17988
829.273	18068
829.412	17992
829.551	18022
829.69	17961
829.829	17980
829.968	18079
830.107	18022
830.246	18098
830.385	18038
830.524	17904
830.663	17893
830.802	17786
830.941	17642
831.08	17573
831.219	17668
831.357	17630
831.496	17847
831.635	17695
831.774	17554
831.913	17482
832.051	17391
832.19	17410
832.329	17429
832.467	17284
832.606	17341
832.744	17326
832.883	17353
833.022	17387
833.16	17364
833.299	17421
833.437	17277
833.576	17410
833.714	17429
833.852	17383
833.991	17448
834.129	17505
834.267	17528
834.406	17387
834.544	17497
834.682	17383
834.821	17368
834.959	17608
835.097	17364
835.235	17444
835.373	17387
835.511	17429
835.65	17315
835.788	17220
835.926	17216
836.064	17014
836.202	17105
836.34	17265
836.478	17341
836.615	17212
836.753	17395
836.891	17372
837.029	17307
837.167	17250
837.305	17223
837.443	17231
837.58	17045
837.718	17288
837.856	17151
837.993	16987
838.131	17109
838.269	17231
838.406	17006
838.544	17033
838.681	16854
838.819	16885
838.956	16630
839.094	16596
839.231	16733
839.369	16782
839.506	16934
839.643	16835
839.781	16630
839.918	16618
840.055	16744
840.193	16721
840.33	16615
840.467	16740
840.604	16702
840.742	16972
840.879	16531
841.016	16683
841.153	16565
841.29	16668
841.427	16733
841.564	16645
841.701	16649
841.838	16683
841.975	16516
842.112	16694
842.249	16516
842.385	16398
842.522	16569
842.659	16512
842.796	16470
842.933	16436
843.069	16344
843.206	16329
843.343	16516
843.479	16504
843.616	16500
843.752	16276
843.889	16131
844.025	16348
844.162	16226
844.298	16325
844.435	16261
844.571	16230
844.708	16295
844.844	16478
844.98	16462
845.117	16394
845.253	16310
845.389	16230
845.525	16291
845.661	16459
845.798	16443
845.934	16626
846.07	16630
846.206	16763
846.342	16698
846.478	16341
846.614	16124
846.75	15968
846.886	15759
847.022	15922
847.158	15895
847.294	15857
847.429	15854
847.565	15857
847.701	16040
847.837	15488
847.972	15462
848.108	15652
848.244	15488
848.379	15378
848.515	15336
848.65	15363
848.786	15348
848.921	15477
849.057	15542
849.192	15507
849.328	15526
849.463	15264
849.598	15260
849.734	15211
849.869	15237
850.004	15138
850.14	15199
850.275	15154
850.41	15036
850.545	15089
850.68	14929
850.815	15184
850.95	15123
851.085	15268
851.22	15207
851.355	15165
851.49	15081
851.625	15116
851.76	15066
851.895	15055
852.03	15028
852.165	15131
852.299	15123
852.434	15131
852.569	15218
852.703	15100
852.838	15165
852.973	15233
853.107	15321
853.242	15119
853.376	15081
853.511	14857
853.645	14975
853.78	15123
853.914	14963
854.048	15039
854.183	14982
854.317	14994
854.451	15233
854.585	15017
854.72	14921
854.854	15028
854.988	14971
855.122	14918
855.256	14887
855.39	14941
855.524	14990
855.658	15058
855.792	14990
855.926	15047
856.06	15017
856.194	15100
856.327	15070
856.461	14918
856.595	15009
856.729	14963
856.862	15146
856.996	14948
857.13	15062
857.263	15157
857.397	15112
857.53	15001
857.664	14986
857.797	15241
857.931	15188
858.064	14990
858.197	15142
858.331	15013
858.464	14937
858.597	14876
858.731	14971
858.864	14925
858.997	14933
859.13	15020
859.263	14967
859.396	15036
859.529	14967
859.662	14990
859.795	14921
859.928	15104
860.061	15146
860.194	15249
860.327	14944
860.46	15055
860.592	15112
860.725	15161
860.858	15154
860.99	15112
861.123	14979
861.256	14979
861.388	15001
861.521	15709
861.653	14864
861.786	14819
861.918	14910
862.05	14929
862.183	14979
862.315	15051
862.447	15020
862.58	14994
862.712	14769
862.844	14777
862.976	14781
863.108	14845
863.24	15348
863.372	14724
863.504	14823
863.636	14667
863.768	14788
863.9	14788
864.032	14727
864.164	14781
864.296	14754
864.428	14868
864.559	14849
864.691	14910
864.823	14834
864.954	14880
865.086	14861
865.217	14663
865.349	14629
865.48	14792
865.612	14815
865.743	14941
865.875	14815
866.006	14792
866.137	14773
866.269	14731
866.4	14792
866.531	14621
866.662	14743
866.793	14777
866.924	14769
867.055	14716
867.186	14785
867.317	14632
867.448	14693
867.579	14724
867.71	14636
867.841	14610
867.972	14659
868.103	14659
868.233	14735
868.364	14804
868.495	14899
868.625	14929
868.756	15089
868.886	14834
869.017	14914
869.147	15036
869.278	15203
869.408	14982
869.539	14960
869.669	15066
869.799	15066
869.929	15028
870.06	15032
870.19	15241
870.32	15268
870.45	15325
870.58	15336
870.71	15500
870.84	15485
870.97	15416
871.1	15481
871.23	15568
871.36	15572
871.489	15507
871.619	15553
871.749	15603
871.879	15629
872.008	15606
872.138	15614
872.267	15584
872.397	15477
872.526	15374
872.656	15431
872.785	15515
872.915	15606
873.044	15743
873.173	15603
873.303	15705
873.432	15778
873.561	15667
873.69	15652
873.819	15614
873.948	15713
874.077	15603
874.206	15660
874.335	15648
874.464	15755
874.593	15892
874.722	15850
874.851	15994
874.979	16025
875.108	16029
875.237	16002
875.365	15873
875.494	15850
875.623	15949
875.751	15854
875.88	15941
876.008	16116
876.136	16120
876.265	16272
876.393	16451
876.521	16531
876.65	16459
876.778	16325
876.906	16398
877.034	16337
877.162	16257
877.29	16329
877.418	16447
877.546	16310
877.674	16382
877.802	16344
877.93	16398
878.058	16249
878.185	16280
878.313	16367
878.441	16318
878.568	16303
878.696	16348
878.824	16516
878.951	16508
879.079	16797
879.206	16774
879.333	16850
879.461	16637
879.588	16771
879.715	16778
879.842	16942
879.97	16698
880.097	16314
880.224	16352
880.351	16352
880.478	16341
880.605	16246
880.732	16306
880.859	16630
880.986	16310
881.112	16333
881.239	16196
881.366	15964
881.493	16013
881.619	15964
881.746	15979
881.872	15911
881.999	15953
882.125	15915
882.252	16010
882.378	16025
882.505	16139
882.631	15850
882.757	15819
882.883	15915
883.01	15751
883.136	15739
883.262	15625
883.388	15618
883.514	15827
883.64	15812
883.766	15682
883.892	15557
884.018	15625
884.143	15747
884.269	15778
884.395	15599
884.52	15424
884.646	15450
884.772	15405
884.897	15450
885.023	15462
885.148	15557
885.274	15686
885.399	15576
885.524	15469
885.65	15492
885.775	15450
885.9	15298
886.025	15561
886.15	15534
886.275	15435
886.4	15370
886.525	15545
886.65	15298
886.775	15302
886.9	15469
887.025	15644
887.149	15340
887.274	15184
887.399	15264
887.523	15272
887.648	15252
887.773	15077
887.897	15332
888.021	15252
888.146	15116
888.27	15272
888.395	15313
888.519	15230
888.643	15298
888.767	15207
888.891	15135
889.015	15058
889.139	15112
889.263	14979
889.387	15188
889.511	15222
889.635	15207
889.759	15142
889.883	15081
890.006	15116
890.13	15222
890.254	14967
890.377	14994
890.501	14754
890.624	14804
890.748	14933
890.871	14796
890.995	14788
891.118	14708
891.241	14796
891.364	14746
891.488	14849
891.611	14731
891.734	14678
891.857	14823
891.98	14735
892.103	14853
892.226	14674
892.349	14807
892.471	14499
892.594	14724
892.717	14746
892.839	14693
892.962	14769
893.085	14720
893.207	14705
893.33	14640
893.452	14705
893.575	14765
893.697	14682
893.819	14823
893.941	14975
894.064	14785
894.186	14651
894.308	14758
894.43	14963
894.552	14872
894.674	14868
894.796	14762
894.918	14659
895.04	14842
895.161	14853
895.283	14842
895.405	14724
895.526	14815
895.648	14811
895.769	14830
895.891	14864
896.012	14982
896.134	14910
896.255	14830
896.376	14807
896.498	14838
896.619	14944
896.74	14975
896.861	14921
896.982	15233
897.103	15370
897.224	15081
897.345	15127
897.466	15032
897.587	15100
897.708	15184
897.828	15199
897.949	15161
898.07	14960
898.19	15009
898.311	15298
898.431	15138
898.552	15291
898.672	15272
898.792	15298
898.913	15230
899.033	15165
899.153	15146
899.273	15005
899.393	15066
899.513	15154
899.633	15108
899.753	15039
899.873	14975
899.993	15192
900.113	15146
900.232	15051
900.352	15005
900.472	14982
900.591	14918
900.711	15024
900.83	14880
900.95	14925
901.069	15070
901.189	14807
901.308	14663
901.427	14518
901.546	14606
901.665	14598
901.784	14602
901.904	14423
902.023	14256
902.141	14221
902.26	14214
902.379	14240
902.498	14138
902.617	14081
902.735	14191
902.854	14126
902.973	14024
903.091	13902
903.21	13795
903.328	13845
903.446	13742
903.565	13734
903.683	13651
903.801	13495
903.919	13696
904.038	13636
904.156	13506
904.274	13529
904.392	13620
904.51	13499
904.627	13419
904.745	13552
904.863	13620
904.981	13168
905.098	13255
905.216	13118
905.334	13236
905.451	13209
905.569	13198
905.686	13293
905.803	13206
905.921	13031
906.038	13126
906.155	13091
906.272	12935
906.389	12935
906.506	12821
906.623	12817
906.74	12726
906.857	12642
906.974	12700
907.091	12844
907.208	12882
907.324	12859
907.441	12673
907.557	12479
907.674	12467
907.79	12513
907.907	12452
908.023	12525
908.139	12544
908.256	12498
908.372	12395
908.488	12467
908.604	12262
908.72	12213
908.836	12311
908.952	12159
909.068	12270
909.184	12296
909.3	12239
909.415	12330
909.531	12258
909.647	11984
909.762	11973
909.878	11999
909.993	12041
910.108	12053
910.224	12011
910.339	12038
910.454	11863
910.57	11870
910.685	11859
910.8	12136
910.915	11999
911.03	11836
911.145	11794
911.259	11729
911.374	11722
911.489	11581
911.604	11562
911.718	11459
911.833	11562
911.947	11315
912.062	11296
912.176	11478
912.291	11474
912.405	11433
912.519	11688
912.633	11638
912.748	11486
912.862	11417
912.976	11376
913.09	11235
913.204	11239
913.318	11379
913.431	11425
913.545	11379
913.659	11398
913.772	11277
913.886	11185
914	11159
914.113	11250
914.226	11364
914.34	11258
914.453	11121
914.566	11330
914.68	11102
914.793	11189
914.906	10991
915.019	10930
915.132	10801
915.245	10961
915.358	11014
915.47	10938
915.583	10961
915.696	10991
915.809	11075
915.921	11170
916.034	10930
916.146	10889
916.259	10869
916.371	10968
916.483	11003
916.595	10915
916.708	10847
916.82	10816
916.932	10858
917.044	10908
917.156	10847
917.268	10721
917.38	10820
917.491	10767
917.603	10763
917.715	10900
917.826	10892
917.938	10793
918.049	10683
918.161	10729
918.272	10854
918.384	10885
918.495	10725
918.606	10641
918.717	10615
918.828	10645
918.939	10706
919.05	10538
919.161	10558
919.272	10421
919.383	10470
919.494	10694
919.604	10793
919.715	10675
919.826	10584
919.936	10538
920.047	10721
920.157	10637
920.267	10782
920.378	10592
920.488	10668
920.598	10839
920.708	10919
920.818	10835
920.928	10820
921.038	10999
921.148	10896
921.258	10702
921.368	10618
921.477	10493
921.587	10500
921.697	10306
921.806	10523
921.916	10356
922.025	10185
922.134	10150
922.244	10029
922.353	10356
922.462	9991
922.571	9991
922.68	9880
922.789	9854
922.898	9823
923.007	9747
923.116	9918
923.224	9915
923.333	9857
923.442	9698
923.55	9713
923.659	9732
923.767	9831
923.876	9778
923.984	9835
924.092	9709
924.201	9709
924.309	9724
924.417	9732
924.525	9709
924.633	9724
924.741	10656
924.849	9519
924.956	9679
925.064	9488
925.172	9405
925.279	9416
925.387	9515
925.494	9447
925.602	9515
925.709	9603
925.816	9431
925.924	9523
926.031	9538
926.138	9526
926.245	9587
926.352	9389
926.459	9553
926.566	9591
926.673	9447
926.779	9310
926.886	9416
926.993	9233
927.099	9313
927.206	9154
927.312	9127
927.419	9237
927.525	9199
927.631	9275
927.737	9093
927.843	9039
927.95	8967
928.056	9097
928.162	9112
928.267	9119
928.373	9720
928.479	9104
928.585	8994
928.69	9074
928.796	9066
928.901	8971
929.007	8804
929.112	9051
929.218	8918
929.323	8899
929.428	8906
929.533	9104
929.638	8830
929.743	8876
929.848	8982
929.953	8876
930.058	8743
930.163	8579
930.267	8697
930.372	8853
930.477	8644
930.581	8914
930.685	8785
930.79	8613
930.894	8693
930.998	8651
931.103	8758
931.207	8408
931.311	8290
931.415	8256
931.519	8126
931.623	8088
