Data from test_V78500241_3686.txt Node
Date: Fri Mar 25 14:59:23 CST 2022
User: usil
Spectrometer: V785-0024
Trigger mode: 0
Integration Time (sec): 4.000000E-1
Scans to average: 1
Nonlinearity correction enabled: false
Boxcar width: 0
Storing dark spectrum: false
XAxis mode: Wavelengths
Number of Pixels in Spectrum: 1024
>>>>>Begin Spectral Data<<<<<
801.071	21911
801.214	21850
801.356	21652
801.499	21496
801.641	21420
801.783	21207
801.926	21348
802.068	21135
802.211	21180
802.353	21176
802.496	20845
802.638	20731
802.78	20727
802.923	20708
803.065	20682
803.208	20648
803.35	20587
803.492	20689
803.635	20838
803.777	20621
803.919	20693
804.061	21001
804.204	20648
804.346	20598
804.488	20537
804.63	20587
804.773	20533
804.915	20598
805.057	20670
805.199	20518
805.341	20473
805.483	20552
805.626	20769
805.768	20446
805.91	20511
806.052	20526
806.194	20309
806.336	20663
806.478	20457
806.62	20473
806.762	20613
806.904	20701
807.046	20952
807.188	20864
807.33	20750
807.472	20834
807.614	20739
807.756	20762
807.898	20636
808.04	20575
808.182	20564
808.324	20613
808.465	20552
808.607	20758
808.749	20872
808.891	20975
809.033	21020
809.174	20963
809.316	20834
809.458	20853
809.6	20807
809.741	20929
809.883	20910
810.025	21104
810.166	21013
810.308	20982
810.45	20941
810.591	20823
810.733	20876
810.875	20670
811.016	20549
811.158	20514
811.299	20526
811.441	20716
811.582	20796
811.724	20689
811.865	20556
812.007	20636
812.148	20663
812.29	20636
812.431	20815
812.573	20906
812.714	20967
812.855	21039
812.997	21184
813.138	21382
813.279	21100
813.421	21173
813.562	21066
813.703	20857
813.845	20765
813.986	20457
814.127	20320
814.268	20278
814.41	20221
814.551	20252
814.692	20336
814.833	20035
814.974	20153
815.115	20088
815.256	20088
815.397	19982
815.539	20031
815.68	19909
815.821	19887
815.962	19997
816.103	19727
816.244	19750
816.385	19628
816.526	19499
816.666	19537
816.807	19324
816.948	19460
817.089	19411
817.23	19411
817.371	19247
817.512	19343
817.653	19316
817.793	19213
817.934	19217
818.075	19373
818.216	19384
818.356	19206
818.497	19141
818.638	18966
818.778	18882
818.919	19084
819.06	19019
819.2	19080
819.341	19240
819.481	19217
819.622	19521
819.762	19571
819.903	19434
820.043	19419
820.184	19365
820.324	19278
820.465	19365
820.605	19324
820.746	19335
820.886	19103
821.026	19114
821.167	19232
821.307	19278
821.447	19179
821.588	19133
821.728	19072
821.868	18764
822.008	18783
822.149	18700
822.289	18631
822.429	18490
822.569	18410
822.709	18353
822.849	18346
822.99	18201
823.13	18057
823.27	18034
823.41	18091
823.55	17870
823.69	18068
823.83	17889
823.97	17920
824.11	17775
824.25	17874
824.389	17733
824.529	17836
824.669	17824
824.809	17828
824.949	17912
825.089	17908
825.228	17707
825.368	17551
825.508	17630
825.648	17543
825.787	17562
825.927	17474
826.067	17539
826.206	17558
826.346	17516
826.485	17482
826.625	17589
826.765	17653
826.904	17592
827.044	17330
827.183	17258
827.323	17315
827.462	17292
827.601	17322
827.741	17334
827.88	17303
828.02	17094
828.159	17235
828.298	17250
828.437	17368
828.577	17200
828.716	17341
828.855	17235
828.994	17006
829.134	17067
829.273	17098
829.412	16911
829.551	16961
829.69	16961
829.829	17048
829.968	17090
830.107	17029
830.246	17003
830.385	16972
830.524	16934
830.663	16930
830.802	16816
830.941	16653
831.08	16542
831.219	16740
831.357	16660
831.496	16858
831.635	16641
831.774	16653
831.913	16493
832.051	16386
832.19	16405
832.329	16417
832.467	16341
832.606	16272
832.744	16341
832.883	16375
833.022	16455
833.16	16303
833.299	16329
833.437	16443
833.576	16424
833.714	16455
833.852	16402
833.991	16462
834.129	16459
834.267	16375
834.406	16394
834.544	16470
834.682	16295
834.821	16451
834.959	16508
835.097	16428
835.235	16497
835.373	16424
835.511	16363
835.65	16306
835.788	16234
835.926	16162
836.064	16143
836.202	16040
836.34	16341
836.478	16341
836.615	16181
836.753	16325
836.891	16322
837.029	16295
837.167	16325
837.305	16257
837.443	16150
837.58	16158
837.718	16291
837.856	16196
837.993	16112
838.131	16169
838.269	16166
838.406	16063
838.544	15956
838.681	15998
838.819	15945
838.956	15766
839.094	15808
839.231	15797
839.369	15953
839.506	16135
839.643	15998
839.781	15865
839.918	15549
840.055	15709
840.193	15789
840.33	15690
840.467	15724
840.604	15831
840.742	15937
840.879	15538
841.016	15656
841.153	15637
841.29	15861
841.427	15728
841.564	15808
841.701	15732
841.838	15663
841.975	15705
842.112	15625
842.249	15553
842.385	15462
842.522	15713
842.659	15538
842.796	15454
842.933	15618
843.069	15469
843.206	15458
843.343	15557
843.479	15507
843.616	15538
843.752	15374
843.889	15378
844.025	15526
844.162	15283
844.298	15378
844.435	15317
844.571	15226
844.708	15382
844.844	15428
844.98	15462
845.117	15450
845.253	15302
845.389	15173
845.525	15294
845.661	15256
845.798	15085
845.934	15123
846.07	15154
846.206	15184
846.342	15192
846.478	15211
846.614	14842
846.75	14872
846.886	14849
847.022	14944
847.158	14864
847.294	14899
847.429	14944
847.565	14788
847.701	15188
847.837	14606
847.972	14564
848.108	14648
848.244	14731
848.379	14522
848.515	14465
848.65	14393
848.786	14476
848.921	14442
849.057	14610
849.192	14583
849.328	14507
849.463	14511
849.598	14393
849.734	14404
849.869	14358
850.004	14145
850.14	14320
850.275	14263
850.41	14168
850.545	14252
850.68	14214
850.815	14332
850.95	14256
851.085	14461
851.22	14294
851.355	14301
851.49	14271
851.625	14199
851.76	14172
851.895	14088
852.03	14077
852.165	14180
852.299	14347
852.434	14301
852.569	14191
852.703	14218
852.838	14339
852.973	14438
853.107	14454
853.242	14233
853.376	14206
853.511	13951
853.645	14115
853.78	14172
853.914	14081
854.048	14081
854.183	14065
854.317	14157
854.451	14256
854.585	14107
854.72	13967
854.854	14164
854.988	14145
855.122	14142
855.256	14100
855.39	14065
855.524	14244
855.658	14168
855.792	14214
855.926	14142
856.06	14176
856.194	14271
856.327	14153
856.461	14050
856.595	14054
856.729	14149
856.862	14191
856.996	14157
857.13	14199
857.263	14240
857.397	14339
857.53	14073
857.664	14164
857.797	14084
857.931	14259
858.064	14161
858.197	14161
858.331	14081
858.464	14164
858.597	14039
858.731	13993
858.864	14176
858.997	14103
859.13	14115
859.263	14161
859.396	14237
859.529	14065
859.662	14176
859.795	14119
859.928	14176
860.061	14286
860.194	14317
860.327	14168
860.46	14058
860.592	14233
860.725	14202
860.858	14355
860.99	14069
861.123	14081
861.256	14077
861.388	14130
861.521	14823
861.653	13997
861.786	13978
861.918	13940
862.05	14054
862.183	14027
862.315	14138
862.447	14134
862.58	14103
862.712	13814
862.844	13921
862.976	14008
863.108	13807
863.24	14415
863.372	13883
863.504	13837
863.636	13845
863.768	13913
863.9	13970
864.032	13742
864.164	14012
864.296	13963
864.428	13963
864.559	14001
864.691	13947
864.823	14001
864.954	14024
865.086	13845
865.217	13887
865.349	13875
865.48	13871
865.612	13902
865.743	14084
865.875	13947
866.006	13822
866.137	13890
866.269	13868
866.4	13871
866.531	13750
866.662	13746
866.793	13849
866.924	13959
867.055	13887
867.186	13856
867.317	13803
867.448	13780
867.579	13833
867.71	13852
867.841	13841
867.972	13860
868.103	13837
868.233	13868
868.364	13906
868.495	13978
868.625	14058
868.756	14145
868.886	14111
869.017	14130
869.147	14164
869.278	14263
869.408	14195
869.539	14134
869.669	14214
869.799	14282
869.929	14320
870.06	14282
870.19	14541
870.32	14484
870.45	14560
870.58	14495
870.71	14549
870.84	14636
870.97	14480
871.1	14465
871.23	14758
871.36	14758
871.489	14670
871.619	14644
871.749	14731
871.879	14777
872.008	14883
872.138	14765
872.267	14712
872.397	14625
872.526	14610
872.656	14450
872.785	14613
872.915	14792
873.044	14777
873.173	14731
873.303	14853
873.432	14815
873.561	14876
873.69	14838
873.819	14727
873.948	14861
874.077	14807
874.206	14762
874.335	14765
874.464	15020
874.593	15154
874.722	14998
874.851	15146
874.979	15135
875.108	15195
875.237	15112
875.365	15001
875.494	15066
875.623	15252
875.751	15089
875.88	15123
876.008	15272
876.136	15332
876.265	15625
876.393	15591
876.521	15648
876.65	15538
876.778	15587
876.906	15504
877.034	15336
877.162	15591
877.29	15416
877.418	15481
877.546	15507
877.674	15553
877.802	15496
877.93	15557
878.058	15492
878.185	15488
878.313	15462
878.441	15511
878.568	15348
878.696	15348
878.824	15591
878.951	15618
879.079	15694
879.206	15770
879.333	15682
879.461	15557
879.588	15614
879.715	15728
879.842	15747
879.97	15625
880.097	15397
880.224	15310
880.351	15511
880.478	15386
880.605	15431
880.732	15393
880.859	15675
880.986	15450
881.112	15424
881.239	15195
881.366	15131
881.493	15188
881.619	15051
881.746	15028
881.872	15104
881.999	15017
882.125	15062
882.252	15066
882.378	15009
882.505	15154
882.631	14921
882.757	14872
882.883	14838
883.01	14815
883.136	14773
883.262	14693
883.388	14663
883.514	14838
883.64	14849
883.766	14853
883.892	14750
884.018	14689
884.143	14762
884.269	14948
884.395	14583
884.52	14575
884.646	14552
884.772	14492
884.897	14465
885.023	14674
885.148	14697
885.274	14708
885.399	14667
885.524	14556
885.65	14655
885.775	14560
885.9	14461
886.025	14739
886.15	14564
886.275	14495
886.4	14499
886.525	14480
886.65	14590
886.775	14442
886.9	14724
887.025	14804
887.149	14583
887.274	14427
887.399	14328
887.523	14385
887.648	14294
887.773	14282
887.897	14488
888.021	14469
888.146	14328
888.27	14552
888.395	14636
888.519	14454
888.643	14476
888.767	14465
888.891	14374
889.015	14210
889.139	14282
889.263	14229
889.387	14377
889.511	14473
889.635	14347
889.759	14294
889.883	14252
890.006	14366
890.13	14290
890.254	14187
890.377	14256
890.501	14062
890.624	14062
890.748	14164
890.871	14008
890.995	13921
891.118	13955
891.241	13871
891.364	13928
891.488	14138
891.611	13894
891.734	13947
891.857	14035
891.98	14050
892.103	14058
892.226	14046
892.349	13970
892.471	13841
892.594	13902
892.717	13925
892.839	13970
892.962	13856
893.085	13989
893.207	13989
893.33	13822
893.452	13909
893.575	13940
893.697	14027
893.819	14134
893.941	14100
894.064	14119
894.186	13947
894.308	13902
894.43	14180
894.552	14275
894.674	14195
894.796	13967
894.918	13970
895.04	14069
895.161	14065
895.283	14130
895.405	14031
895.526	14031
895.648	14092
895.769	14046
895.891	14130
896.012	14195
896.134	14225
896.255	14142
896.376	14134
896.498	14103
896.619	14100
896.74	14157
896.861	14183
896.982	14450
897.103	14663
897.224	14480
897.345	14393
897.466	14180
897.587	14476
897.708	14514
897.828	14442
897.949	14404
898.07	14221
898.19	14320
898.311	14587
898.431	14522
898.552	14511
898.672	14598
898.792	14537
898.913	14480
899.033	14412
899.153	14332
899.273	14229
899.393	14301
899.513	14366
899.633	14313
899.753	14332
899.873	14362
899.993	14408
900.113	14263
900.232	14404
900.352	14343
900.472	14294
900.591	14161
900.711	14244
900.83	14092
900.95	14191
901.069	14343
901.189	14062
901.308	14001
901.427	13879
901.546	13860
901.665	13951
901.784	13856
901.904	13693
902.023	13757
902.141	13514
902.26	13476
902.379	13552
902.498	13468
902.617	13403
902.735	13472
902.854	13480
902.973	13388
903.091	13194
903.21	13270
903.328	13149
903.446	13069
903.565	12996
903.683	13088
903.801	12932
903.919	13019
904.038	13019
904.156	12837
904.274	12970
904.392	12817
904.51	12878
904.627	12779
904.745	12856
904.863	12840
904.981	12662
905.098	12475
905.216	12544
905.334	12540
905.451	12616
905.569	12486
905.686	12601
905.803	12528
905.921	12357
906.038	12486
906.155	12369
906.272	12319
906.389	12273
906.506	12266
906.623	12125
906.74	12136
906.857	12030
906.974	11999
907.091	12190
907.208	12285
907.324	12155
907.441	12026
907.557	11923
907.674	11855
907.79	11889
907.907	11904
908.023	11904
908.139	11901
908.256	11866
908.372	11714
908.488	11752
908.604	11684
908.72	11554
908.836	11649
908.952	11646
909.068	11646
909.184	11741
909.3	11589
909.415	11729
909.531	11634
909.647	11463
909.762	11433
909.878	11440
909.993	11406
910.108	11356
910.224	11455
910.339	11463
910.454	11379
910.57	11242
910.685	11235
910.8	11539
910.915	11414
911.03	11288
911.145	11178
911.259	11143
911.374	11174
911.489	11075
911.604	11086
911.718	10869
911.833	10930
911.947	10835
912.062	10778
912.176	10915
912.291	10896
912.405	10873
912.519	10987
912.633	11071
912.748	10915
912.862	10881
912.976	10763
913.09	10649
913.204	10694
913.318	10710
913.431	10755
913.545	10866
913.659	10927
913.772	10790
913.886	10630
914	10637
914.113	10717
914.226	10736
914.34	10714
914.453	10558
914.566	10740
914.68	10641
914.793	10584
914.906	10344
915.019	10287
915.132	10371
915.245	10234
915.358	10447
915.47	10421
915.583	10360
915.696	10344
915.809	10561
915.921	10459
916.034	10341
916.146	10287
916.259	10318
916.371	10424
916.483	10344
916.595	10276
916.708	10398
916.82	10314
916.932	10382
917.044	10341
917.156	10341
917.268	10150
917.38	10238
917.491	10109
917.603	10261
917.715	10314
917.826	10386
917.938	10238
918.049	10082
918.161	10223
918.272	10379
918.384	10436
918.495	10196
918.606	10048
918.717	9983
918.828	10200
918.939	10082
919.05	10040
919.161	10048
919.272	9918
919.383	10048
919.494	10078
919.604	10318
919.715	10173
919.826	10017
919.936	10097
920.047	10261
920.157	10105
920.267	10390
920.378	10204
920.488	10158
920.598	10375
920.708	10466
920.818	10291
920.928	10333
921.038	10523
921.148	10398
921.258	10173
921.368	10093
921.477	10040
921.587	9964
921.697	9930
921.806	10040
921.916	9907
922.025	9743
922.134	9701
922.244	9698
922.353	9800
922.462	9572
922.571	9557
922.68	9454
922.789	9382
922.898	9481
923.007	9370
923.116	9496
923.224	9416
923.333	9408
923.442	9340
923.55	9279
923.659	9272
923.767	9378
923.876	9245
923.984	9283
924.092	9306
924.201	9340
924.309	9321
924.417	9325
924.525	9253
924.633	9264
924.741	10006
924.849	9047
924.956	9283
925.064	9123
925.172	8994
925.279	9070
925.387	9066
925.494	9077
925.602	9226
925.709	9093
925.816	9009
925.924	9100
926.031	9161
926.138	9070
926.245	9077
926.352	9013
926.459	9161
926.566	9195
926.673	9074
926.779	8967
926.886	8956
926.993	8785
927.099	8864
927.206	8720
927.312	8739
927.419	8773
927.525	8819
927.631	8868
927.737	8667
927.843	8648
927.95	8533
928.056	8651
928.162	8750
928.267	8739
928.373	9207
928.479	8781
928.585	8606
928.69	8712
928.796	8587
928.901	8648
929.007	8495
929.112	8594
929.218	8640
929.323	8495
929.428	8488
929.533	8659
929.638	8446
929.743	8457
929.848	8514
929.953	8530
930.058	8431
930.163	8298
930.267	8362
930.372	8396
930.477	8317
930.581	8518
930.685	8389
930.79	8176
930.894	8206
930.998	8149
931.103	8366
931.207	8005
931.311	7974
931.415	7875
931.519	7769
931.623	7693
