Data from test_V78500241_754.txt Node
Date: Fri Mar 25 14:38:58 CST 2022
User: usil
Spectrometer: V785-0024
Trigger mode: 0
Integration Time (sec): 4.000000E-1
Scans to average: 1
Nonlinearity correction enabled: false
Boxcar width: 0
Storing dark spectrum: false
XAxis mode: Wavelengths
Number of Pixels in Spectrum: 1024
>>>>>Begin Spectral Data<<<<<
801.071	27036
801.214	26842
801.356	26606
801.499	26503
801.641	26419
801.783	26336
801.926	26362
802.068	26298
802.211	26229
802.353	26020
802.496	26001
802.638	25868
802.78	25830
802.923	25799
803.065	25788
803.208	25696
803.35	25826
803.492	25818
803.635	25906
803.777	25978
803.919	25944
804.061	26377
804.204	26111
804.346	25936
804.488	25955
804.63	26164
804.773	26001
804.915	26271
805.057	26461
805.199	26286
805.341	26476
805.483	26609
805.626	26632
805.768	26564
805.91	26659
806.052	26891
806.194	27043
806.336	27237
806.478	27367
806.62	27519
806.762	27861
806.904	28287
807.046	28683
807.188	28881
807.33	29334
807.472	29984
807.614	30574
807.756	31567
807.898	32727
808.04	34090
808.182	36224
808.324	38948
808.465	42030
808.607	45306
808.749	48159
808.891	50077
809.033	49993
809.174	48544
809.316	45637
809.458	42076
809.6	38720
809.741	35794
809.883	33758
810.025	32191
810.166	31122
810.308	30357
810.45	29737
810.591	29060
810.733	28485
810.875	28246
811.016	27759
811.158	27595
811.299	27507
811.441	27321
811.582	27416
811.724	27135
811.865	26861
812.007	26853
812.148	26815
812.29	26800
812.431	26712
812.573	26899
812.714	26849
812.855	27150
812.997	27055
813.138	27104
813.279	26929
813.421	26773
813.562	26640
813.703	26476
813.845	26298
813.986	26020
814.127	25830
814.268	25613
814.41	25582
814.551	25582
814.692	25464
814.833	25609
814.974	25468
815.115	25464
815.256	25301
815.397	25282
815.539	25388
815.68	25228
815.821	25008
815.962	25236
816.103	25042
816.244	24833
816.385	24776
816.526	24753
816.666	24563
816.807	24464
816.948	24384
817.089	24479
817.23	24380
817.371	24380
817.512	24334
817.653	24251
817.793	24330
817.934	24254
818.075	24133
818.216	24346
818.356	24258
818.497	24178
818.638	24011
818.778	23999
818.919	24011
819.06	24007
819.2	24026
819.341	24205
819.481	24205
819.622	24239
819.762	24559
819.903	24403
820.043	24285
820.184	24163
820.324	24163
820.465	24216
820.605	24159
820.746	24095
820.886	23923
821.026	24034
821.167	23973
821.307	24072
821.447	24011
821.588	23824
821.728	23687
821.868	23535
822.008	23398
822.149	23318
822.289	23326
822.429	23193
822.569	23071
822.709	23033
822.849	22774
822.99	22801
823.13	22812
823.27	22790
823.41	22698
823.55	22569
823.69	22622
823.83	22618
823.97	22504
824.11	22386
824.25	22478
824.389	22428
824.529	22352
824.669	22379
824.809	22421
824.949	22386
825.089	22394
825.228	22356
825.368	22200
825.508	22166
825.648	22139
825.787	22211
825.927	22204
826.067	22082
826.206	22116
826.346	22173
826.485	22238
826.625	22120
826.765	22215
826.904	22223
827.044	21960
827.183	21835
827.323	21808
827.462	21804
827.601	21850
827.741	21686
827.88	21812
828.02	21652
828.159	21732
828.298	21751
828.437	21762
828.577	21728
828.716	21895
828.855	21739
828.994	21443
829.134	21431
829.273	21511
829.412	21443
829.551	21523
829.69	21473
829.829	21530
829.968	21587
830.107	21443
830.246	21515
830.385	21325
830.524	21287
830.663	21317
830.802	21275
830.941	21112
831.08	21116
831.219	21154
831.357	21146
831.496	21294
831.635	21100
831.774	21070
831.913	21039
832.051	20937
832.19	20941
832.329	21013
832.467	20933
832.606	20876
832.744	20960
832.883	21028
833.022	21100
833.16	21180
833.299	21211
833.437	21431
833.576	21515
833.714	21755
833.852	21903
833.991	22017
834.129	22116
834.267	22112
834.406	22059
834.544	21994
834.682	21907
834.821	21724
834.959	21633
835.097	21458
835.235	21393
835.373	21272
835.511	21142
835.65	20967
835.788	20895
835.926	20811
836.064	20568
836.202	20594
836.34	20670
836.478	20891
836.615	20617
836.753	20583
836.891	20746
837.029	20663
837.167	20644
837.305	20636
837.443	20454
837.58	20355
837.718	20556
837.856	20522
837.993	20370
838.131	20347
838.269	20271
838.406	20377
838.544	20214
838.681	19970
838.819	20050
838.956	19856
839.094	19818
839.231	19917
839.369	20050
839.506	20233
839.643	20115
839.781	19932
839.918	19795
840.055	19868
840.193	19772
840.33	19795
840.467	19814
840.604	19909
840.742	20142
840.879	19723
841.016	19784
841.153	19788
841.29	20043
841.427	19887
841.564	19811
841.701	19898
841.838	19807
841.975	19666
842.112	19845
842.249	19715
842.385	19658
842.522	19765
842.659	19685
842.796	19628
842.933	19628
843.069	19689
843.206	19628
843.343	19822
843.479	19742
843.616	19822
843.752	19613
843.889	19727
844.025	19875
844.162	19795
844.298	20008
844.435	20145
844.571	20221
844.708	20651
844.844	21020
844.98	21439
845.117	22067
845.253	23033
845.389	24920
845.525	28740
845.661	34615
845.798	41550
845.934	46721
846.07	48642
846.206	47086
846.342	42349
846.478	35261
846.614	29337
846.75	25525
846.886	23220
847.022	21926
847.158	20975
847.294	20457
847.429	20157
847.565	19723
847.701	19841
847.837	19312
847.972	19072
848.108	19114
848.244	19061
848.379	18905
848.515	18837
848.65	18715
848.786	18753
848.921	18650
849.057	18753
849.192	18726
849.328	18620
849.463	18566
849.598	18498
849.734	18513
849.869	18506
850.004	18289
850.14	18407
850.275	18376
850.41	18254
850.545	18209
850.68	18334
850.815	18376
850.95	18262
851.085	18452
851.22	18277
851.355	18270
851.49	18247
851.625	18304
851.76	18197
851.895	18182
852.03	18201
852.165	18285
852.299	18338
852.434	18384
852.569	18376
852.703	18365
852.838	18395
852.973	18521
853.107	18506
853.242	18365
853.376	18327
853.511	18372
853.645	18395
853.78	18456
853.914	18555
854.048	18506
854.183	18460
854.317	18612
854.451	18730
854.585	18639
854.72	18563
854.854	18532
854.988	18399
855.122	18414
855.256	18247
855.39	18365
855.524	18494
855.658	18407
855.792	18262
855.926	18330
856.06	18228
856.194	18144
856.327	18083
856.461	18247
856.595	18106
856.729	17973
856.862	18323
856.996	18144
857.13	18163
857.263	18072
857.397	18114
857.53	18102
857.664	18060
857.797	18254
857.931	18224
858.064	18098
858.197	18171
858.331	18049
858.464	17874
858.597	17851
858.731	18079
858.864	18011
858.997	17847
859.13	18064
859.263	17939
859.396	18015
859.529	17996
859.662	18125
859.795	17851
859.928	18095
860.061	18041
860.194	18057
860.327	17950
860.46	17908
860.592	18011
860.725	18095
860.858	18045
860.99	17847
861.123	17923
861.256	17904
861.388	17851
861.521	18509
861.653	17897
861.786	17764
861.918	17729
862.05	17958
862.183	17828
862.315	17874
862.447	18019
862.58	17836
862.712	17653
862.844	17554
862.976	17790
863.108	17710
863.24	18251
863.372	17524
863.504	17501
863.636	17512
863.768	17585
863.9	17619
864.032	17577
864.164	17509
864.296	17680
864.428	17687
864.559	17733
864.691	17703
864.823	17638
864.954	17638
865.086	17634
865.217	17589
865.349	17512
865.48	17547
865.612	17547
865.743	17741
865.875	17482
866.006	17459
866.137	17585
866.269	17532
866.4	17512
866.531	17440
866.662	17512
866.793	17433
866.924	17433
867.055	17410
867.186	17532
867.317	17509
867.448	17429
867.579	17501
867.71	17490
867.841	17406
867.972	17581
868.103	17474
868.233	17547
868.364	17429
868.495	17543
868.625	17703
868.756	17798
868.886	17619
869.017	17760
869.147	17882
869.278	17954
869.408	17828
869.539	17756
869.669	17992
869.799	17847
869.929	18011
870.06	17996
870.19	18178
870.32	18110
870.45	18224
870.58	18266
870.71	18266
870.84	18407
870.97	18174
871.1	18308
871.23	18445
871.36	18486
871.489	18372
871.619	18437
871.749	18570
871.879	18547
872.008	18760
872.138	18433
872.267	18506
872.397	18494
872.526	18388
872.656	18479
872.785	18445
872.915	18631
873.044	18715
873.173	18821
873.303	18661
873.432	18719
873.561	18844
873.69	18776
873.819	18772
873.948	18840
874.077	18863
874.206	18913
874.335	18920
874.464	19122
874.593	19206
874.722	19202
874.851	19331
874.979	19335
875.108	19358
875.237	19331
875.365	19251
875.494	19464
875.623	19510
875.751	19445
875.88	19624
876.008	19753
876.136	19860
876.265	20054
876.393	20313
876.521	20317
876.65	20370
876.778	20377
876.906	20309
877.034	20313
877.162	20484
877.29	20476
877.418	20621
877.546	20697
877.674	20830
877.802	21017
877.93	21085
878.058	21123
878.185	21428
878.313	21789
878.441	22109
878.568	22421
878.696	23006
878.824	23824
878.951	25122
879.079	26587
879.206	28679
879.333	30840
879.461	32457
879.588	33587
879.715	33603
879.842	32746
879.97	30817
880.097	28637
880.224	26998
880.351	25860
880.478	24844
880.605	24224
880.732	23893
880.859	23790
880.986	23497
881.112	23292
881.239	23166
881.366	23083
881.493	23094
881.619	22816
881.746	22934
881.872	23037
881.999	23117
882.125	22991
882.252	23227
882.378	23121
882.505	23353
882.631	23166
882.757	23037
882.883	23079
883.01	22972
883.136	23121
883.262	22972
883.388	22752
883.514	22938
883.64	23018
883.766	22889
883.892	22710
884.018	22850
884.143	22835
884.269	23105
884.395	22706
884.52	22767
884.646	22763
884.772	22634
884.897	22683
885.023	22706
885.148	22759
885.274	22759
885.399	22603
885.524	22428
885.65	22398
885.775	22185
885.9	22059
886.025	22101
886.15	21880
886.275	21576
886.4	21466
886.525	21317
886.65	21173
886.775	21058
886.9	21047
887.025	21184
887.149	20857
887.274	20476
887.399	20404
887.523	20252
887.648	20183
887.773	20005
887.897	20199
888.021	20077
888.146	20024
888.27	19982
888.395	20043
888.519	19932
888.643	19727
888.767	19814
888.891	19613
889.015	19422
889.139	19537
889.263	19460
889.387	19381
889.511	19544
889.635	19468
889.759	19278
889.883	19103
890.006	19263
890.13	19381
890.254	19053
890.377	19065
890.501	18844
890.624	18696
890.748	18810
890.871	18692
890.995	18498
891.118	18448
891.241	18498
891.364	18547
891.488	18585
891.611	18422
891.734	18391
891.857	18456
891.98	18380
892.103	18319
892.226	18342
892.349	18163
892.471	17984
892.594	18163
892.717	18178
892.839	18136
892.962	18038
893.085	18148
893.207	18003
893.33	17965
893.452	17927
893.575	18114
893.697	17885
893.819	18083
893.941	18129
894.064	18057
894.186	17741
894.308	17764
894.43	17828
894.552	17870
894.674	17767
894.796	17661
894.918	17680
895.04	17786
895.161	17790
895.283	17809
895.405	17630
895.526	17608
895.648	17707
895.769	17585
895.891	17684
896.012	17680
896.134	17718
896.255	17581
896.376	17615
896.498	17695
896.619	17680
896.74	17585
896.861	17741
896.982	17863
897.103	18049
897.224	17729
897.345	17699
897.466	17657
897.587	17779
897.708	17859
897.828	17790
897.949	17737
898.07	17619
898.19	17680
898.311	17836
898.431	17813
898.552	17714
898.672	17767
898.792	17805
898.913	17817
899.033	17596
899.153	17627
899.273	17528
899.393	17497
899.513	17691
899.633	17604
899.753	17615
899.873	17501
899.993	17668
900.113	17520
900.232	17558
900.352	17505
900.472	17444
900.591	17326
900.711	17387
900.83	17349
900.95	17512
901.069	17505
901.189	17303
901.308	17003
901.427	16968
901.546	16911
901.665	16991
901.784	16889
901.904	16828
902.023	16691
902.141	16462
902.26	16489
902.379	16588
902.498	16417
902.617	16409
902.735	16436
902.854	16287
902.973	16310
903.091	16036
903.21	16128
903.328	16105
903.446	15975
903.565	15857
903.683	15857
903.801	15831
903.919	15812
904.038	15739
904.156	15663
904.274	15568
904.392	15561
904.51	15519
904.627	15622
904.745	15739
904.863	15682
904.981	15466
905.098	15294
905.216	15279
905.334	15336
905.451	15233
905.569	15211
905.686	15211
905.803	15245
905.921	15081
906.038	15154
906.155	15055
906.272	14925
906.389	15001
906.506	14788
906.623	14750
906.74	14811
906.857	14708
906.974	14701
907.091	14944
907.208	14864
907.324	14765
907.441	14705
907.557	14518
907.674	14514
907.79	14518
907.907	14492
908.023	14484
908.139	14461
908.256	14438
908.372	14355
908.488	14332
908.604	14267
908.72	14259
908.836	14180
908.952	14138
909.068	14221
909.184	14393
909.3	14199
909.415	14282
909.531	14248
909.647	14073
909.762	13986
909.878	13936
909.993	13932
910.108	13947
910.224	13894
910.339	13970
910.454	13925
910.57	13795
910.685	13757
910.8	13940
910.915	13932
911.03	13723
911.145	13662
911.259	13586
911.374	13567
911.489	13620
911.604	13521
911.718	13369
911.833	13354
911.947	13255
912.062	13213
912.176	13346
912.291	13312
912.405	13274
912.519	13449
912.633	13491
912.748	13415
912.862	13365
912.976	13282
913.09	13145
913.204	13126
913.318	13156
913.431	13259
913.545	13312
913.659	13324
913.772	13156
913.886	13152
914	13103
914.113	13088
914.226	13209
914.34	13038
914.453	12928
914.566	13069
914.68	12993
914.793	12939
914.906	12817
915.019	12787
915.132	12635
915.245	12711
915.358	12776
915.47	12768
915.583	12810
915.696	12848
915.809	12878
915.921	12886
916.034	12810
916.146	12749
916.259	12722
916.371	12779
916.483	12814
916.595	12635
916.708	12715
916.82	12711
916.932	12662
917.044	12662
917.156	12669
917.268	12494
917.38	12555
917.491	12540
917.603	12608
917.715	12570
917.826	12627
917.938	12494
918.049	12338
918.161	12574
918.272	12646
918.384	12601
918.495	12418
918.606	12243
918.717	12239
918.828	12327
918.939	12213
919.05	12186
919.161	12232
919.272	12095
919.383	12182
919.494	12289
919.604	12437
919.715	12308
919.826	12235
919.936	12220
920.047	12296
920.157	12292
920.267	12475
920.378	12304
920.488	12136
920.598	12338
920.708	12639
920.818	12429
920.928	12429
921.038	12635
921.148	12521
921.258	12182
921.368	12178
921.477	12129
921.587	12114
921.697	11958
921.806	12034
921.916	11980
922.025	11684
922.134	11668
922.244	11623
922.353	11775
922.462	11577
922.571	11433
922.68	11448
922.789	11402
922.898	11318
923.007	11330
923.116	11398
923.224	11379
923.333	11303
923.442	11231
923.55	11162
923.659	11201
923.767	11235
923.876	11220
923.984	11178
924.092	11140
924.201	11204
924.309	11159
924.417	11193
924.525	11083
924.633	11136
924.741	11840
924.849	10999
924.956	11109
925.064	10930
925.172	10782
925.279	10850
925.387	10965
925.494	10915
925.602	11014
925.709	10953
925.816	10854
925.924	10896
926.031	10942
926.138	10801
926.245	10881
926.352	10820
926.459	10908
926.566	10911
926.673	10786
926.779	10725
926.886	10660
926.993	10596
927.099	10580
927.206	10478
927.312	10550
927.419	10622
927.525	10569
927.631	10584
927.737	10421
927.843	10447
927.95	10348
928.056	10402
928.162	10394
928.267	10451
928.373	11045
928.479	10565
928.585	10291
928.69	10440
928.796	10367
928.901	10322
929.007	10215
929.112	10268
929.218	10188
929.323	10196
929.428	10139
929.533	10382
929.638	10131
929.743	10131
929.848	10188
929.953	10169
930.058	10063
930.163	9907
930.267	9975
930.372	10067
930.477	9915
930.581	10162
930.685	9934
930.79	9812
930.894	9899
930.998	9808
931.103	10044
931.207	9568
931.311	9549
931.415	9469
931.519	9321
931.623	9279
