Data from test_V78500241_3553.txt Node
Date: Fri Mar 25 14:58:27 CST 2022
User: usil
Spectrometer: V785-0024
Trigger mode: 0
Integration Time (sec): 4.000000E-1
Scans to average: 1
Nonlinearity correction enabled: false
Boxcar width: 0
Storing dark spectrum: false
XAxis mode: Wavelengths
Number of Pixels in Spectrum: 1024
>>>>>Begin Spectral Data<<<<<
801.071	21876
801.214	21781
801.356	21534
801.499	21412
801.641	21374
801.783	21195
801.926	21252
802.068	21245
802.211	21207
802.353	21096
802.496	20857
802.638	20899
802.78	20697
802.923	20743
803.065	20503
803.208	20609
803.35	20530
803.492	20762
803.635	20735
803.777	20575
803.919	20689
804.061	20921
804.204	20636
804.346	20499
804.488	20446
804.63	20617
804.773	20393
804.915	20575
805.057	20629
805.199	20609
805.341	20522
805.483	20530
805.626	20609
805.768	20503
805.91	20613
806.052	20522
806.194	20552
806.336	20693
806.478	20465
806.62	20446
806.762	20583
806.904	20739
807.046	20929
807.188	20876
807.33	20724
807.472	20880
807.614	20708
807.756	20792
807.898	20621
808.04	20473
808.182	20587
808.324	20625
808.465	20659
808.607	20769
808.749	20857
808.891	21074
809.033	21005
809.174	20887
809.316	20765
809.458	20708
809.6	20872
809.741	20902
809.883	20891
810.025	21032
810.166	21096
810.308	20979
810.45	20929
810.591	20834
810.733	20678
810.875	20606
811.016	20431
811.158	20556
811.299	20625
811.441	20849
811.582	20545
811.724	20667
811.865	20507
812.007	20476
812.148	20651
812.29	20632
812.431	20769
812.573	20876
812.714	20944
812.855	21074
812.997	21241
813.138	21329
813.279	21222
813.421	21214
813.562	21077
813.703	20845
813.845	20792
813.986	20347
814.127	20320
814.268	20145
814.41	20214
814.551	20115
814.692	20191
814.833	20077
814.974	20103
815.115	20164
815.256	20138
815.397	20058
815.539	19989
815.68	19864
815.821	19799
815.962	19776
816.103	19852
816.244	19845
816.385	19632
816.526	19742
816.666	19422
816.807	19346
816.948	19346
817.089	19468
817.23	19301
817.371	19206
817.512	19308
817.653	19327
817.793	19251
817.934	19278
818.075	19312
818.216	19209
818.356	19190
818.497	19091
818.638	18924
818.778	18977
818.919	18890
819.06	19072
819.2	19152
819.341	19198
819.481	19095
819.622	19278
819.762	19529
819.903	19411
820.043	19274
820.184	19194
820.324	19247
820.465	19343
820.605	19190
820.746	19266
820.886	19145
821.026	19152
821.167	19206
821.307	19251
821.447	19137
821.588	19114
821.728	18954
821.868	18905
822.008	18669
822.149	18692
822.289	18692
822.429	18429
822.569	18388
822.709	18448
822.849	18171
822.99	18144
823.13	18220
823.27	18209
823.41	18053
823.55	17897
823.69	18041
823.83	17935
823.97	17965
824.11	17798
824.25	17729
824.389	17661
824.529	17893
824.669	17703
824.809	17824
824.949	17885
825.089	17767
825.228	17703
825.368	17497
825.508	17471
825.648	17627
825.787	17619
825.927	17543
826.067	17467
826.206	17516
826.346	17528
826.485	17570
826.625	17532
826.765	17691
826.904	17577
827.044	17330
827.183	17185
827.323	17189
827.462	17162
827.601	17311
827.741	17189
827.88	17334
828.02	17128
828.159	17181
828.298	17220
828.437	17277
828.577	17132
828.716	17364
828.855	17170
828.994	17064
829.134	17006
829.273	16949
829.412	17006
829.551	16961
829.69	16991
829.829	17098
829.968	17029
830.107	17022
830.246	16968
830.385	16946
830.524	16866
830.663	16862
830.802	16702
830.941	16592
831.08	16580
831.219	16687
831.357	16626
831.496	16877
831.635	16622
831.774	16634
831.913	16504
832.051	16436
832.19	16405
832.329	16443
832.467	16333
832.606	16280
832.744	16386
832.883	16280
833.022	16249
833.16	16348
833.299	16344
833.437	16329
833.576	16333
833.714	16402
833.852	16310
833.991	16421
834.129	16386
834.267	16386
834.406	16333
834.544	16402
834.682	16436
834.821	16246
834.959	16485
835.097	16318
835.235	16478
835.373	16325
835.511	16314
835.65	16299
835.788	16352
835.926	16185
836.064	16021
836.202	16021
836.34	16310
836.478	16478
836.615	16318
836.753	16322
836.891	16291
837.029	16314
837.167	16272
837.305	16158
837.443	16143
837.58	16128
837.718	16234
837.856	16124
837.993	16101
838.131	16181
838.269	16055
838.406	16173
838.544	16029
838.681	15926
838.819	15736
838.956	15732
839.094	15660
839.231	15717
839.369	15819
839.506	16101
839.643	15930
839.781	15816
839.918	15652
840.055	15797
840.193	15686
840.33	15736
840.467	15694
840.604	15633
840.742	15865
840.879	15557
841.016	15656
841.153	15690
841.29	15835
841.427	15713
841.564	15713
841.701	15641
841.838	15618
841.975	15603
842.112	15709
842.249	15496
842.385	15519
842.522	15720
842.659	15519
842.796	15458
842.933	15553
843.069	15431
843.206	15424
843.343	15644
843.479	15530
843.616	15504
843.752	15268
843.889	15329
844.025	15367
844.162	15283
844.298	15408
844.435	15268
844.571	15150
844.708	15386
844.844	15466
844.98	15564
845.117	15393
845.253	15283
845.389	15169
845.525	15317
845.661	15184
845.798	15066
845.934	15097
846.07	15066
846.206	15176
846.342	15199
846.478	15032
846.614	14963
846.75	14861
846.886	14906
847.022	14937
847.158	14956
847.294	14868
847.429	14979
847.565	14880
847.701	15024
847.837	14606
847.972	14571
848.108	14727
848.244	14651
848.379	14434
848.515	14412
848.65	14389
848.786	14492
848.921	14530
849.057	14568
849.192	14640
849.328	14473
849.463	14484
849.598	14366
849.734	14366
849.869	14336
850.004	14278
850.14	14328
850.275	14256
850.41	14183
850.545	14305
850.68	14210
850.815	14256
850.95	14233
851.085	14370
851.22	14301
851.355	14191
851.49	14210
851.625	14313
851.76	14244
851.895	14153
852.03	14123
852.165	14237
852.299	14324
852.434	14290
852.569	14362
852.703	14202
852.838	14366
852.973	14370
853.107	14381
853.242	14218
853.376	14103
853.511	13986
853.645	14008
853.78	14210
853.914	14123
854.048	14115
854.183	14100
854.317	14088
854.451	14229
854.585	14088
854.72	14081
854.854	14119
854.988	14054
855.122	14088
855.256	14020
855.39	14050
855.524	14233
855.658	14202
855.792	14164
855.926	14168
856.06	14096
856.194	14233
856.327	14084
856.461	14035
856.595	14043
856.729	14092
856.862	14149
856.996	14107
857.13	14123
857.263	14282
857.397	14282
857.53	14100
857.664	14202
857.797	14237
857.931	14180
858.064	14161
858.197	14180
858.331	14039
858.464	14031
858.597	14073
858.731	14111
858.864	14092
858.997	14115
859.13	14111
859.263	14046
859.396	14248
859.529	14111
859.662	14054
859.795	14035
859.928	14172
860.061	14218
860.194	14263
860.327	14153
860.46	14149
860.592	14240
860.725	14313
860.858	14218
860.99	14069
861.123	14043
861.256	14126
861.388	14149
861.521	14891
861.653	13940
861.786	13883
861.918	13997
862.05	14153
862.183	14145
862.315	14069
862.447	14077
862.58	14145
862.712	13887
862.844	13795
862.976	13925
863.108	13875
863.24	14233
863.372	13822
863.504	13887
863.636	13871
863.768	13989
863.9	13894
864.032	13795
864.164	13822
864.296	13944
864.428	14031
864.559	14031
864.691	13959
864.823	13906
864.954	13947
865.086	13913
865.217	13818
865.349	13780
865.48	13947
865.612	13890
865.743	14058
865.875	13852
866.006	13826
866.137	13875
866.269	13776
866.4	13864
866.531	13887
866.662	13871
866.793	13811
866.924	13746
867.055	13879
867.186	13970
867.317	13803
867.448	13769
867.579	13811
867.71	13849
867.841	13799
867.972	13852
868.103	13906
868.233	13921
868.364	13879
868.495	13947
868.625	14142
868.756	14088
868.886	14043
869.017	14123
869.147	14252
869.278	14278
869.408	14142
869.539	14180
869.669	14176
869.799	14244
869.929	14218
870.06	14263
870.19	14404
870.32	14324
870.45	14423
870.58	14587
870.71	14693
870.84	14674
870.97	14610
871.1	14476
871.23	14712
871.36	14750
871.489	14610
871.619	14712
871.749	14689
871.879	14811
872.008	14876
872.138	14769
872.267	14697
872.397	14610
872.526	14476
872.656	14499
872.785	14514
872.915	14655
873.044	14849
873.173	14815
873.303	14758
873.432	14724
873.561	14857
873.69	14849
873.819	14769
873.948	14845
874.077	14777
874.206	14750
874.335	14883
874.464	14960
874.593	15157
874.722	15066
874.851	15192
874.979	15138
875.108	15199
875.237	15089
875.365	15066
875.494	15070
875.623	15199
875.751	15180
875.88	15195
876.008	15249
876.136	15355
876.265	15580
876.393	15694
876.521	15610
876.65	15622
876.778	15614
876.906	15454
877.034	15458
877.162	15572
877.29	15416
877.418	15469
877.546	15526
877.674	15500
877.802	15644
877.93	15557
878.058	15389
878.185	15393
878.313	15561
878.441	15587
878.568	15332
878.696	15515
878.824	15526
878.951	15637
879.079	15766
879.206	15876
879.333	15705
879.461	15599
879.588	15629
879.715	15671
879.842	15755
879.97	15660
880.097	15268
880.224	15329
880.351	15420
880.478	15386
880.605	15401
880.732	15401
880.859	15652
880.986	15530
881.112	15370
881.239	15199
881.366	15180
881.493	14986
881.619	15009
881.746	15055
881.872	15001
881.999	14990
882.125	14967
882.252	15108
882.378	14982
882.505	15062
882.631	14975
882.757	14895
882.883	14994
883.01	14819
883.136	14785
883.262	14621
883.388	14625
883.514	14918
883.64	14975
883.766	14781
883.892	14648
884.018	14777
884.143	14838
884.269	14918
884.395	14667
884.52	14575
884.646	14625
884.772	14568
884.897	14488
885.023	14564
885.148	14754
885.274	14754
885.399	14518
885.524	14469
885.65	14552
885.775	14511
885.9	14602
886.025	14674
886.15	14670
886.275	14499
886.4	14473
886.525	14568
886.65	14492
886.775	14400
886.9	14724
887.025	14743
887.149	14575
887.274	14408
887.399	14301
887.523	14396
887.648	14328
887.773	14313
887.897	14431
888.021	14404
888.146	14298
888.27	14518
888.395	14541
888.519	14415
888.643	14488
888.767	14450
888.891	14317
889.015	14275
889.139	14336
889.263	14240
889.387	14396
889.511	14366
889.635	14431
889.759	14290
889.883	14282
890.006	14286
890.13	14400
890.254	14267
890.377	14290
890.501	14058
890.624	14035
890.748	14138
890.871	13951
890.995	13898
891.118	13906
891.241	14001
891.364	13936
891.488	14130
891.611	13967
891.734	13947
891.857	13947
891.98	14012
892.103	14039
892.226	14001
892.349	13936
892.471	13856
892.594	13860
892.717	13925
892.839	13936
892.962	14020
893.085	13982
893.207	13944
893.33	13772
893.452	13967
893.575	14024
893.697	13963
893.819	14130
893.941	14187
894.064	14123
894.186	13940
894.308	13936
894.43	14092
894.552	14183
894.674	14126
894.796	13986
894.918	13921
895.04	13944
895.161	14130
895.283	14046
895.405	14027
895.526	13997
895.648	14119
895.769	14123
895.891	14092
896.012	14180
896.134	14248
896.255	14046
896.376	14073
896.498	14088
896.619	14130
896.74	14237
896.861	14138
896.982	14480
897.103	14689
897.224	14442
897.345	14404
897.466	14339
897.587	14328
897.708	14598
897.828	14454
897.949	14301
898.07	14153
898.19	14332
898.311	14503
898.431	14366
898.552	14522
898.672	14579
898.792	14499
898.913	14530
899.033	14480
899.153	14385
899.273	14298
899.393	14309
899.513	14282
899.633	14290
899.753	14347
899.873	14309
899.993	14313
900.113	14332
900.232	14374
900.352	14374
900.472	14244
900.591	14176
900.711	14191
900.83	14115
900.95	14358
901.069	14347
901.189	14161
901.308	13959
901.427	13860
901.546	13791
901.665	13902
901.784	13913
901.904	13742
902.023	13651
902.141	13430
902.26	13396
902.379	13575
902.498	13403
902.617	13403
902.735	13457
902.854	13457
902.973	13510
903.091	13221
903.21	13202
903.328	13168
903.446	13107
903.565	13046
903.683	13076
903.801	12878
903.919	12935
904.038	12977
904.156	12768
904.274	12829
904.392	12837
904.51	12844
904.627	12905
904.745	12973
904.863	12859
904.981	12719
905.098	12547
905.216	12528
905.334	12483
905.451	12563
905.569	12486
905.686	12612
905.803	12604
905.921	12353
906.038	12494
906.155	12365
906.272	12296
906.389	12319
906.506	12098
906.623	12167
906.74	12220
906.857	12034
906.974	12076
907.091	12159
907.208	12258
907.324	12076
907.441	12011
907.557	11969
907.674	11931
907.79	11805
907.907	11828
908.023	11927
908.139	11912
908.256	11771
908.372	11802
908.488	11733
908.604	11638
908.72	11592
908.836	11646
908.952	11585
909.068	11665
909.184	11824
909.3	11627
909.415	11710
909.531	11737
909.647	11387
909.762	11471
909.878	11410
909.993	11417
910.108	11402
910.224	11410
910.339	11368
910.454	11318
910.57	11277
910.685	11083
910.8	11509
910.915	11493
911.03	11231
911.145	11132
911.259	11052
911.374	11094
911.489	11086
911.604	10930
911.718	10858
911.833	10900
911.947	10774
912.062	10702
912.176	10866
912.291	10900
912.405	10911
912.519	11010
912.633	11098
912.748	10999
912.862	10873
912.976	10805
913.09	10588
913.204	10698
913.318	10725
913.431	10889
913.545	10900
913.659	10927
913.772	10714
913.886	10603
914	10683
914.113	10771
914.226	10801
914.34	10714
914.453	10527
914.566	10744
914.68	10584
914.793	10637
914.906	10375
915.019	10344
915.132	10325
915.245	10386
915.358	10352
915.47	10337
915.583	10432
915.696	10356
915.809	10569
915.921	10573
916.034	10325
916.146	10348
916.259	10280
916.371	10413
916.483	10436
916.595	10382
916.708	10284
916.82	10348
916.932	10272
917.044	10295
917.156	10257
917.268	10166
917.38	10223
917.491	10181
917.603	10158
917.715	10333
917.826	10238
917.938	10192
918.049	10059
918.161	10223
918.272	10337
918.384	10367
918.495	10299
918.606	10032
918.717	10090
918.828	10071
918.939	10150
919.05	10029
919.161	10097
919.272	9922
919.383	10006
919.494	10196
919.604	10348
919.715	10082
919.826	10074
919.936	10082
920.047	10200
920.157	10078
920.267	10337
920.378	10128
920.488	10211
920.598	10287
920.708	10481
920.818	10291
920.928	10306
921.038	10489
921.148	10455
921.258	10188
921.368	10055
921.477	10059
921.587	10013
921.697	9907
921.806	10010
921.916	9857
922.025	9774
922.134	9720
922.244	9663
922.353	9743
922.462	9660
922.571	9477
922.68	9401
922.789	9367
922.898	9405
923.007	9291
923.116	9374
923.224	9359
923.333	9416
923.442	9260
923.55	9241
923.659	9237
923.767	9329
923.876	9298
923.984	9329
924.092	9184
924.201	9199
924.309	9291
924.417	9241
924.525	9222
924.633	9218
924.741	9899
924.849	8990
924.956	9222
925.064	9005
925.172	8971
925.279	8982
925.387	9085
925.494	9047
925.602	9211
925.709	9146
925.816	8952
925.924	9055
926.031	9104
926.138	9047
926.245	9119
926.352	8967
926.459	9150
926.566	9131
926.673	8979
926.779	8895
926.886	8876
926.993	8781
927.099	8693
927.206	8727
927.312	8697
927.419	8864
927.525	8701
927.631	8743
927.737	8678
927.843	8655
927.95	8530
928.056	8594
928.162	8503
928.267	8693
928.373	9359
928.479	8758
928.585	8522
928.69	8663
928.796	8667
928.901	8602
929.007	8454
929.112	8545
929.218	8484
929.323	8404
929.428	8423
929.533	8583
929.638	8450
929.743	8533
929.848	8484
929.953	8457
930.058	8370
930.163	8218
930.267	8225
930.372	8412
930.477	8206
930.581	8446
930.685	8309
930.79	8123
930.894	8237
930.998	8172
931.103	8332
931.207	8020
931.311	7982
931.415	7860
931.519	7685
931.623	7734
