Data from test_V78500241_2012.txt Node
Date: Fri Mar 25 14:47:43 CST 2022
User: usil
Spectrometer: V785-0024
Trigger mode: 0
Integration Time (sec): 4.000000E-1
Scans to average: 1
Nonlinearity correction enabled: false
Boxcar width: 0
Storing dark spectrum: false
XAxis mode: Wavelengths
Number of Pixels in Spectrum: 1024
>>>>>Begin Spectral Data<<<<<
801.071	22188
801.214	21994
801.356	21713
801.499	21747
801.641	21583
801.783	21443
801.926	21629
802.068	21424
802.211	21428
802.353	21237
802.496	21112
802.638	21032
802.78	20823
802.923	20883
803.065	20921
803.208	20785
803.35	20880
803.492	20929
803.635	20914
803.777	20872
803.919	20853
804.061	21135
804.204	20834
804.346	20887
804.488	20731
804.63	20838
804.773	20800
804.915	20792
805.057	20708
805.199	20807
805.341	20674
805.483	20796
805.626	20834
805.768	20746
805.91	20815
806.052	20754
806.194	20678
806.336	20781
806.478	20705
806.62	20606
806.762	20880
806.904	20872
807.046	21150
807.188	21047
807.33	21089
807.472	21150
807.614	21013
807.756	20887
807.898	20739
808.04	20724
808.182	20697
808.324	20777
808.465	20849
808.607	20990
808.749	21252
808.891	21138
809.033	21359
809.174	21173
809.316	21070
809.458	21028
809.6	21100
809.741	21169
809.883	21077
810.025	21230
810.166	21340
810.308	21252
810.45	21108
810.591	21131
810.733	21028
810.875	21028
811.016	20811
811.158	20929
811.299	21036
811.441	21051
811.582	21077
811.724	20872
811.865	20876
812.007	20899
812.148	20842
812.29	20952
812.431	21058
812.573	21176
812.714	21252
812.855	21401
812.997	21515
813.138	21519
813.279	21591
813.421	21412
813.562	21355
813.703	21226
813.845	21043
813.986	20686
814.127	20587
814.268	20423
814.41	20522
814.551	20499
814.692	20427
814.833	20389
814.974	20343
815.115	20446
815.256	20210
815.397	20328
815.539	20324
815.68	20187
815.821	20153
815.962	20153
816.103	20199
816.244	19982
816.385	19940
816.526	19921
816.666	19647
816.807	19537
816.948	19708
817.089	19704
817.23	19632
817.371	19529
817.512	19559
817.653	19624
817.793	19487
817.934	19518
818.075	19605
818.216	19597
818.356	19510
818.497	19483
818.638	19206
818.778	19194
818.919	19225
819.06	19282
819.2	19449
819.341	19388
819.481	19392
819.622	19609
819.762	19826
819.903	19685
820.043	19639
820.184	19578
820.324	19430
820.465	19643
820.605	19552
820.746	19628
820.886	19392
821.026	19620
821.167	19468
821.307	19556
821.447	19491
821.588	19396
821.728	19221
821.868	19107
822.008	18924
822.149	19023
822.289	18958
822.429	18692
822.569	18635
822.709	18654
822.849	18506
822.99	18426
823.13	18483
823.27	18407
823.41	18247
823.55	18239
823.69	18201
823.83	18232
823.97	18213
824.11	18026
824.25	18034
824.389	18167
824.529	18182
824.669	17954
824.809	18095
824.949	18057
825.089	18076
825.228	18026
825.368	17901
825.508	17882
825.648	17828
825.787	17798
825.927	17870
826.067	17745
826.206	17798
826.346	17748
826.485	17897
826.625	17790
826.765	17897
826.904	17840
827.044	17558
827.183	17592
827.323	17459
827.462	17535
827.601	17516
827.741	17558
827.88	17429
828.02	17398
828.159	17585
828.298	17543
828.437	17653
828.577	17486
828.716	17634
828.855	17436
828.994	17292
829.134	17280
829.273	17227
829.412	17193
829.551	17147
829.69	17147
829.829	17318
829.968	17318
830.107	17277
830.246	17231
830.385	17261
830.524	17105
830.663	17079
830.802	16942
830.941	16869
831.08	16828
831.219	17022
831.357	16934
831.496	17060
831.635	16835
831.774	16790
831.913	16786
832.051	16694
832.19	16656
832.329	16698
832.467	16603
832.606	16478
832.744	16459
832.883	16611
833.022	16634
833.16	16634
833.299	16519
833.437	16523
833.576	16550
833.714	16641
833.852	16683
833.991	16637
834.129	16752
834.267	16611
834.406	16546
834.544	16634
834.682	16649
834.821	16580
834.959	16752
835.097	16561
835.235	16706
835.373	16691
835.511	16584
835.65	16588
835.788	16611
835.926	16405
836.064	16375
836.202	16424
836.34	16577
836.478	16653
836.615	16535
836.753	16459
836.891	16702
837.029	16546
837.167	16542
837.305	16527
837.443	16474
837.58	16299
837.718	16519
837.856	16474
837.993	16295
838.131	16508
838.269	16314
838.406	16341
838.544	16253
838.681	16082
838.819	16124
838.956	15876
839.094	16013
839.231	16036
839.369	16086
839.506	16344
839.643	16246
839.781	15998
839.918	15922
840.055	15949
840.193	15945
840.33	15915
840.467	15991
840.604	16051
840.742	16207
840.879	15751
841.016	15808
841.153	15831
841.29	16051
841.427	15930
841.564	16010
841.701	16017
841.838	15895
841.975	15926
842.112	15838
842.249	15797
842.385	15732
842.522	15953
842.659	15778
842.796	15739
842.933	15713
843.069	15648
843.206	15618
843.343	15880
843.479	15724
843.616	15785
843.752	15477
843.889	15519
844.025	15720
844.162	15447
844.298	15618
844.435	15515
844.571	15424
844.708	15599
844.844	15686
844.98	15652
845.117	15599
845.253	15564
845.389	15443
845.525	15488
845.661	15389
845.798	15344
845.934	15363
846.07	15306
846.206	15317
846.342	15492
846.478	15260
846.614	15150
846.75	15081
846.886	15047
847.022	15085
847.158	15173
847.294	15104
847.429	15195
847.565	15150
847.701	15237
847.837	14906
847.972	14735
848.108	14849
848.244	14914
848.379	14769
848.515	14617
848.65	14651
848.786	14716
848.921	14712
849.057	14743
849.192	14819
849.328	14788
849.463	14674
849.598	14583
849.734	14720
849.869	14545
850.004	14469
850.14	14465
850.275	14442
850.41	14362
850.545	14282
850.68	14396
850.815	14377
850.95	14389
851.085	14686
851.22	14568
851.355	14469
851.49	14438
851.625	14522
851.76	14377
851.895	14278
852.03	14351
852.165	14465
852.299	14514
852.434	14579
852.569	14511
852.703	14602
852.838	14495
852.973	14606
853.107	14556
853.242	14415
853.376	14301
853.511	14244
853.645	14377
853.78	14412
853.914	14290
854.048	14332
854.183	14252
854.317	14358
854.451	14404
854.585	14339
854.72	14328
854.854	14389
854.988	14214
855.122	14328
855.256	14172
855.39	14256
855.524	14473
855.658	14317
855.792	14286
855.926	14259
856.06	14419
856.194	14450
856.327	14305
856.461	14195
856.595	14336
856.729	14309
856.862	14473
856.996	14355
857.13	14450
857.263	14457
857.397	14507
857.53	14389
857.664	14438
857.797	14457
857.931	14530
858.064	14328
858.197	14412
858.331	14332
858.464	14305
858.597	14229
858.731	14339
858.864	14214
858.997	14336
859.13	14332
859.263	14381
859.396	14358
859.529	14282
859.662	14275
859.795	14244
859.928	14301
860.061	14446
860.194	14537
860.327	14343
860.46	14252
860.592	14377
860.725	14552
860.858	14450
860.99	14248
861.123	14267
861.256	14206
861.388	14362
861.521	15039
861.653	14263
861.786	14164
861.918	14218
862.05	14187
862.183	14320
862.315	14278
862.447	14393
862.58	14244
862.712	14081
862.844	14111
862.976	14153
863.108	14187
863.24	14450
863.372	13906
863.504	14054
863.636	14157
863.768	14126
863.9	14123
864.032	14058
864.164	14081
864.296	14180
864.428	14168
864.559	14267
864.691	14199
864.823	14161
864.954	14130
865.086	14180
865.217	14130
865.349	14062
865.48	14084
865.612	14134
865.743	14199
865.875	14088
866.006	14092
866.137	14069
866.269	14134
866.4	14081
866.531	14046
866.662	14035
866.793	13928
866.924	14001
867.055	14035
867.186	14084
867.317	14130
867.448	13967
867.579	14062
867.71	13917
867.841	13993
867.972	14145
868.103	14020
868.233	13974
868.364	14119
868.495	14149
868.625	14301
868.756	14362
868.886	14206
869.017	14362
869.147	14381
869.278	14400
869.408	14282
869.539	14347
869.669	14446
869.799	14457
869.929	14518
870.06	14427
870.19	14655
870.32	14659
870.45	14651
870.58	14762
870.71	14880
870.84	14868
870.97	14659
871.1	14701
871.23	14880
871.36	14952
871.489	14796
871.619	14994
871.749	14902
871.879	15051
872.008	15001
872.138	14914
872.267	14868
872.397	14746
872.526	14853
872.656	14731
872.785	14785
872.915	14963
873.044	15074
873.173	14986
873.303	15051
873.432	15028
873.561	15100
873.69	15017
873.819	14982
873.948	15058
874.077	15017
874.206	14944
874.335	14883
874.464	15157
874.593	15222
874.722	15218
874.851	15306
874.979	15279
875.108	15325
875.237	15233
875.365	15180
875.494	15313
875.623	15420
875.751	15154
875.88	15317
876.008	15485
876.136	15530
876.265	15717
876.393	15899
876.521	15728
876.65	15751
876.778	15743
876.906	15720
877.034	15679
877.162	15739
877.29	15682
877.418	15682
877.546	15743
877.674	15652
877.802	15690
877.93	15770
878.058	15705
878.185	15561
878.313	15732
878.441	15709
878.568	15576
878.696	15667
878.824	15713
878.951	15766
879.079	15808
879.206	15960
879.333	15926
879.461	15755
879.588	15869
879.715	15899
879.842	16025
879.97	15842
880.097	15656
880.224	15580
880.351	15652
880.478	15606
880.605	15496
880.732	15644
880.859	15743
880.986	15701
881.112	15488
881.239	15428
881.366	15416
881.493	15313
881.619	15180
881.746	15260
881.872	15256
881.999	15169
882.125	15100
882.252	15359
882.378	15272
882.505	15302
882.631	15180
882.757	15093
882.883	15070
883.01	15001
883.136	14963
883.262	14975
883.388	14891
883.514	15020
883.64	15085
883.766	14956
883.892	14838
884.018	14891
884.143	15013
884.269	15131
884.395	14823
884.52	14686
884.646	14785
884.772	14648
884.897	14644
885.023	14807
885.148	14792
885.274	14933
885.399	14807
885.524	14826
885.65	14777
885.775	14777
885.9	14796
886.025	14830
886.15	14739
886.275	14731
886.4	14743
886.525	14701
886.65	14727
886.775	14587
886.9	14876
887.025	15020
887.149	14777
887.274	14610
887.399	14560
887.523	14549
887.648	14545
887.773	14480
887.897	14583
888.021	14655
888.146	14541
888.27	14556
888.395	14720
888.519	14636
888.643	14678
888.767	14583
888.891	14541
889.015	14434
889.139	14415
889.263	14381
889.387	14461
889.511	14629
889.635	14575
889.759	14446
889.883	14438
890.006	14488
890.13	14530
890.254	14450
890.377	14370
890.501	14286
890.624	14237
890.748	14237
890.871	14157
890.995	14130
891.118	14107
891.241	14107
891.364	14119
891.488	14218
891.611	14138
891.734	14123
891.857	14263
891.98	14138
892.103	14180
892.226	14153
892.349	14134
892.471	13875
892.594	14069
892.717	14153
892.839	14088
892.962	14206
893.085	14138
893.207	14153
893.33	14043
893.452	14020
893.575	14168
893.697	14168
893.819	14271
893.941	14400
894.064	14370
894.186	14119
894.308	14107
894.43	14229
894.552	14324
894.674	14339
894.796	14115
894.918	14157
895.04	14248
895.161	14317
895.283	14355
895.405	14225
895.526	14278
895.648	14233
895.769	14286
895.891	14328
896.012	14377
896.134	14271
896.255	14290
896.376	14286
896.498	14263
896.619	14423
896.74	14294
896.861	14381
896.982	14564
897.103	14830
897.224	14503
897.345	14461
897.466	14415
897.587	14629
897.708	14632
897.828	14636
897.949	14594
898.07	14461
898.19	14579
898.311	14762
898.431	14552
898.552	14689
898.672	14754
898.792	14705
898.913	14708
899.033	14541
899.153	14556
899.273	14454
899.393	14431
899.513	14473
899.633	14590
899.753	14545
899.873	14473
899.993	14511
900.113	14434
900.232	14461
900.352	14446
900.472	14381
900.591	14290
900.711	14377
900.83	14278
900.95	14530
901.069	14492
901.189	14301
901.308	14218
901.427	14012
901.546	13932
901.665	14115
901.784	14088
901.904	13928
902.023	13814
902.141	13658
902.26	13647
902.379	13704
902.498	13559
902.617	13643
902.735	13636
902.854	13590
902.973	13567
903.091	13308
903.21	13312
903.328	13331
903.446	13285
903.565	13179
903.683	13164
903.801	13034
903.919	13187
904.038	13183
904.156	12947
904.274	12951
904.392	12981
904.51	12958
904.627	12943
904.745	13046
904.863	13126
904.981	12825
905.098	12673
905.216	12707
905.334	12646
905.451	12688
905.569	12646
905.686	12730
905.803	12757
905.921	12506
906.038	12601
906.155	12467
906.272	12407
906.389	12410
906.506	12220
906.623	12308
906.74	12300
906.857	12110
906.974	12083
907.091	12273
907.208	12403
907.324	12270
907.441	12247
907.557	12045
907.674	12034
907.79	12019
907.907	11977
908.023	12041
908.139	12060
908.256	11980
908.372	11973
908.488	11965
908.604	11908
908.72	11638
908.836	11760
908.952	11786
909.068	11901
909.184	11882
909.3	11748
909.415	11843
909.531	11805
909.647	11577
909.762	11611
909.878	11539
909.993	11509
910.108	11516
910.224	11482
910.339	11547
910.454	11379
910.57	11406
910.685	11284
910.8	11684
910.915	11615
911.03	11421
911.145	11299
911.259	11201
911.374	11197
911.489	11132
911.604	11124
911.718	11094
911.833	11037
911.947	10915
912.062	10778
912.176	10999
912.291	11006
912.405	10965
912.519	11242
912.633	11216
912.748	11109
912.862	10991
912.976	10889
913.09	10793
913.204	10896
913.318	10900
913.431	10987
913.545	11025
913.659	10987
913.772	10930
913.886	10793
914	10771
914.113	10831
914.226	10782
914.34	10831
914.453	10706
914.566	10869
914.68	10729
914.793	10679
914.906	10493
915.019	10440
915.132	10428
915.245	10462
915.358	10542
915.47	10481
915.583	10512
915.696	10626
915.809	10618
915.921	10694
916.034	10569
916.146	10447
916.259	10443
916.371	10584
916.483	10504
916.595	10379
916.708	10371
916.82	10402
916.932	10447
917.044	10455
917.156	10405
917.268	10272
917.38	10310
917.491	10344
917.603	10386
917.715	10428
917.826	10455
917.938	10291
918.049	10268
918.161	10344
918.272	10443
918.384	10417
918.495	10382
918.606	10249
918.717	10162
918.828	10303
918.939	10257
919.05	10120
919.161	10154
919.272	9960
919.383	10040
919.494	10219
919.604	10440
919.715	10238
919.826	10188
919.936	10166
920.047	10291
920.157	10215
920.267	10531
920.378	10272
920.488	10295
920.598	10500
920.708	10641
920.818	10538
920.928	10485
921.038	10603
921.148	10599
921.258	10356
921.368	10196
921.477	10150
921.587	10078
921.697	10040
921.806	10109
921.916	10010
922.025	9850
922.134	9819
922.244	9774
922.353	9892
922.462	9740
922.571	9587
922.68	9641
922.789	9492
922.898	9572
923.007	9462
923.116	9587
923.224	9473
923.333	9485
923.442	9477
923.55	9466
923.659	9439
923.767	9450
923.876	9405
923.984	9416
924.092	9351
924.201	9313
924.309	9393
924.417	9412
924.525	9359
924.633	9382
924.741	10291
924.849	9138
924.956	9363
925.064	9146
925.172	9131
925.279	9116
925.387	9199
925.494	9222
925.602	9325
925.709	9287
925.816	9157
925.924	9211
926.031	9176
926.138	9142
926.245	9241
926.352	9104
926.459	9241
926.566	9329
926.673	9150
926.779	9058
926.886	9085
926.993	8918
927.099	8887
927.206	8895
927.312	8861
927.419	8956
927.525	8948
927.631	9001
927.737	8826
927.843	8773
927.95	8724
928.056	8792
928.162	8864
928.267	8826
928.373	9492
928.479	8929
928.585	8606
928.69	8727
928.796	8883
928.901	8712
929.007	8564
929.112	8693
929.218	8659
929.323	8575
929.428	8606
929.533	8724
929.638	8514
929.743	8670
929.848	8644
929.953	8606
930.058	8488
930.163	8408
930.267	8343
930.372	8488
930.477	8355
930.581	8602
930.685	8431
930.79	8339
930.894	8324
930.998	8412
931.103	8431
931.207	8149
931.311	8043
931.415	8012
931.519	7852
931.623	7822
