Data from test_V78500241_2239.txt Node
Date: Fri Mar 25 14:49:18 CST 2022
User: usil
Spectrometer: V785-0024
Trigger mode: 0
Integration Time (sec): 4.000000E-1
Scans to average: 1
Nonlinearity correction enabled: false
Boxcar width: 0
Storing dark spectrum: false
XAxis mode: Wavelengths
Number of Pixels in Spectrum: 1024
>>>>>Begin Spectral Data<<<<<
801.071	22112
801.214	22044
801.356	21762
801.499	21679
801.641	21625
801.783	21473
801.926	21466
802.068	21507
802.211	21367
802.353	21222
802.496	21135
802.638	21017
802.78	21032
802.923	20819
803.065	20849
803.208	20826
803.35	20883
803.492	20876
803.635	20956
803.777	20891
803.919	20758
804.061	21142
804.204	21005
804.346	20762
804.488	20746
804.63	20853
804.773	20670
804.915	20807
805.057	20948
805.199	20796
805.341	20830
805.483	20902
805.626	20891
805.768	20674
805.91	20804
806.052	20804
806.194	20716
806.336	20853
806.478	20792
806.62	20826
806.762	20796
806.904	20895
807.046	21173
807.188	21150
807.33	21161
807.472	21127
807.614	21001
807.756	20937
807.898	20975
808.04	20861
808.182	20861
808.324	20849
808.465	20952
808.607	20994
808.749	21176
808.891	21226
809.033	21306
809.174	21321
809.316	21199
809.458	21150
809.6	21116
809.741	21195
809.883	21142
810.025	21245
810.166	21355
810.308	21313
810.45	21237
810.591	21199
810.733	21024
810.875	20960
811.016	20861
811.158	20785
811.299	20990
811.441	20956
811.582	20998
811.724	20944
811.865	20811
812.007	20876
812.148	20868
812.29	21161
812.431	20948
812.573	21241
812.714	21298
812.855	21549
812.997	21466
813.138	21553
813.279	21538
813.421	21344
813.562	21386
813.703	21230
813.845	21173
813.986	20769
814.127	20621
814.268	20670
814.41	20530
814.551	20484
814.692	20484
814.833	20541
814.974	20473
815.115	20389
815.256	20385
815.397	20267
815.539	20336
815.68	20332
815.821	20161
815.962	20248
816.103	20111
816.244	19940
816.385	19951
816.526	19997
816.666	19807
816.807	19563
816.948	19742
817.089	19715
817.23	19655
817.371	19609
817.512	19632
817.653	19594
817.793	19502
817.934	19609
818.075	19616
818.216	19647
818.356	19499
818.497	19445
818.638	19312
818.778	19304
818.919	19221
819.06	19289
819.2	19434
819.341	19441
819.481	19544
819.622	19613
819.762	19753
819.903	19696
820.043	19578
820.184	19685
820.324	19556
820.465	19715
820.605	19563
820.746	19601
820.886	19422
821.026	19491
821.167	19514
821.307	19658
821.447	19445
821.588	19350
821.728	19259
821.868	19168
822.008	18981
822.149	18958
822.289	18856
822.429	18757
822.569	18711
822.709	18620
822.849	18494
822.99	18407
823.13	18486
823.27	18471
823.41	18410
823.55	18220
823.69	18235
823.83	18159
823.97	18182
824.11	17988
824.25	18182
824.389	18022
824.529	18216
824.669	18072
824.809	18190
824.949	18125
825.089	18038
825.228	18106
825.368	17836
825.508	17859
825.648	17863
825.787	17832
825.927	17897
826.067	17767
826.206	17802
826.346	17843
826.485	17935
826.625	17912
826.765	17992
826.904	17855
827.044	17657
827.183	17573
827.323	17471
827.462	17649
827.601	17547
827.741	17623
827.88	17611
828.02	17387
828.159	17630
828.298	17577
828.437	17615
828.577	17543
828.716	17672
828.855	17482
828.994	17315
829.134	17398
829.273	17261
829.412	17227
829.551	17288
829.69	17254
829.829	17376
829.968	17372
830.107	17273
830.246	17330
830.385	17303
830.524	17041
830.663	17159
830.802	17147
830.941	16869
831.08	16911
831.219	16927
831.357	17067
831.496	17003
831.635	16930
831.774	16805
831.913	16645
832.051	16713
832.19	16679
832.329	16767
832.467	16679
832.606	16542
832.744	16618
832.883	16558
833.022	16535
833.16	16611
833.299	16615
833.437	16573
833.576	16664
833.714	16618
833.852	16626
833.991	16561
834.129	16637
834.267	16786
834.406	16618
834.544	16683
834.682	16713
834.821	16588
834.959	16759
835.097	16580
835.235	16786
835.373	16626
835.511	16691
835.65	16554
835.788	16409
835.926	16504
836.064	16367
836.202	16352
836.34	16569
836.478	16744
836.615	16634
836.753	16565
836.891	16596
837.029	16618
837.167	16573
837.305	16497
837.443	16527
837.58	16405
837.718	16584
837.856	16451
837.993	16424
838.131	16386
838.269	16379
838.406	16379
838.544	16295
838.681	16090
838.819	16055
838.956	15903
839.094	16010
839.231	16063
839.369	16093
839.506	16386
839.643	16268
839.781	15975
839.918	15987
840.055	16074
840.193	15876
840.33	15953
840.467	16002
840.604	16067
840.742	16200
840.879	15827
841.016	15842
841.153	15930
841.29	16078
841.427	15930
841.564	15956
841.701	16021
841.838	15895
841.975	15865
842.112	15899
842.249	15755
842.385	15713
842.522	15907
842.659	15679
842.796	15747
842.933	15720
843.069	15667
843.206	15606
843.343	15838
843.479	15667
843.616	15675
843.752	15523
843.889	15568
844.025	15641
844.162	15485
844.298	15652
844.435	15538
844.571	15557
844.708	15595
844.844	15656
844.98	15682
845.117	15656
845.253	15477
845.389	15405
845.525	15443
845.661	15420
845.798	15321
845.934	15393
846.07	15367
846.206	15405
846.342	15500
846.478	15332
846.614	15230
846.75	15055
846.886	14998
847.022	15237
847.158	15119
847.294	15104
847.429	15070
847.565	15108
847.701	15218
847.837	14899
847.972	14815
848.108	14872
848.244	14925
848.379	14823
848.515	14651
848.65	14720
848.786	14667
848.921	14617
849.057	14773
849.192	14720
849.328	14750
849.463	14682
849.598	14670
849.734	14556
849.869	14492
850.004	14465
850.14	14454
850.275	14446
850.41	14423
850.545	14336
850.68	14404
850.815	14469
850.95	14450
851.085	14606
851.22	14537
851.355	14476
851.49	14336
851.625	14393
851.76	14396
851.895	14259
852.03	14305
852.165	14476
852.299	14530
852.434	14454
852.569	14473
852.703	14499
852.838	14522
852.973	14590
853.107	14564
853.242	14362
853.376	14301
853.511	14259
853.645	14328
853.78	14446
853.914	14313
854.048	14275
854.183	14305
854.317	14355
854.451	14393
854.585	14252
854.72	14225
854.854	14377
854.988	14214
855.122	14324
855.256	14252
855.39	14259
855.524	14377
855.658	14465
855.792	14438
855.926	14362
856.06	14324
856.194	14454
856.327	14351
856.461	14286
856.595	14256
856.729	14267
856.862	14450
856.996	14286
857.13	14389
857.263	14434
857.397	14396
857.53	14377
857.664	14427
857.797	14389
857.931	14480
858.064	14358
858.197	14362
858.331	14423
858.464	14324
858.597	14195
858.731	14324
858.864	14309
858.997	14336
859.13	14301
859.263	14389
859.396	14385
859.529	14370
859.662	14358
859.795	14339
859.928	14332
860.061	14370
860.194	14415
860.327	14393
860.46	14252
860.592	14469
860.725	14442
860.858	14408
860.99	14278
861.123	14210
861.256	14161
861.388	14332
861.521	14838
861.653	14240
861.786	14069
861.918	14115
862.05	14180
862.183	14267
862.315	14298
862.447	14320
862.58	14282
862.712	14161
862.844	14062
862.976	14214
863.108	14088
863.24	14377
863.372	13997
863.504	14119
863.636	14100
863.768	14084
863.9	14172
864.032	14069
864.164	14062
864.296	14161
864.428	14176
864.559	14168
864.691	14256
864.823	14229
864.954	14153
865.086	14031
865.217	13940
865.349	14031
865.48	14103
865.612	14027
865.743	14256
865.875	14142
866.006	14031
866.137	14084
866.269	13989
866.4	14088
866.531	14039
866.662	14005
866.793	14081
866.924	13959
867.055	14130
867.186	14024
867.317	13967
867.448	13967
867.579	13963
867.71	13879
867.841	14001
867.972	14092
868.103	14035
868.233	13997
868.364	14103
868.495	14180
868.625	14343
868.756	14374
868.886	14237
869.017	14313
869.147	14461
869.278	14522
869.408	14347
869.539	14317
869.669	14404
869.799	14366
869.929	14385
870.06	14412
870.19	14564
870.32	14674
870.45	14594
870.58	14708
870.71	14895
870.84	14849
870.97	14792
871.1	14613
871.23	14868
871.36	14918
871.489	14815
871.619	14887
871.749	14910
871.879	14883
872.008	15024
872.138	14899
872.267	14937
872.397	14762
872.526	14678
872.656	14712
872.785	14861
872.915	14979
873.044	14967
873.173	14941
873.303	15005
873.432	14982
873.561	15013
873.69	14944
873.819	14887
873.948	15001
874.077	14902
874.206	14952
874.335	14838
874.464	15097
874.593	15272
874.722	15116
874.851	15420
874.979	15279
875.108	15272
875.237	15203
875.365	15199
875.494	15256
875.623	15348
875.751	15294
875.88	15214
876.008	15344
876.136	15473
876.265	15622
876.393	15835
876.521	15892
876.65	15762
876.778	15660
876.906	15713
877.034	15603
877.162	15633
877.29	15663
877.418	15656
877.546	15625
877.674	15705
877.802	15690
877.93	15747
878.058	15747
878.185	15701
878.313	15641
878.441	15713
878.568	15526
878.696	15610
878.824	15739
878.951	15648
879.079	15915
879.206	16040
879.333	15831
879.461	15793
879.588	15903
879.715	15827
879.842	15926
879.97	15831
880.097	15469
880.224	15572
880.351	15595
880.478	15549
880.605	15469
880.732	15473
880.859	15800
880.986	15564
881.112	15538
881.239	15473
881.366	15294
881.493	15245
881.619	15138
881.746	15081
881.872	15150
881.999	15123
882.125	15138
882.252	15207
882.378	15226
882.505	15348
882.631	15146
882.757	15104
882.883	15062
883.01	14975
883.136	14998
883.262	14921
883.388	14960
883.514	15020
883.64	15036
883.766	14979
883.892	14807
884.018	14937
884.143	14887
884.269	15116
884.395	14804
884.52	14708
884.646	14842
884.772	14720
884.897	14571
885.023	14705
885.148	14845
885.274	14807
885.399	14785
885.524	14708
885.65	14648
885.775	14788
885.9	14746
886.025	14861
886.15	14727
886.275	14697
886.4	14731
886.525	14640
886.65	14712
886.775	14625
886.9	14830
887.025	14876
887.149	14678
887.274	14629
887.399	14575
887.523	14457
887.648	14457
887.773	14598
887.897	14648
888.021	14549
888.146	14522
888.27	14587
888.395	14708
888.519	14590
888.643	14568
888.767	14689
888.891	14522
889.015	14370
889.139	14514
889.263	14408
889.387	14488
889.511	14575
889.635	14541
889.759	14370
889.883	14328
890.006	14423
890.13	14522
890.254	14358
890.377	14313
890.501	14221
890.624	14214
890.748	14183
890.871	14077
890.995	14016
891.118	13974
891.241	14206
891.364	14123
891.488	14187
891.611	14050
891.734	14077
891.857	14119
891.98	14073
892.103	14119
892.226	14256
892.349	14180
892.471	14046
892.594	14077
892.717	14134
892.839	14077
892.962	14020
893.085	14172
893.207	14073
893.33	13932
893.452	14050
893.575	14138
893.697	14096
893.819	14199
893.941	14313
894.064	14225
894.186	14001
894.308	14062
894.43	14263
894.552	14309
894.674	14244
894.796	14035
894.918	14164
895.04	14161
895.161	14202
895.283	14237
895.405	14134
895.526	14240
895.648	14142
895.769	14240
895.891	14313
896.012	14362
896.134	14351
896.255	14309
896.376	14252
896.498	14294
896.619	14278
896.74	14259
896.861	14347
896.982	14678
897.103	14861
897.224	14552
897.345	14537
897.466	14431
897.587	14640
897.708	14670
897.828	14522
897.949	14594
898.07	14461
898.19	14537
898.311	14640
898.431	14575
898.552	14663
898.672	14724
898.792	14552
898.913	14705
899.033	14560
899.153	14454
899.273	14412
899.393	14400
899.513	14564
899.633	14480
899.753	14552
899.873	14446
899.993	14423
900.113	14507
900.232	14526
900.352	14438
900.472	14408
900.591	14351
900.711	14423
900.83	14275
900.95	14495
901.069	14507
901.189	14199
901.308	14100
901.427	14062
901.546	14069
901.665	14100
901.784	14043
901.904	13967
902.023	13826
902.141	13784
902.26	13624
902.379	13734
902.498	13559
902.617	13521
902.735	13639
902.854	13613
902.973	13495
903.091	13316
903.21	13377
903.328	13373
903.446	13339
903.565	13190
903.683	13225
903.801	13129
903.919	13122
904.038	13129
904.156	13008
904.274	13103
904.392	13015
904.51	13004
904.627	12977
904.745	13031
904.863	12973
904.981	12795
905.098	12703
905.216	12715
905.334	12741
905.451	12707
905.569	12669
905.686	12791
905.803	12662
905.921	12536
906.038	12650
906.155	12452
906.272	12426
906.389	12418
906.506	12361
906.623	12224
906.74	12277
906.857	12178
906.974	12182
907.091	12285
907.208	12346
907.324	12235
907.441	12296
907.557	12030
907.674	12038
907.79	11935
907.907	11969
908.023	12011
908.139	12007
908.256	11878
908.372	11950
908.488	11950
908.604	11771
908.72	11695
908.836	11756
908.952	11748
909.068	11767
909.184	11790
909.3	11657
909.415	11748
909.531	11805
909.647	11486
909.762	11497
909.878	11543
909.993	11505
910.108	11520
910.224	11497
910.339	11573
910.454	11463
910.57	11360
910.685	11315
910.8	11608
910.915	11585
911.03	11395
911.145	11288
911.259	11242
911.374	11159
911.489	11258
911.604	11121
911.718	11025
911.833	10999
911.947	10953
912.062	10767
912.176	11025
912.291	10995
912.405	10930
912.519	11227
912.633	11189
912.748	10995
912.862	11109
912.976	10881
913.09	10729
913.204	10885
913.318	10896
913.431	11056
913.545	10980
913.659	10957
913.772	10881
913.886	10774
914	10675
914.113	10843
914.226	10885
914.34	10759
914.453	10668
914.566	10824
914.68	10672
914.793	10626
914.906	10478
915.019	10493
915.132	10500
915.245	10493
915.358	10535
915.47	10500
915.583	10523
915.696	10516
915.809	10668
915.921	10691
916.034	10538
916.146	10466
916.259	10356
916.371	10527
916.483	10489
916.595	10398
916.708	10417
916.82	10382
916.932	10341
917.044	10424
917.156	10459
917.268	10287
917.38	10280
917.491	10306
917.603	10379
917.715	10440
917.826	10440
917.938	10363
918.049	10154
918.161	10390
918.272	10447
918.384	10447
918.495	10379
918.606	10192
918.717	10166
918.828	10261
918.939	10234
919.05	10101
919.161	10295
919.272	10063
919.383	10093
919.494	10291
919.604	10428
919.715	10139
919.826	10261
919.936	10166
920.047	10348
920.157	10215
920.267	10386
920.378	10284
920.488	10322
920.598	10447
920.708	10588
920.818	10478
920.928	10405
921.038	10558
921.148	10512
921.258	10314
921.368	10227
921.477	10063
921.587	10112
921.697	9991
921.806	10112
921.916	9998
922.025	9808
922.134	9789
922.244	9724
922.353	9793
922.462	9648
922.571	9622
922.68	9557
922.789	9469
922.898	9496
923.007	9408
923.116	9481
923.224	9492
923.333	9492
923.442	9291
923.55	9431
923.659	9408
923.767	9401
923.876	9241
923.984	9363
924.092	9275
924.201	9351
924.309	9321
924.417	9393
924.525	9253
924.633	9317
924.741	10181
924.849	9150
924.956	9249
925.064	9116
925.172	9024
925.279	9074
925.387	9161
925.494	9127
925.602	9253
925.709	9222
925.816	9100
925.924	9180
926.031	9272
926.138	9173
926.245	9195
926.352	9081
926.459	9188
926.566	9154
926.673	9138
926.779	8956
926.886	9028
926.993	8849
927.099	8804
927.206	8880
927.312	8826
927.419	8910
927.525	8842
927.631	8899
927.737	8785
927.843	8701
927.95	8705
928.056	8731
928.162	8727
928.267	8826
928.373	9382
928.479	8800
928.585	8651
928.69	8773
928.796	8762
928.901	8697
929.007	8495
929.112	8682
929.218	8636
929.323	8670
929.428	8499
929.533	8727
929.638	8503
929.743	8530
929.848	8560
929.953	8549
930.058	8434
930.163	8282
930.267	8358
930.372	8408
930.477	8259
930.581	8530
930.685	8393
930.79	8317
930.894	8324
930.998	8313
931.103	8347
931.207	8130
931.311	8039
931.415	7959
931.519	7852
931.623	7788
