Data from test_V78500241_365.txt Node
Date: Fri Mar 25 14:36:15 CST 2022
User: usil
Spectrometer: V785-0024
Trigger mode: 0
Integration Time (sec): 4.000000E-1
Scans to average: 1
Nonlinearity correction enabled: false
Boxcar width: 0
Storing dark spectrum: false
XAxis mode: Wavelengths
Number of Pixels in Spectrum: 1024
>>>>>Begin Spectral Data<<<<<
801.071	26861
801.214	26693
801.356	26450
801.499	26453
801.641	26233
801.783	26275
801.926	26290
802.068	26221
802.211	26134
802.353	26008
802.496	25879
802.638	25845
802.78	25723
802.923	25788
803.065	25742
803.208	25765
803.35	25906
803.492	25875
803.635	25978
803.777	25776
803.919	25830
804.061	26206
804.204	25951
804.346	25719
804.488	25586
804.63	25898
804.773	25578
804.915	25666
805.057	25947
805.199	25689
805.341	25913
805.483	25791
805.626	26054
805.768	25837
805.91	25814
806.052	25708
806.194	25765
806.336	25989
806.478	25811
806.62	25765
806.762	25791
806.904	25997
807.046	26229
807.188	26024
807.33	26252
807.472	26191
807.614	26043
807.756	26248
807.898	25822
808.04	25951
808.182	25982
808.324	25932
808.465	25894
808.607	26199
808.749	26298
808.891	26206
809.033	26503
809.174	26362
809.316	26317
809.458	26301
809.6	26248
809.741	26366
809.883	26320
810.025	26541
810.166	26579
810.308	26552
810.45	26480
810.591	26374
810.733	26275
810.875	26225
811.016	26027
811.158	26050
811.299	26370
811.441	26267
811.582	26263
811.724	25906
811.865	26134
812.007	26046
812.148	26256
812.29	26069
812.431	26282
812.573	26267
812.714	26522
812.855	26313
812.997	26670
813.138	26971
813.279	26674
813.421	26625
813.562	26640
813.703	26556
813.845	26320
813.986	26081
814.127	25826
814.268	25791
814.41	25780
814.551	25856
814.692	25658
814.833	25575
814.974	25639
815.115	25605
815.256	25495
815.397	25537
815.539	25514
815.68	25491
815.821	25415
815.962	25491
816.103	25365
816.244	25346
816.385	25221
816.526	25137
816.666	24985
816.807	24901
816.948	24924
817.089	25023
817.23	24806
817.371	24757
817.512	24726
817.653	24757
817.793	24757
817.934	24616
818.075	24802
818.216	24734
818.356	24749
818.497	24707
818.638	24486
818.778	24696
818.919	24486
819.06	24604
819.2	24631
819.341	24684
819.481	24696
819.622	24825
819.762	24992
819.903	25023
820.043	24787
820.184	24913
820.324	24817
820.465	24977
820.605	24932
820.746	24779
820.886	24635
821.026	24814
821.167	24597
821.307	24795
821.447	24589
821.588	24589
821.728	24528
821.868	24403
822.008	24270
822.149	24201
822.289	24049
822.429	23923
822.569	23855
822.709	23813
822.849	23581
822.99	23577
823.13	23455
823.27	23630
823.41	23398
823.55	23296
823.69	23455
823.83	23364
823.97	23345
824.11	23212
824.25	23132
824.389	23197
824.529	23212
824.669	23083
824.809	23284
824.949	23200
825.089	23216
825.228	23041
825.368	22991
825.508	22972
825.648	23022
825.787	23067
825.927	23075
826.067	22980
826.206	23006
826.346	23033
826.485	22961
826.625	22805
826.765	22991
826.904	22866
827.044	22694
827.183	22683
827.323	22679
827.462	22729
827.601	22531
827.741	22641
827.88	22710
828.02	22554
828.159	22538
828.298	22531
828.437	22679
828.577	22573
828.716	22748
828.855	22542
828.994	22421
829.134	22257
829.273	22322
829.412	22265
829.551	22200
829.69	22375
829.829	22310
829.968	22459
830.107	22432
830.246	22360
830.385	22261
830.524	22234
830.663	22086
830.802	21960
830.941	21953
831.08	21869
831.219	21972
831.357	21968
831.496	22059
831.635	21873
831.774	21804
831.913	21869
832.051	21739
832.19	21675
832.329	21781
832.467	21549
832.606	21462
832.744	21523
832.883	21564
833.022	21485
833.16	21583
833.299	21599
833.437	21603
833.576	21496
833.714	21610
833.852	21629
833.991	21614
834.129	21500
834.267	21599
834.406	21568
834.544	21496
834.682	21545
834.821	21507
834.959	21724
835.097	21545
835.235	21595
835.373	21515
835.511	21591
835.65	21329
835.788	21416
835.926	21294
836.064	21222
836.202	21154
836.34	21348
836.478	21428
836.615	21355
836.753	21355
836.891	21450
837.029	21291
837.167	21443
837.305	21359
837.443	21218
837.58	21321
837.718	21188
837.856	21287
837.993	21245
838.131	21252
838.269	21062
838.406	21176
838.544	21169
838.681	20819
838.819	20872
838.956	20674
839.094	20594
839.231	20667
839.369	20849
839.506	21066
839.643	21001
839.781	20655
839.918	20621
840.055	20697
840.193	20575
840.33	20640
840.467	20552
840.604	20720
840.742	20899
840.879	20396
841.016	20575
841.153	20423
841.29	20727
841.427	20598
841.564	20594
841.701	20530
841.838	20613
841.975	20552
842.112	20587
842.249	20366
842.385	20339
842.522	20564
842.659	20427
842.796	20339
842.933	20286
843.069	20191
843.206	20214
843.343	20434
843.479	20252
843.616	20385
843.752	20168
843.889	20126
844.025	20240
844.162	20107
844.298	20149
844.435	20130
844.571	19951
844.708	20001
844.844	20202
844.98	20290
845.117	20195
845.253	19959
845.389	19871
845.525	19947
845.661	19963
845.798	19837
845.934	19890
846.07	19917
846.206	19928
846.342	19997
846.478	19814
846.614	19727
846.75	19537
846.886	19430
847.022	19681
847.158	19533
847.294	19533
847.429	19586
847.565	19502
847.701	19753
847.837	19327
847.972	19175
848.108	19301
848.244	19350
848.379	19194
848.515	19023
848.65	19027
848.786	19190
848.921	19023
849.057	19118
849.192	19152
849.328	19141
849.463	19209
849.598	18947
849.734	19141
849.869	19008
850.004	18833
850.14	18939
850.275	18810
850.41	18760
850.545	18734
850.68	18745
850.815	18810
850.95	18791
851.085	19099
851.22	18947
851.355	18837
851.49	18787
851.625	18642
851.76	18776
851.895	18802
852.03	18642
852.165	18749
852.299	18806
852.434	18829
852.569	18829
852.703	18749
852.838	18894
852.973	19015
853.107	19004
853.242	18684
853.376	18661
853.511	18429
853.645	18715
853.78	18749
853.914	18684
854.048	18578
854.183	18730
854.317	18715
854.451	18684
854.585	18593
854.72	18692
854.854	18661
854.988	18635
855.122	18540
855.256	18521
855.39	18635
855.524	18745
855.658	18692
855.792	18601
855.926	18669
856.06	18654
856.194	18688
856.327	18688
856.461	18631
856.595	18578
856.729	18692
856.862	18787
856.996	18563
857.13	18753
857.263	18677
857.397	18783
857.53	18635
857.664	18757
857.797	18707
857.931	18764
858.064	18719
858.197	18806
858.331	18589
858.464	18517
858.597	18452
858.731	18574
858.864	18578
858.997	18551
859.13	18506
859.263	18582
859.396	18669
859.529	18589
859.662	18490
859.795	18570
859.928	18593
860.061	18654
860.194	18776
860.327	18627
860.46	18658
860.592	18738
860.725	18681
860.858	18707
860.99	18517
861.123	18448
861.256	18407
861.388	18555
861.521	19293
861.653	18407
861.786	18369
861.918	18528
862.05	18566
862.183	18597
862.315	18642
862.447	18635
862.58	18654
862.712	18353
862.844	18372
862.976	18361
863.108	18350
863.24	18829
863.372	18232
863.504	18300
863.636	18289
863.768	18304
863.9	18357
864.032	18243
864.164	18254
864.296	18361
864.428	18308
864.559	18300
864.691	18346
864.823	18338
864.954	18251
865.086	18247
865.217	18338
865.349	18087
865.48	18273
865.612	18152
865.743	18311
865.875	18239
866.006	18228
866.137	18182
866.269	18296
866.4	18365
866.531	18091
866.662	18091
866.793	18136
866.924	18121
867.055	18205
867.186	18171
867.317	18209
867.448	18034
867.579	18102
867.71	18064
867.841	18060
867.972	18178
868.103	18205
868.233	18159
868.364	18220
868.495	18296
868.625	18319
868.756	18403
868.886	18251
869.017	18380
869.147	18506
869.278	18429
869.408	18464
869.539	18372
869.669	18467
869.799	18460
869.929	18574
870.06	18395
870.19	18722
870.32	18661
870.45	18684
870.58	18783
870.71	18844
870.84	18901
870.97	18757
871.1	18840
871.23	18962
871.36	19000
871.489	18856
871.619	18985
871.749	18977
871.879	18954
872.008	19133
872.138	18947
872.267	19027
872.397	18829
872.526	18848
872.656	18791
872.785	18753
872.915	19008
873.044	19072
873.173	19107
873.303	18867
873.432	19008
873.561	19080
873.69	19061
873.819	19015
873.948	19160
874.077	18966
874.206	19042
874.335	18947
874.464	19133
874.593	19244
874.722	19266
874.851	19388
874.979	19316
875.108	19369
875.237	19274
875.365	19114
875.494	19209
875.623	19316
875.751	19274
875.88	19293
876.008	19422
876.136	19525
876.265	19658
876.393	19719
876.521	19753
876.65	19852
876.778	19715
876.906	19677
877.034	19674
877.162	19597
877.29	19635
877.418	19609
877.546	19658
877.674	19689
877.802	19731
877.93	19677
878.058	19647
878.185	19635
878.313	19708
878.441	19632
878.568	19590
878.696	19548
878.824	19681
878.951	19700
879.079	19814
879.206	19887
879.333	19928
879.461	19712
879.588	19784
879.715	19947
879.842	19925
879.97	19841
880.097	19575
880.224	19529
880.351	19548
880.478	19537
880.605	19495
880.732	19563
880.859	19681
880.986	19441
881.112	19533
881.239	19381
881.366	19297
881.493	19171
881.619	19080
881.746	19202
881.872	19164
881.999	19107
882.125	18973
882.252	19183
882.378	19232
882.505	19221
882.631	19042
882.757	18829
882.883	19019
883.01	18856
883.136	18814
883.262	18768
883.388	18722
883.514	19004
883.64	18966
883.766	18787
883.892	18741
884.018	18783
884.143	18837
884.269	18981
884.395	18669
884.52	18544
884.646	18570
884.772	18513
884.897	18456
885.023	18646
885.148	18681
885.274	18597
885.399	18707
885.524	18441
885.65	18551
885.775	18627
885.9	18642
886.025	18757
886.15	18642
886.275	18506
886.4	18509
886.525	18483
886.65	18426
886.775	18388
886.9	18601
887.025	18871
887.149	18475
887.274	18429
887.399	18277
887.523	18311
887.648	18251
887.773	18216
887.897	18429
888.021	18418
888.146	18213
888.27	18388
888.395	18464
888.519	18414
888.643	18315
888.767	18372
888.891	18178
889.015	18174
889.139	18155
889.263	18003
889.387	18083
889.511	18308
889.635	18072
889.759	17980
889.883	18121
890.006	18194
890.13	18102
890.254	18022
890.377	18045
890.501	17866
890.624	17832
890.748	18019
890.871	17824
890.995	17687
891.118	17657
891.241	17760
891.364	17824
891.488	17805
891.611	17863
891.734	17638
891.857	17752
891.98	17748
892.103	17817
892.226	17786
892.349	17630
892.471	17577
892.594	17634
892.717	17684
892.839	17684
892.962	17805
893.085	17832
893.207	17680
893.33	17592
893.452	17646
893.575	17752
893.697	17649
893.819	17874
893.941	17836
894.064	17813
894.186	17490
894.308	17646
894.43	17893
894.552	17897
894.674	17752
894.796	17714
894.918	17672
895.04	17653
895.161	17794
895.283	17756
895.405	17695
895.526	17695
895.648	17668
895.769	17828
895.891	17657
896.012	17908
896.134	17775
896.255	17802
896.376	17882
896.498	17817
896.619	17832
896.74	17805
896.861	17889
896.982	18155
897.103	18380
897.224	18117
897.345	18060
897.466	17965
897.587	17897
897.708	18167
897.828	18049
897.949	17973
898.07	18087
898.19	17847
898.311	18110
898.431	17988
898.552	17980
898.672	18114
898.792	18068
898.913	18030
899.033	17901
899.153	17874
899.273	17783
899.393	17710
899.513	17821
899.633	17718
899.753	17771
899.873	17752
899.993	17764
900.113	17729
900.232	17878
900.352	17619
900.472	17608
900.591	17596
900.711	17642
900.83	17596
900.95	17798
901.069	17809
901.189	17535
901.308	17356
901.427	17356
901.546	17265
901.665	17280
901.784	17254
901.904	17124
902.023	17067
902.141	16869
902.26	16839
902.379	16820
902.498	16713
902.617	16672
902.735	16755
902.854	16675
902.973	16713
903.091	16474
903.21	16462
903.328	16352
903.446	16413
903.565	16215
903.683	16280
903.801	16150
903.919	16272
904.038	16238
904.156	16021
904.274	16147
904.392	16116
904.51	16006
904.627	16139
904.745	16120
904.863	15979
904.981	15842
905.098	15701
905.216	15736
905.334	15682
905.451	15728
905.569	15675
905.686	15751
905.803	15679
905.921	15644
906.038	15622
906.155	15511
906.272	15370
906.389	15450
906.506	15199
906.623	15302
906.74	15260
906.857	15142
906.974	15207
907.091	15310
907.208	15329
907.324	15249
907.441	15112
907.557	14921
907.674	15001
907.79	14979
907.907	14918
908.023	15047
908.139	15013
908.256	14849
908.372	14815
908.488	14754
908.604	14648
908.72	14613
908.836	14701
908.952	14644
909.068	14651
909.184	14739
909.3	14682
909.415	14602
909.531	14606
909.647	14423
909.762	14480
909.878	14317
909.993	14301
910.108	14412
910.224	14385
910.339	14332
910.454	14305
910.57	14214
910.685	14161
910.8	14511
910.915	14366
911.03	14221
911.145	14065
911.259	13936
911.374	14043
911.489	13902
911.604	13879
911.718	13772
911.833	13769
911.947	13632
912.062	13594
912.176	13719
912.291	13784
912.405	13818
912.519	13913
912.633	13963
912.748	13826
912.862	13685
912.976	13681
913.09	13506
913.204	13533
913.318	13575
913.431	13628
913.545	13674
913.659	13708
913.772	13571
913.886	13441
914	13422
914.113	13533
914.226	13525
914.34	13537
914.453	13247
914.566	13533
914.68	13312
914.793	13381
914.906	13152
915.019	13080
915.132	13061
915.245	13190
915.358	13232
915.47	13141
915.583	13103
915.696	13107
915.809	13244
915.921	13247
916.034	13034
916.146	13008
916.259	13023
916.371	13080
916.483	13099
916.595	13004
916.708	13008
916.82	13057
916.932	13004
917.044	12935
917.156	12909
917.268	12837
917.38	12783
917.491	12772
917.603	12852
917.715	12951
917.826	12958
917.938	12764
918.049	12684
918.161	12837
918.272	12935
918.384	12909
918.495	12787
918.606	12673
918.717	12612
918.828	12639
918.939	12665
919.05	12490
919.161	12642
919.272	12437
919.383	12490
919.494	12547
919.604	12814
919.715	12623
919.826	12486
919.936	12631
920.047	12700
920.157	12597
920.267	12715
920.378	12601
920.488	12589
920.598	12779
920.708	12840
920.818	12741
920.928	12753
921.038	12939
921.148	12962
921.258	12559
921.368	12380
921.477	12388
921.587	12376
921.697	12190
921.806	12369
921.916	12254
922.025	12121
922.134	12098
922.244	12003
922.353	12095
922.462	11851
922.571	11794
922.68	11714
922.789	11623
922.898	11726
923.007	11649
923.116	11817
923.224	11589
923.333	11604
923.442	11474
923.55	11516
923.659	11547
923.767	11520
923.876	11467
923.984	11585
924.092	11368
924.201	11524
924.309	11524
924.417	11387
924.525	11330
924.633	11490
924.741	12144
924.849	11261
924.956	11337
925.064	11220
925.172	11140
925.279	11178
925.387	11185
925.494	11189
925.602	11284
925.709	11315
925.816	11052
925.924	11254
926.031	11220
926.138	11155
926.245	11166
926.352	11064
926.459	11242
926.566	11303
926.673	11117
926.779	11010
926.886	10938
926.993	10881
927.099	10858
927.206	10790
927.312	10839
927.419	10908
927.525	10778
927.631	10953
927.737	10721
927.843	10675
927.95	10531
928.056	10626
928.162	10733
928.267	10729
928.373	11391
928.479	10736
928.585	10497
928.69	10710
928.796	10630
928.901	10546
929.007	10428
929.112	10538
929.218	10554
929.323	10466
929.428	10409
929.533	10546
929.638	10344
929.743	10390
929.848	10459
929.953	10363
930.058	10276
930.163	10177
930.267	10204
930.372	10272
930.477	10192
930.581	10337
930.685	10219
930.79	10120
930.894	10032
930.998	9983
931.103	10173
931.207	9793
931.311	9831
931.415	9709
931.519	9473
931.623	9549
