Data from test_V78500241_3041.txt Node
Date: Fri Mar 25 14:54:53 CST 2022
User: usil
Spectrometer: V785-0024
Trigger mode: 0
Integration Time (sec): 4.000000E-1
Scans to average: 1
Nonlinearity correction enabled: false
Boxcar width: 0
Storing dark spectrum: false
XAxis mode: Wavelengths
Number of Pixels in Spectrum: 1024
>>>>>Begin Spectral Data<<<<<
801.071	22059
801.214	21899
801.356	21797
801.499	21622
801.641	21477
801.783	21393
801.926	21435
802.068	21397
802.211	21192
802.353	21233
802.496	20967
802.638	21055
802.78	20902
802.923	20864
803.065	20674
803.208	20636
803.35	20834
803.492	20739
803.635	20773
803.777	20686
803.919	20845
804.061	21131
804.204	20826
804.346	20689
804.488	20682
804.63	20762
804.773	20602
804.915	20579
805.057	20746
805.199	20640
805.341	20716
805.483	20720
805.626	20823
805.768	20625
805.91	20697
806.052	20758
806.194	20621
806.336	20880
806.478	20663
806.62	20746
806.762	20781
806.904	20815
807.046	21108
807.188	21013
807.33	21074
807.472	21176
807.614	20952
807.756	21051
807.898	20758
808.04	20792
808.182	20849
808.324	20804
808.465	20785
808.607	21047
808.749	21093
808.891	21188
809.033	21199
809.174	21161
809.316	20994
809.458	21070
809.6	21020
809.741	21138
809.883	21218
810.025	21192
810.166	21173
810.308	21405
810.45	21150
810.591	21192
810.733	20902
810.875	20910
811.016	20777
811.158	20724
811.299	20906
811.441	20975
811.582	21062
811.724	20796
811.865	20788
812.007	20823
812.148	20834
812.29	20880
812.431	21074
812.573	21180
812.714	21207
812.855	21317
812.997	21317
813.138	21523
813.279	21530
813.421	21500
813.562	21230
813.703	20975
813.845	21043
813.986	20762
814.127	20629
814.268	20476
814.41	20400
814.551	20415
814.692	20484
814.833	20298
814.974	20507
815.115	20358
815.256	20339
815.397	20225
815.539	20256
815.68	20058
815.821	20039
815.962	20157
816.103	20111
816.244	20039
816.385	19936
816.526	19803
816.666	19704
816.807	19525
816.948	19601
817.089	19776
817.23	19544
817.371	19559
817.512	19453
817.653	19415
817.793	19339
817.934	19506
818.075	19491
818.216	19510
818.356	19468
818.497	19324
818.638	19190
818.778	19171
818.919	19236
819.06	19259
819.2	19381
819.341	19331
819.481	19556
819.622	19460
819.762	19845
819.903	19738
820.043	19537
820.184	19601
820.324	19411
820.465	19651
820.605	19438
820.746	19449
820.886	19339
821.026	19483
821.167	19407
821.307	19556
821.447	19434
821.588	19381
821.728	19183
821.868	19069
822.008	18863
822.149	18943
822.289	18768
822.429	18563
822.569	18513
822.709	18589
822.849	18353
822.99	18426
823.13	18258
823.27	18239
823.41	18110
823.55	18182
823.69	18171
823.83	18133
823.97	18243
824.11	17977
824.25	17882
824.389	17939
824.529	18034
824.669	17942
824.809	18015
824.949	17946
825.089	17973
825.228	17920
825.368	17786
825.508	17767
825.648	17748
825.787	17710
825.927	17764
826.067	17665
826.206	17722
826.346	17665
826.485	17703
826.625	17783
826.765	17866
826.904	17821
827.044	17566
827.183	17436
827.323	17406
827.462	17474
827.601	17463
827.741	17429
827.88	17414
828.02	17341
828.159	17436
828.298	17360
828.437	17482
828.577	17356
828.716	17467
828.855	17376
828.994	17170
829.134	17254
829.273	17212
829.412	17185
829.551	17170
829.69	17200
829.829	17318
829.968	17372
830.107	17166
830.246	17200
830.385	17147
830.524	17052
830.663	17056
830.802	17003
830.941	16858
831.08	16679
831.219	16930
831.357	16839
831.496	17014
831.635	16847
831.774	16710
831.913	16729
832.051	16611
832.19	16649
832.329	16615
832.467	16485
832.606	16481
832.744	16459
832.883	16485
833.022	16405
833.16	16500
833.299	16508
833.437	16531
833.576	16538
833.714	16497
833.852	16508
833.991	16565
834.129	16542
834.267	16672
834.406	16500
834.544	16599
834.682	16694
834.821	16535
834.959	16618
835.097	16504
835.235	16683
835.373	16573
835.511	16558
835.65	16367
835.788	16478
835.926	16238
836.064	16375
836.202	16284
836.34	16527
836.478	16504
836.615	16413
836.753	16489
836.891	16599
837.029	16470
837.167	16447
837.305	16299
837.443	16295
837.58	16261
837.718	16432
837.856	16363
837.993	16318
838.131	16432
838.269	16261
838.406	16265
838.544	16086
838.681	15949
838.819	16025
838.956	15873
839.094	15880
839.231	15915
839.369	15987
839.506	16329
839.643	16029
839.781	15979
839.918	15816
840.055	15865
840.193	15876
840.33	15679
840.467	15876
840.604	15770
840.742	16086
840.879	15682
841.016	15675
841.153	15827
841.29	15972
841.427	15869
841.564	15953
841.701	15892
841.838	15823
841.975	15770
842.112	15732
842.249	15549
842.385	15599
842.522	15880
842.659	15686
842.796	15637
842.933	15496
843.069	15545
843.206	15587
843.343	15656
843.479	15595
843.616	15614
843.752	15431
843.889	15405
844.025	15622
844.162	15397
844.298	15568
844.435	15420
844.571	15298
844.708	15405
844.844	15660
844.98	15553
845.117	15492
845.253	15336
845.389	15226
845.525	15382
845.661	15275
845.798	15188
845.934	15188
846.07	15154
846.206	15283
846.342	15325
846.478	15256
846.614	14914
846.75	14941
846.886	14918
847.022	15058
847.158	15017
847.294	14963
847.429	14982
847.565	15024
847.701	15203
847.837	14724
847.972	14613
848.108	14849
848.244	14777
848.379	14537
848.515	14590
848.65	14545
848.786	14621
848.921	14560
849.057	14621
849.192	14613
849.328	14590
849.463	14590
849.598	14522
849.734	14461
849.869	14488
850.004	14427
850.14	14423
850.275	14366
850.41	14278
850.545	14267
850.68	14263
850.815	14298
850.95	14358
851.085	14473
851.22	14438
851.355	14298
851.49	14199
851.625	14282
851.76	14225
851.895	14278
852.03	14225
852.165	14248
852.299	14263
852.434	14457
852.569	14358
852.703	14332
852.838	14393
852.973	14492
853.107	14423
853.242	14343
853.376	14294
853.511	14176
853.645	14225
853.78	14324
853.914	14278
854.048	14176
854.183	14229
854.317	14195
854.451	14324
854.585	14237
854.72	14278
854.854	14358
854.988	14240
855.122	14176
855.256	14069
855.39	14149
855.524	14328
855.658	14282
855.792	14206
855.926	14305
856.06	14248
856.194	14290
856.327	14252
856.461	14210
856.595	14084
856.729	14126
856.862	14275
856.996	14187
857.13	14305
857.263	14195
857.397	14191
857.53	14240
857.664	14309
857.797	14362
857.931	14339
858.064	14282
858.197	14248
858.331	14161
858.464	14191
858.597	14119
858.731	14210
858.864	14103
858.997	14206
859.13	14278
859.263	14263
859.396	14282
859.529	14248
859.662	14119
859.795	14096
859.928	14328
860.061	14404
860.194	14450
860.327	14233
860.46	14103
860.592	14298
860.725	14336
860.858	14324
860.99	14244
861.123	14142
861.256	14107
861.388	14206
861.521	14906
861.653	14050
861.786	14058
861.918	14096
862.05	14153
862.183	14157
862.315	14256
862.447	14263
862.58	14183
862.712	14001
862.844	13928
862.976	14077
863.108	14016
863.24	14488
863.372	13967
863.504	13989
863.636	14005
863.768	13997
863.9	14043
864.032	13932
864.164	13959
864.296	14073
864.428	14149
864.559	14142
864.691	14008
864.823	14069
864.954	14088
865.086	14001
865.217	13955
865.349	13875
865.48	13925
865.612	14062
865.743	14077
865.875	13909
866.006	13909
866.137	13928
866.269	13967
866.4	13989
866.531	13940
866.662	13917
866.793	13959
866.924	13852
867.055	13970
867.186	13868
867.317	13917
867.448	13868
867.579	13875
867.71	13894
867.841	13822
867.972	14001
868.103	14001
868.233	13982
868.364	13944
868.495	13963
868.625	14202
868.756	14233
868.886	14107
869.017	14206
869.147	14404
869.278	14366
869.408	14298
869.539	14183
869.669	14199
869.799	14332
869.929	14267
870.06	14336
870.19	14594
870.32	14457
870.45	14549
870.58	14594
870.71	14777
870.84	14659
870.97	14598
871.1	14503
871.23	14769
871.36	14758
871.489	14765
871.619	14887
871.749	14842
871.879	14948
872.008	14944
872.138	14830
872.267	14819
872.397	14682
872.526	14617
872.656	14689
872.785	14762
872.915	14914
873.044	14952
873.173	14857
873.303	14868
873.432	14868
873.561	14937
873.69	14876
873.819	14876
873.948	14944
874.077	14914
874.206	14826
874.335	14906
874.464	14971
874.593	15146
874.722	15077
874.851	15226
874.979	15207
875.108	15233
875.237	15157
875.365	15081
875.494	15230
875.623	15294
875.751	15176
875.88	15306
876.008	15344
876.136	15306
876.265	15667
876.393	15797
876.521	15686
876.65	15766
876.778	15641
876.906	15564
877.034	15568
877.162	15553
877.29	15500
877.418	15614
877.546	15656
877.674	15633
877.802	15568
877.93	15663
878.058	15599
878.185	15549
878.313	15515
878.441	15610
878.568	15507
878.696	15526
878.824	15526
878.951	15694
879.079	15869
879.206	15953
879.333	15724
879.461	15587
879.588	15694
879.715	15800
879.842	15915
879.97	15713
880.097	15420
880.224	15458
880.351	15466
880.478	15477
880.605	15412
880.732	15424
880.859	15606
880.986	15374
881.112	15485
881.239	15367
881.366	15294
881.493	15161
881.619	15058
881.746	15089
881.872	15028
881.999	15081
882.125	15104
882.252	15176
882.378	15123
882.505	15283
882.631	14941
882.757	14994
882.883	14941
883.01	14819
883.136	14842
883.262	14800
883.388	14708
883.514	14998
883.64	14960
883.766	14845
883.892	14651
884.018	14792
884.143	14956
884.269	14956
884.395	14648
884.52	14587
884.646	14674
884.772	14533
884.897	14545
885.023	14617
885.148	14670
885.274	14773
885.399	14777
885.524	14644
885.65	14613
885.775	14636
885.9	14678
886.025	14765
886.15	14739
886.275	14556
886.4	14446
886.525	14583
886.65	14613
886.775	14522
886.9	14693
887.025	14883
887.149	14598
887.274	14556
887.399	14362
887.523	14404
887.648	14457
887.773	14396
887.897	14499
888.021	14514
888.146	14415
888.27	14549
888.395	14644
888.519	14552
888.643	14533
888.767	14549
888.891	14381
889.015	14221
889.139	14355
889.263	14237
889.387	14389
889.511	14492
889.635	14465
889.759	14275
889.883	14377
890.006	14343
890.13	14370
890.254	14320
890.377	14263
890.501	14096
890.624	14119
890.748	14149
890.871	13997
890.995	14035
891.118	13921
891.241	14039
891.364	14024
891.488	14062
891.611	14005
891.734	13997
891.857	14126
891.98	14043
892.103	14096
892.226	14024
892.349	13974
892.471	13856
892.594	14024
892.717	14008
892.839	13982
892.962	14031
893.085	14145
893.207	13868
893.33	14016
893.452	13890
893.575	14130
893.697	14027
893.819	14164
893.941	14168
894.064	14145
894.186	14046
894.308	14062
894.43	14119
894.552	14210
894.674	14142
894.796	14005
894.918	13951
895.04	14092
895.161	14221
895.283	14100
895.405	14001
895.526	14149
895.648	14180
895.769	14119
895.891	14123
896.012	14298
896.134	14130
896.255	14237
896.376	14195
896.498	14187
896.619	14161
896.74	14195
896.861	14161
896.982	14598
897.103	14716
897.224	14492
897.345	14454
897.466	14454
897.587	14454
897.708	14579
897.828	14708
897.949	14347
898.07	14332
898.19	14579
898.311	14545
898.431	14499
898.552	14537
898.672	14648
898.792	14606
898.913	14651
899.033	14495
899.153	14396
899.273	14240
899.393	14366
899.513	14419
899.633	14434
899.753	14454
899.873	14404
899.993	14473
900.113	14377
900.232	14427
900.352	14400
900.472	14343
900.591	14221
900.711	14244
900.83	14180
900.95	14374
901.069	14358
901.189	14237
901.308	14016
901.427	13856
901.546	13879
901.665	13989
901.784	14008
901.904	13887
902.023	13811
902.141	13567
902.26	13480
902.379	13590
902.498	13491
902.617	13468
902.735	13548
902.854	13502
902.973	13567
903.091	13141
903.21	13198
903.328	13282
903.446	13156
903.565	13114
903.683	13160
903.801	12928
903.919	13129
904.038	13076
904.156	12871
904.274	13042
904.392	12901
904.51	12943
904.627	12928
904.745	12977
904.863	13042
904.981	12662
905.098	12608
905.216	12639
905.334	12692
905.451	12681
905.569	12608
905.686	12707
905.803	12650
905.921	12502
906.038	12555
906.155	12498
906.272	12330
906.389	12483
906.506	12224
906.623	12220
906.74	12216
906.857	12129
906.974	12098
907.091	12296
907.208	12391
907.324	12251
907.441	12159
907.557	11980
907.674	11980
907.79	11840
907.907	11961
908.023	12011
908.139	11942
908.256	11931
908.372	11893
908.488	11832
908.604	11722
908.72	11718
908.836	11741
908.952	11657
909.068	11847
909.184	11809
909.3	11794
909.415	11805
909.531	11802
909.647	11471
909.762	11360
909.878	11436
909.993	11535
910.108	11539
910.224	11444
910.339	11463
910.454	11467
910.57	11345
910.685	11246
910.8	11535
910.915	11482
911.03	11353
911.145	11246
911.259	11132
911.374	11239
911.489	11208
911.604	11048
911.718	11010
911.833	10957
911.947	10869
912.062	10809
912.176	10949
912.291	11010
912.405	10869
912.519	11151
912.633	11162
912.748	11033
912.862	10900
912.976	10908
913.09	10774
913.204	10873
913.318	10778
913.431	10984
913.545	10968
913.659	10919
913.772	10839
913.886	10725
914	10710
914.113	10778
914.226	10782
914.34	10824
914.453	10622
914.566	10714
914.68	10653
914.793	10649
914.906	10497
915.019	10451
915.132	10337
915.245	10481
915.358	10523
915.47	10512
915.583	10527
915.696	10577
915.809	10596
915.921	10615
916.034	10436
916.146	10489
916.259	10375
916.371	10634
916.483	10466
916.595	10367
916.708	10333
916.82	10440
916.932	10390
917.044	10329
917.156	10341
917.268	10249
917.38	10356
917.491	10196
917.603	10310
917.715	10398
917.826	10455
917.938	10306
918.049	10135
918.161	10268
918.272	10402
918.384	10390
918.495	10299
918.606	10207
918.717	10067
918.828	10185
918.939	10211
919.05	10109
919.161	10128
919.272	9964
919.383	10036
919.494	10246
919.604	10466
919.715	10230
919.826	10135
919.936	10166
920.047	10272
920.157	10242
920.267	10363
920.378	10291
920.488	10147
920.598	10462
920.708	10550
920.818	10405
920.928	10417
921.038	10599
921.148	10459
921.258	10234
921.368	10128
921.477	10124
921.587	9968
921.697	9941
921.806	10017
921.916	9960
922.025	9778
922.134	9736
922.244	9770
922.353	9778
922.462	9515
922.571	9644
922.68	9408
922.789	9412
922.898	9488
923.007	9469
923.116	9515
923.224	9458
923.333	9500
923.442	9325
923.55	9329
923.659	9321
923.767	9332
923.876	9260
923.984	9439
924.092	9298
924.201	9313
924.309	9291
924.417	9393
924.525	9192
924.633	9275
924.741	10177
924.849	9089
924.956	9241
925.064	9070
925.172	9135
925.279	8982
925.387	9005
925.494	9070
925.602	9230
925.709	9230
925.816	8979
925.924	9070
926.031	9211
926.138	9020
926.245	9245
926.352	9047
926.459	9180
926.566	9222
926.673	9058
926.779	9001
926.886	8998
926.993	8937
927.099	8849
927.206	8792
927.312	8769
927.419	8914
927.525	8838
927.631	8902
927.737	8712
927.843	8705
927.95	8564
928.056	8735
928.162	8682
928.267	8800
928.373	9336
928.479	8883
928.585	8644
928.69	8807
928.796	8701
928.901	8644
929.007	8522
929.112	8636
929.218	8640
929.323	8537
929.428	8579
929.533	8552
929.638	8484
929.743	8495
929.848	8632
929.953	8492
930.058	8511
930.163	8298
930.267	8305
930.372	8415
930.477	8286
930.581	8545
930.685	8358
930.79	8229
930.894	8229
930.998	8282
931.103	8377
931.207	8084
931.311	8008
931.415	7951
931.519	7784
931.623	7674
