Data from test_V78500241_2282.txt Node
Date: Fri Mar 25 14:49:36 CST 2022
User: usil
Spectrometer: V785-0024
Trigger mode: 0
Integration Time (sec): 4.000000E-1
Scans to average: 1
Nonlinearity correction enabled: false
Boxcar width: 0
Storing dark spectrum: false
XAxis mode: Wavelengths
Number of Pixels in Spectrum: 1024
>>>>>Begin Spectral Data<<<<<
801.071	22120
801.214	22120
801.356	21819
801.499	21663
801.641	21572
801.783	21507
801.926	21595
802.068	21408
802.211	21488
802.353	21203
802.496	21165
802.638	21096
802.78	21058
802.923	20944
803.065	20895
803.208	20880
803.35	20929
803.492	21024
803.635	20963
803.777	20967
803.919	21013
804.061	21268
804.204	20914
804.346	20864
804.488	20750
804.63	20746
804.773	20777
804.915	20838
805.057	20960
805.199	20838
805.341	20921
805.483	20864
805.626	20880
805.768	20788
805.91	20937
806.052	20785
806.194	20712
806.336	20982
806.478	20788
806.62	20758
806.762	20868
806.904	20956
807.046	21313
807.188	21184
807.33	21161
807.472	21142
807.614	21077
807.756	21096
807.898	20876
808.04	20868
808.182	20849
808.324	20796
808.465	20975
808.607	21104
808.749	21230
808.891	21298
809.033	21207
809.174	21302
809.316	21195
809.458	21116
809.6	21245
809.741	21233
809.883	21321
810.025	21329
810.166	21291
810.308	21374
810.45	21336
810.591	21260
810.733	21081
810.875	21032
811.016	20933
811.158	20914
811.299	21009
811.441	20990
811.582	21203
811.724	21047
811.865	20861
812.007	21009
812.148	20982
812.29	20982
812.431	21093
812.573	21218
812.714	21317
812.855	21492
812.997	21568
813.138	21770
813.279	21534
813.421	21466
813.562	21466
813.703	21173
813.845	21154
813.986	20868
814.127	20659
814.268	20533
814.41	20606
814.551	20495
814.692	20476
814.833	20431
814.974	20381
815.115	20499
815.256	20404
815.397	20305
815.539	20324
815.68	20210
815.821	20020
815.962	20294
816.103	20164
816.244	20016
816.385	19940
816.526	19909
816.666	19715
816.807	19715
816.948	19852
817.089	19742
817.23	19719
817.371	19552
817.512	19506
817.653	19674
817.793	19643
817.934	19556
818.075	19670
818.216	19704
818.356	19658
818.497	19438
818.638	19213
818.778	19304
818.919	19392
819.06	19365
819.2	19377
819.341	19552
819.481	19518
819.622	19700
819.762	19856
819.903	19757
820.043	19746
820.184	19525
820.324	19616
820.465	19693
820.605	19597
820.746	19548
820.886	19529
821.026	19586
821.167	19559
821.307	19544
821.447	19586
821.588	19346
821.728	19320
821.868	19129
822.008	18951
822.149	18993
822.289	19012
822.429	18852
822.569	18703
822.709	18779
822.849	18479
822.99	18627
823.13	18513
823.27	18448
823.41	18292
823.55	18304
823.69	18247
823.83	18319
823.97	18213
824.11	18045
824.25	18026
824.389	18121
824.529	18136
824.669	18011
824.809	18220
824.949	18110
825.089	18015
825.228	18079
825.368	17802
825.508	17912
825.648	17897
825.787	17885
825.927	17878
826.067	17832
826.206	17794
826.346	17764
826.485	18011
826.625	17832
826.765	17916
826.904	17794
827.044	17558
827.183	17604
827.323	17615
827.462	17630
827.601	17520
827.741	17581
827.88	17516
828.02	17398
828.159	17509
828.298	17486
828.437	17707
828.577	17345
828.716	17638
828.855	17520
828.994	17235
829.134	17136
829.273	17341
829.412	17220
829.551	17124
829.69	17261
829.829	17341
829.968	17330
830.107	17284
830.246	17200
830.385	17220
830.524	17136
830.663	17060
830.802	17010
830.941	16866
831.08	16797
831.219	17033
831.357	16900
831.496	17166
831.635	16900
831.774	16831
831.913	16668
832.051	16649
832.19	16672
832.329	16653
832.467	16546
832.606	16512
832.744	16554
832.883	16573
833.022	16618
833.16	16500
833.299	16607
833.437	16455
833.576	16599
833.714	16615
833.852	16618
833.991	16710
834.129	16752
834.267	16645
834.406	16603
834.544	16584
834.682	16611
834.821	16596
834.959	16740
835.097	16519
835.235	16710
835.373	16675
835.511	16645
835.65	16561
835.788	16561
835.926	16363
836.064	16398
836.202	16386
836.34	16561
836.478	16622
836.615	16546
836.753	16554
836.891	16649
837.029	16577
837.167	16432
837.305	16455
837.443	16451
837.58	16341
837.718	16390
837.856	16322
837.993	16363
838.131	16341
838.269	16280
838.406	16329
838.544	16268
838.681	16158
838.819	15998
838.956	15953
839.094	15945
839.231	15949
839.369	16036
839.506	16261
839.643	16200
839.781	15953
839.918	15869
840.055	15926
840.193	15915
840.33	15873
840.467	15915
840.604	15918
840.742	16226
840.879	15850
841.016	15857
841.153	15812
841.29	16067
841.427	15865
841.564	15991
841.701	15922
841.838	15899
841.975	15842
842.112	15831
842.249	15686
842.385	15618
842.522	15884
842.659	15713
842.796	15610
842.933	15553
843.069	15690
843.206	15652
843.343	15789
843.479	15747
843.616	15747
843.752	15450
843.889	15447
844.025	15644
844.162	15439
844.298	15580
844.435	15454
844.571	15439
844.708	15629
844.844	15584
844.98	15656
845.117	15515
845.253	15348
845.389	15321
845.525	15408
845.661	15382
845.798	15279
845.934	15370
846.07	15260
846.206	15401
846.342	15386
846.478	15382
846.614	15081
846.75	15077
846.886	14963
847.022	15226
847.158	15058
847.294	15180
847.429	15055
847.565	15020
847.701	15230
847.837	14864
847.972	14663
848.108	14864
848.244	14883
848.379	14769
848.515	14648
848.65	14571
848.786	14598
848.921	14689
849.057	14758
849.192	14716
849.328	14670
849.463	14670
849.598	14644
849.734	14495
849.869	14480
850.004	14473
850.14	14476
850.275	14355
850.41	14298
850.545	14374
850.68	14374
850.815	14396
850.95	14454
851.085	14594
851.22	14579
851.355	14511
851.49	14427
851.625	14313
851.76	14385
851.895	14362
852.03	14343
852.165	14404
852.299	14476
852.434	14480
852.569	14427
852.703	14499
852.838	14473
852.973	14590
853.107	14507
853.242	14461
853.376	14351
853.511	14206
853.645	14191
853.78	14370
853.914	14324
854.048	14214
854.183	14286
854.317	14294
854.451	14476
854.585	14256
854.72	14290
854.854	14324
854.988	14225
855.122	14256
855.256	14115
855.39	14248
855.524	14339
855.658	14347
855.792	14404
855.926	14271
856.06	14351
856.194	14389
856.327	14256
856.461	14221
856.595	14252
856.729	14233
856.862	14317
856.996	14332
857.13	14358
857.263	14332
857.397	14408
857.53	14332
857.664	14332
857.797	14278
857.931	14442
858.064	14343
858.197	14377
858.331	14275
858.464	14142
858.597	14180
858.731	14290
858.864	14317
858.997	14237
859.13	14282
859.263	14317
859.396	14366
859.529	14278
859.662	14248
859.795	14248
859.928	14366
860.061	14431
860.194	14434
860.327	14286
860.46	14240
860.592	14423
860.725	14343
860.858	14404
860.99	14240
861.123	14237
861.256	14218
861.388	14218
861.521	14819
861.653	14210
861.786	14069
861.918	14054
862.05	14123
862.183	14206
862.315	14301
862.447	14313
862.58	14263
862.712	14054
862.844	14039
862.976	14172
863.108	14084
863.24	14415
863.372	14084
863.504	14016
863.636	14024
863.768	14107
863.9	14039
864.032	13917
864.164	14008
864.296	14103
864.428	14256
864.559	14073
864.691	14084
864.823	14027
864.954	14081
865.086	14065
865.217	13963
865.349	13936
865.48	14123
865.612	14115
865.743	14172
865.875	14145
866.006	13925
866.137	14039
866.269	14092
866.4	14020
866.531	14062
866.662	13936
866.793	14001
866.924	14062
867.055	14024
867.186	14039
867.317	13967
867.448	13940
867.579	14077
867.71	13978
867.841	14039
867.972	14005
868.103	14001
868.233	14084
868.364	14043
868.495	14168
868.625	14259
868.756	14381
868.886	14218
869.017	14370
869.147	14393
869.278	14442
869.408	14301
869.539	14385
869.669	14450
869.799	14457
869.929	14381
870.06	14374
870.19	14587
870.32	14606
870.45	14617
870.58	14796
870.71	14815
870.84	14819
870.97	14670
871.1	14697
871.23	14845
871.36	14963
871.489	14743
871.619	14899
871.749	14845
871.879	14853
872.008	15024
872.138	14910
872.267	14872
872.397	14861
872.526	14705
872.656	14689
872.785	14853
872.915	14887
873.044	14998
873.173	14982
873.303	14994
873.432	14982
873.561	15032
873.69	14994
873.819	15108
873.948	14952
874.077	15017
874.206	14895
874.335	15058
874.464	15104
874.593	15252
874.722	15108
874.851	15310
874.979	15283
875.108	15237
875.237	15192
875.365	15226
875.494	15222
875.623	15332
875.751	15298
875.88	15351
876.008	15348
876.136	15488
876.265	15705
876.393	15823
876.521	15724
876.65	15686
876.778	15808
876.906	15713
877.034	15648
877.162	15713
877.29	15610
877.418	15663
877.546	15690
877.674	15705
877.802	15751
877.93	15587
878.058	15724
878.185	15534
878.313	15663
878.441	15648
878.568	15534
878.696	15629
878.824	15759
878.951	15720
879.079	15854
879.206	15994
879.333	15869
879.461	15622
879.588	15736
879.715	15895
879.842	15983
879.97	15812
880.097	15447
880.224	15435
880.351	15580
880.478	15557
880.605	15542
880.732	15519
880.859	15736
880.986	15576
881.112	15534
881.239	15336
881.366	15279
881.493	15222
881.619	15176
881.746	15207
881.872	15138
881.999	15180
882.125	15157
882.252	15176
882.378	15097
882.505	15252
882.631	15180
882.757	14963
882.883	15097
883.01	14967
883.136	14781
883.262	14914
883.388	14811
883.514	14933
883.64	15001
883.766	14960
883.892	14796
884.018	14800
884.143	14975
884.269	15062
884.395	14746
884.52	14632
884.646	14705
884.772	14606
884.897	14651
885.023	14667
885.148	14762
885.274	14739
885.399	14796
885.524	14610
885.65	14708
885.775	14693
885.9	14659
886.025	14743
886.15	14689
886.275	14697
886.4	14583
886.525	14686
886.65	14606
886.775	14674
886.9	14857
887.025	14891
887.149	14838
887.274	14587
887.399	14454
887.523	14503
887.648	14526
887.773	14480
887.897	14537
888.021	14659
888.146	14499
888.27	14571
888.395	14640
888.519	14598
888.643	14621
888.767	14492
888.891	14442
889.015	14400
889.139	14415
889.263	14282
889.387	14564
889.511	14667
889.635	14518
889.759	14457
889.883	14415
890.006	14404
890.13	14568
890.254	14271
890.377	14317
890.501	14252
890.624	14225
890.748	14290
890.871	14138
890.995	14115
891.118	13959
891.241	14115
891.364	14176
891.488	14191
891.611	14065
891.734	14115
891.857	14081
891.98	14134
892.103	14252
892.226	14054
892.349	14024
892.471	13898
892.594	14024
892.717	14119
892.839	14149
892.962	14031
893.085	14142
893.207	14016
893.33	13955
893.452	14012
893.575	14218
893.697	14092
893.819	14286
893.941	14370
894.064	14267
894.186	14096
894.308	14031
894.43	14153
894.552	14259
894.674	14358
894.796	14088
894.918	14145
895.04	14233
895.161	14229
895.283	14164
895.405	14062
895.526	14202
895.648	14225
895.769	14191
895.891	14385
896.012	14393
896.134	14317
896.255	14275
896.376	14278
896.498	14183
896.619	14271
896.74	14218
896.861	14328
896.982	14560
897.103	14708
897.224	14514
897.345	14473
897.466	14465
897.587	14488
897.708	14686
897.828	14636
897.949	14511
898.07	14427
898.19	14594
898.311	14727
898.431	14568
898.552	14545
898.672	14697
898.792	14670
898.913	14670
899.033	14514
899.153	14415
899.273	14473
899.393	14610
899.513	14396
899.633	14457
899.753	14488
899.873	14469
899.993	14450
900.113	14434
900.232	14438
900.352	14412
900.472	14396
900.591	14256
900.711	14400
900.83	14343
900.95	14465
901.069	14446
901.189	14298
901.308	14092
901.427	14050
901.546	14062
901.665	14035
901.784	13967
901.904	13887
902.023	13894
902.141	13651
902.26	13624
902.379	13795
902.498	13582
902.617	13464
902.735	13628
902.854	13594
902.973	13483
903.091	13419
903.21	13270
903.328	13343
903.446	13274
903.565	13141
903.683	13282
903.801	13080
903.919	13198
904.038	13160
904.156	12928
904.274	13034
904.392	12913
904.51	12962
904.627	12977
904.745	12951
904.863	13004
904.981	12795
905.098	12642
905.216	12627
905.334	12700
905.451	12646
905.569	12582
905.686	12620
905.803	12745
905.921	12464
906.038	12574
906.155	12471
906.272	12384
906.389	12357
906.506	12281
906.623	12258
906.74	12247
906.857	12072
906.974	12228
907.091	12334
907.208	12441
907.324	12304
907.441	12152
907.557	11954
907.674	11988
907.79	11992
907.907	11977
908.023	12034
908.139	11992
908.256	11920
908.372	11908
908.488	11874
908.604	11786
908.72	11722
908.836	11779
908.952	11710
909.068	11764
909.184	11855
909.3	11676
909.415	11836
909.531	11714
909.647	11566
909.762	11402
909.878	11444
909.993	11577
910.108	11490
910.224	11353
910.339	11532
910.454	11471
910.57	11398
910.685	11322
910.8	11630
910.915	11558
911.03	11455
911.145	11334
911.259	11212
911.374	11258
911.489	11159
911.604	11083
911.718	10889
911.833	10995
911.947	10930
912.062	10771
912.176	10991
912.291	10991
912.405	10904
912.519	11185
912.633	11204
912.748	11041
912.862	10995
912.976	10873
913.09	10763
913.204	10843
913.318	10946
913.431	10980
913.545	10908
913.659	11006
913.772	10843
913.886	10725
914	10740
914.113	10885
914.226	10824
914.34	10805
914.453	10653
914.566	10835
914.68	10725
914.793	10668
914.906	10436
915.019	10459
915.132	10402
915.245	10421
915.358	10523
915.47	10474
915.583	10546
915.696	10497
915.809	10649
915.921	10634
916.034	10459
916.146	10424
916.259	10409
916.371	10535
916.483	10504
916.595	10390
916.708	10405
916.82	10470
916.932	10417
917.044	10375
917.156	10371
917.268	10219
917.38	10306
917.491	10295
917.603	10352
917.715	10417
917.826	10455
917.938	10352
918.049	10173
918.161	10337
918.272	10436
918.384	10455
918.495	10352
918.606	10188
918.717	10109
918.828	10295
918.939	10276
919.05	10124
919.161	10177
919.272	10021
919.383	10067
919.494	10268
919.604	10405
919.715	10166
919.826	10154
919.936	10185
920.047	10314
920.157	10268
920.267	10466
920.378	10306
920.488	10169
920.598	10337
920.708	10538
920.818	10375
920.928	10363
921.038	10588
921.148	10493
921.258	10185
921.368	10154
921.477	10173
921.587	10120
921.697	9972
921.806	10135
921.916	9907
922.025	9857
922.134	9671
922.244	9740
922.353	9876
922.462	9641
922.571	9610
922.68	9500
922.789	9401
922.898	9443
923.007	9420
923.116	9500
923.224	9488
923.333	9458
923.442	9348
923.55	9329
923.659	9355
923.767	9469
923.876	9348
923.984	9370
924.092	9256
924.201	9321
924.309	9359
924.417	9351
924.525	9355
924.633	9306
924.741	10230
924.849	9104
924.956	9279
925.064	9154
925.172	9009
925.279	9066
925.387	9226
925.494	9085
925.602	9230
925.709	9211
925.816	9028
925.924	9173
926.031	9169
926.138	9131
926.245	9218
926.352	9017
926.459	9138
926.566	9218
926.673	9047
926.779	8986
926.886	8975
926.993	8880
927.099	8815
927.206	8857
927.312	8807
927.419	8857
927.525	8857
927.631	8887
927.737	8743
927.843	8708
927.95	8625
928.056	8636
928.162	8727
928.267	8819
928.373	9370
928.479	8804
928.585	8583
928.69	8697
928.796	8758
928.901	8644
929.007	8480
929.112	8636
929.218	8610
929.323	8590
929.428	8549
929.533	8773
929.638	8465
929.743	8454
929.848	8488
929.953	8556
930.058	8419
930.163	8309
930.267	8248
930.372	8545
930.477	8294
930.581	8526
930.685	8396
930.79	8233
930.894	8305
930.998	8248
931.103	8423
931.207	8073
931.311	8016
931.415	7959
931.519	7753
931.623	7868
