Data from test_V78500241_2470.txt Node
Date: Fri Mar 25 14:50:54 CST 2022
User: usil
Spectrometer: V785-0024
Trigger mode: 0
Integration Time (sec): 4.000000E-1
Scans to average: 1
Nonlinearity correction enabled: false
Boxcar width: 0
Storing dark spectrum: false
XAxis mode: Wavelengths
Number of Pixels in Spectrum: 1024
>>>>>Begin Spectral Data<<<<<
801.071	22238
801.214	21998
801.356	21816
801.499	21591
801.641	21523
801.783	21447
801.926	21583
802.068	21435
802.211	21382
802.353	21291
802.496	21070
802.638	20967
802.78	20990
802.923	20872
803.065	20792
803.208	20765
803.35	20960
803.492	20887
803.635	20960
803.777	20807
803.919	20887
804.061	21249
804.204	20941
804.346	20640
804.488	20697
804.63	20785
804.773	20621
804.915	20727
805.057	20804
805.199	20678
805.341	20864
805.483	20781
805.626	20849
805.768	20659
805.91	20682
806.052	20743
806.194	20587
806.336	20750
806.478	20667
806.62	20533
806.762	20762
806.904	20887
807.046	21017
807.188	20956
807.33	20979
807.472	21199
807.614	20937
807.756	20849
807.898	20937
808.04	20720
808.182	20682
808.324	20785
808.465	20861
808.607	20982
808.749	21138
808.891	21116
809.033	21184
809.174	21138
809.316	20971
809.458	21020
809.6	21024
809.741	21173
809.883	21123
810.025	21310
810.166	21211
810.308	21237
810.45	21150
810.591	21112
810.733	20880
810.875	20785
811.016	20857
811.158	20727
811.299	20838
811.441	20861
811.582	20990
811.724	20868
811.865	20716
812.007	20811
812.148	20735
812.29	20868
812.431	21036
812.573	21070
812.714	21199
812.855	21310
812.997	21481
813.138	21595
813.279	21317
813.421	21412
813.562	21283
813.703	21161
813.845	20925
813.986	20701
814.127	20606
814.268	20507
814.41	20434
814.551	20332
814.692	20393
814.833	20389
814.974	20355
815.115	20438
815.256	20240
815.397	20195
815.539	20294
815.68	20172
815.821	20065
815.962	20153
816.103	20111
816.244	19955
816.385	19883
816.526	19860
816.666	19712
816.807	19548
816.948	19457
817.089	19677
817.23	19563
817.371	19578
817.512	19616
817.653	19495
817.793	19445
817.934	19472
818.075	19681
818.216	19514
818.356	19491
818.497	19354
818.638	19072
818.778	19076
818.919	19164
819.06	19198
819.2	19251
819.341	19377
819.481	19335
819.622	19571
819.762	19731
819.903	19651
820.043	19643
820.184	19472
820.324	19506
820.465	19525
820.605	19556
820.746	19495
820.886	19301
821.026	19518
821.167	19373
821.307	19544
821.447	19411
821.588	19255
821.728	19274
821.868	19057
822.008	18943
822.149	18943
822.289	18947
822.429	18684
822.569	18509
822.709	18620
822.849	18502
822.99	18380
823.13	18361
823.27	18395
823.41	18232
823.55	18102
823.69	18224
823.83	18235
823.97	18152
824.11	17958
824.25	17855
824.389	17889
824.529	17977
824.669	18011
824.809	18095
824.949	18095
825.089	17961
825.228	18019
825.368	17779
825.508	17786
825.648	17672
825.787	17771
825.927	17748
826.067	17665
826.206	17756
826.346	17722
826.485	17794
826.625	17767
826.765	17821
826.904	17760
827.044	17554
827.183	17509
827.323	17471
827.462	17509
827.601	17459
827.741	17414
827.88	17547
828.02	17337
828.159	17471
828.298	17452
828.437	17455
828.577	17410
828.716	17630
828.855	17296
828.994	17193
829.134	17349
829.273	17288
829.412	17159
829.551	17151
829.69	17075
829.829	17223
829.968	17258
830.107	17235
830.246	17227
830.385	17220
830.524	17132
830.663	16953
830.802	16801
830.941	16797
831.08	16645
831.219	16835
831.357	16809
831.496	17029
831.635	16858
831.774	16725
831.913	16710
832.051	16596
832.19	16649
832.329	16645
832.467	16500
832.606	16466
832.744	16421
832.883	16500
833.022	16440
833.16	16615
833.299	16531
833.437	16508
833.576	16558
833.714	16554
833.852	16573
833.991	16573
834.129	16538
834.267	16713
834.406	16603
834.544	16523
834.682	16596
834.821	16558
834.959	16649
835.097	16558
835.235	16668
835.373	16584
835.511	16538
835.65	16371
835.788	16558
835.926	16352
836.064	16367
836.202	16265
836.34	16424
836.478	16459
836.615	16394
836.753	16459
836.891	16523
837.029	16462
837.167	16436
837.305	16405
837.443	16398
837.58	16291
837.718	16325
837.856	16325
837.993	16325
838.131	16352
838.269	16352
838.406	16265
838.544	16181
838.681	16063
838.819	15960
838.956	15911
839.094	15793
839.231	15880
839.369	15907
839.506	16257
839.643	16025
839.781	15915
839.918	15812
840.055	15892
840.193	15876
840.33	15838
840.467	15854
840.604	15930
840.742	16135
840.879	15614
841.016	15778
841.153	15759
841.29	15953
841.427	15922
841.564	15937
841.701	15911
841.838	15850
841.975	15869
842.112	15835
842.249	15743
842.385	15656
842.522	15808
842.659	15584
842.796	15629
842.933	15610
843.069	15648
843.206	15568
843.343	15800
843.479	15679
843.616	15698
843.752	15477
843.889	15466
844.025	15660
844.162	15488
844.298	15511
844.435	15397
844.571	15401
844.708	15519
844.844	15606
844.98	15572
845.117	15504
845.253	15325
845.389	15340
845.525	15428
845.661	15268
845.798	15252
845.934	15245
846.07	15230
846.206	15298
846.342	15306
846.478	15214
846.614	15032
846.75	14952
846.886	14975
847.022	15127
847.158	15009
847.294	15051
847.429	14990
847.565	15005
847.701	15207
847.837	14788
847.972	14701
848.108	14876
848.244	14861
848.379	14693
848.515	14670
848.65	14655
848.786	14606
848.921	14617
849.057	14743
849.192	14686
849.328	14712
849.463	14594
849.598	14511
849.734	14488
849.869	14476
850.004	14412
850.14	14431
850.275	14381
850.41	14290
850.545	14256
850.68	14298
850.815	14415
850.95	14393
851.085	14545
851.22	14427
851.355	14381
851.49	14252
851.625	14377
851.76	14381
851.895	14267
852.03	14225
852.165	14278
852.299	14374
852.434	14457
852.569	14450
852.703	14419
852.838	14488
852.973	14556
853.107	14469
853.242	14282
853.376	14149
853.511	14123
853.645	14301
853.78	14355
853.914	14221
854.048	14225
854.183	14210
854.317	14267
854.451	14385
854.585	14240
854.72	14153
854.854	14267
854.988	14149
855.122	14161
855.256	14103
855.39	14191
855.524	14309
855.658	14233
855.792	14305
855.926	14362
856.06	14358
856.194	14199
856.327	14164
856.461	14237
856.595	14161
856.729	14153
856.862	14370
856.996	14282
857.13	14358
857.263	14343
857.397	14320
857.53	14210
857.664	14320
857.797	14347
857.931	14317
858.064	14305
858.197	14393
858.331	14305
858.464	14202
858.597	14123
858.731	14218
858.864	14206
858.997	14267
859.13	14233
859.263	14233
859.396	14343
859.529	14275
859.662	14145
859.795	14157
859.928	14199
860.061	14324
860.194	14419
860.327	14294
860.46	14195
860.592	14328
860.725	14419
860.858	14374
860.99	14229
861.123	14103
861.256	14081
861.388	14259
861.521	14792
861.653	14103
861.786	14043
861.918	14084
862.05	14195
862.183	14210
862.315	14305
862.447	14259
862.58	14123
862.712	13940
862.844	13955
862.976	14069
863.108	14031
863.24	14343
863.372	13951
863.504	13963
863.636	14020
863.768	13993
863.9	13909
864.032	13917
864.164	13883
864.296	13967
864.428	14111
864.559	14077
864.691	14119
864.823	14020
864.954	14031
865.086	14020
865.217	14027
865.349	13940
865.48	14027
865.612	13959
865.743	14191
865.875	13989
866.006	13982
866.137	13959
866.269	14005
866.4	14012
866.531	13932
866.662	13947
866.793	13947
866.924	14024
867.055	14005
867.186	13993
867.317	14035
867.448	13868
867.579	13928
867.71	14012
867.841	13963
867.972	14145
868.103	13997
868.233	13959
868.364	14012
868.495	14168
868.625	14244
868.756	14301
868.886	14157
869.017	14210
869.147	14305
869.278	14396
869.408	14298
869.539	14366
869.669	14336
869.799	14233
869.929	14339
870.06	14427
870.19	14473
870.32	14545
870.45	14579
870.58	14663
870.71	14785
870.84	14800
870.97	14705
871.1	14587
871.23	14834
871.36	14845
871.489	14686
871.619	14872
871.749	14811
871.879	14933
872.008	14967
872.138	14838
872.267	14830
872.397	14686
872.526	14697
872.656	14632
872.785	14686
872.915	14872
873.044	14952
873.173	14880
873.303	14895
873.432	14937
873.561	14906
873.69	15043
873.819	14902
873.948	14971
874.077	14868
874.206	14921
874.335	14845
874.464	15062
874.593	15085
874.722	15169
874.851	15249
874.979	15249
875.108	15233
875.237	15169
875.365	15123
875.494	15226
875.623	15325
875.751	15157
875.88	15306
876.008	15447
876.136	15435
876.265	15595
876.393	15739
876.521	15682
876.65	15743
876.778	15720
876.906	15667
877.034	15644
877.162	15660
877.29	15660
877.418	15606
877.546	15686
877.674	15682
877.802	15682
877.93	15739
878.058	15625
878.185	15625
878.313	15572
878.441	15800
878.568	15454
878.696	15587
878.824	15584
878.951	15789
879.079	15804
879.206	15934
879.333	15778
879.461	15717
879.588	15759
879.715	15854
879.842	15964
879.97	15743
880.097	15545
880.224	15530
880.351	15515
880.478	15504
880.605	15526
880.732	15549
880.859	15793
880.986	15500
881.112	15576
881.239	15344
881.366	15313
881.493	15180
881.619	15184
881.746	15192
881.872	15207
881.999	15180
882.125	15146
882.252	15279
882.378	15218
882.505	15428
882.631	15119
882.757	14971
882.883	15036
883.01	15020
883.136	14895
883.262	14819
883.388	14899
883.514	15077
883.64	15104
883.766	14941
883.892	14868
884.018	14807
884.143	15013
884.269	15036
884.395	14864
884.52	14712
884.646	14746
884.772	14644
884.897	14648
885.023	14705
885.148	14815
885.274	14914
885.399	14773
885.524	14689
885.65	14765
885.775	14670
885.9	14682
886.025	14845
886.15	14785
886.275	14663
886.4	14644
886.525	14644
886.65	14670
886.775	14636
886.9	14872
887.025	14918
887.149	14705
887.274	14552
887.399	14492
887.523	14427
887.648	14393
887.773	14419
887.897	14648
888.021	14564
888.146	14393
888.27	14632
888.395	14689
888.519	14564
888.643	14651
888.767	14663
888.891	14457
889.015	14419
889.139	14454
889.263	14305
889.387	14499
889.511	14629
889.635	14530
889.759	14370
889.883	14381
890.006	14305
890.13	14522
890.254	14298
890.377	14275
890.501	14275
890.624	14142
890.748	14298
890.871	14145
890.995	14077
891.118	13974
891.241	14096
891.364	14092
891.488	14180
891.611	13997
891.734	14138
891.857	14161
891.98	14069
892.103	14244
892.226	14206
892.349	13982
892.471	13947
892.594	14077
892.717	14039
892.839	14065
892.962	14088
893.085	14145
893.207	14100
893.33	14046
893.452	14001
893.575	14252
893.697	14058
893.819	14237
893.941	14301
894.064	14168
894.186	14039
894.308	14062
894.43	14180
894.552	14374
894.674	14240
894.796	13974
894.918	14157
895.04	14084
895.161	14191
895.283	14275
895.405	14180
895.526	14161
895.648	14199
895.769	14172
895.891	14225
896.012	14271
896.134	14290
896.255	14305
896.376	14225
896.498	14324
896.619	14237
896.74	14370
896.861	14366
896.982	14636
897.103	14739
897.224	14571
897.345	14579
897.466	14507
897.587	14541
897.708	14583
897.828	14606
897.949	14556
898.07	14343
898.19	14507
898.311	14746
898.431	14602
898.552	14659
898.672	14720
898.792	14720
898.913	14674
899.033	14514
899.153	14450
899.273	14442
899.393	14438
899.513	14507
899.633	14518
899.753	14522
899.873	14412
899.993	14514
900.113	14492
900.232	14545
900.352	14450
900.472	14385
900.591	14393
900.711	14454
900.83	14271
900.95	14423
901.069	14465
901.189	14252
901.308	13993
901.427	14031
901.546	14123
901.665	14096
901.784	14077
901.904	13902
902.023	13860
902.141	13719
902.26	13544
902.379	13826
902.498	13655
902.617	13499
902.735	13696
902.854	13575
902.973	13514
903.091	13304
903.21	13354
903.328	13278
903.446	13263
903.565	13171
903.683	13012
903.801	13050
903.919	13099
904.038	13050
904.156	13008
904.274	13095
904.392	12989
904.51	12935
904.627	12954
904.745	12993
904.863	13012
904.981	12787
905.098	12684
905.216	12658
905.334	12662
905.451	12616
905.569	12517
905.686	12665
905.803	12669
905.921	12479
906.038	12620
906.155	12536
906.272	12403
906.389	12353
906.506	12213
906.623	12281
906.74	12220
906.857	12186
906.974	12136
907.091	12243
907.208	12361
907.324	12338
907.441	12175
907.557	11965
907.674	12011
907.79	11901
907.907	11988
908.023	12041
908.139	12019
908.256	12011
908.372	11836
908.488	11935
908.604	11722
908.72	11676
908.836	11779
908.952	11809
909.068	11714
909.184	11824
909.3	11676
909.415	11931
909.531	11771
909.647	11535
909.762	11532
909.878	11493
909.993	11543
910.108	11512
910.224	11471
910.339	11433
910.454	11436
910.57	11383
910.685	11353
910.8	11634
910.915	11573
911.03	11288
911.145	11189
911.259	11201
911.374	11239
911.489	11242
911.604	11102
911.718	10995
911.833	11014
911.947	10885
912.062	10767
912.176	11014
912.291	10980
912.405	10949
912.519	11235
912.633	11143
912.748	11105
912.862	10934
912.976	10869
913.09	10771
913.204	10805
913.318	10915
913.431	10930
913.545	10987
913.659	10942
913.772	10892
913.886	10740
914	10664
914.113	10816
914.226	10889
914.34	10805
914.453	10630
914.566	10774
914.68	10687
914.793	10706
914.906	10527
915.019	10523
915.132	10371
915.245	10405
915.358	10485
915.47	10440
915.583	10516
915.696	10645
915.809	10660
915.921	10607
916.034	10500
916.146	10360
916.259	10409
916.371	10497
916.483	10523
916.595	10413
916.708	10348
916.82	10421
916.932	10455
917.044	10371
917.156	10417
917.268	10276
917.38	10325
917.491	10322
917.603	10257
917.715	10379
917.826	10402
917.938	10291
918.049	10166
918.161	10390
918.272	10455
918.384	10508
918.495	10344
918.606	10242
918.717	10200
918.828	10200
918.939	10116
919.05	10128
919.161	10143
919.272	9979
919.383	10048
919.494	10227
919.604	10394
919.715	10147
919.826	10181
919.936	10196
920.047	10207
920.157	10238
920.267	10459
920.378	10207
920.488	10147
920.598	10489
920.708	10535
920.818	10432
920.928	10405
921.038	10630
921.148	10516
921.258	10287
921.368	10158
921.477	10044
921.587	10040
921.697	9983
921.806	10093
921.916	10017
922.025	9766
922.134	9732
922.244	9759
922.353	9770
922.462	9644
922.571	9625
922.68	9435
922.789	9424
922.898	9458
923.007	9454
923.116	9564
923.224	9386
923.333	9462
923.442	9329
923.55	9294
923.659	9397
923.767	9405
923.876	9313
923.984	9374
924.092	9272
924.201	9321
924.309	9344
924.417	9272
924.525	9203
924.633	9249
924.741	10044
924.849	9074
924.956	9313
925.064	9112
925.172	9043
925.279	9051
925.387	9142
925.494	9142
925.602	9237
925.709	9135
925.816	9085
925.924	9116
926.031	9203
926.138	9135
926.245	9161
926.352	9001
926.459	9233
926.566	9272
926.673	9138
926.779	8994
926.886	8937
926.993	8823
927.099	8838
927.206	8872
927.312	8659
927.419	8887
927.525	8883
927.631	8849
927.737	8724
927.843	8697
927.95	8594
928.056	8708
928.162	8773
928.267	8792
928.373	9428
928.479	8804
928.585	8556
928.69	8708
928.796	8796
928.901	8678
929.007	8530
929.112	8678
929.218	8651
929.323	8610
929.428	8499
929.533	8678
929.638	8450
929.743	8530
929.848	8568
929.953	8526
930.058	8450
930.163	8355
930.267	8317
930.372	8434
930.477	8351
930.581	8587
930.685	8412
930.79	8183
930.894	8320
930.998	8157
931.103	8404
931.207	8050
931.311	7978
931.415	7917
931.519	7765
931.623	7757
