Data from test_V78500241_2081.txt Node
Date: Fri Mar 25 14:48:12 CST 2022
User: usil
Spectrometer: V785-0024
Trigger mode: 0
Integration Time (sec): 4.000000E-1
Scans to average: 1
Nonlinearity correction enabled: false
Boxcar width: 0
Storing dark spectrum: false
XAxis mode: Wavelengths
Number of Pixels in Spectrum: 1024
>>>>>Begin Spectral Data<<<<<
801.071	22093
801.214	22120
801.356	21709
801.499	21675
801.641	21530
801.783	21549
801.926	21679
802.068	21447
802.211	21488
802.353	21302
802.496	21081
802.638	21017
802.78	20982
802.923	20975
803.065	20910
803.208	20754
803.35	20895
803.492	20876
803.635	20963
803.777	20830
803.919	20891
804.061	21161
804.204	20807
804.346	20777
804.488	20701
804.63	20773
804.773	20678
804.915	20807
805.057	20933
805.199	20754
805.341	20830
805.483	21013
805.626	20823
805.768	20712
805.91	20800
806.052	20754
806.194	20773
806.336	20849
806.478	20644
806.62	20632
806.762	20823
806.904	20967
807.046	21249
807.188	21055
807.33	20971
807.472	21161
807.614	21047
807.756	21154
807.898	20842
808.04	20777
808.182	20781
808.324	20914
808.465	20956
808.607	21195
808.749	21119
808.891	21226
809.033	21237
809.174	21211
809.316	21074
809.458	21119
809.6	21039
809.741	21195
809.883	21252
810.025	21431
810.166	21317
810.308	21378
810.45	21233
810.591	21100
810.733	21024
810.875	20948
811.016	20853
811.158	20876
811.299	20948
811.441	21055
811.582	20994
811.724	20944
811.865	20887
812.007	20819
812.148	20963
812.29	20963
812.431	21100
812.573	21188
812.714	21260
812.855	21367
812.997	21424
813.138	21641
813.279	21542
813.421	21523
813.562	21336
813.703	21218
813.845	21001
813.986	20796
814.127	20697
814.268	20556
814.41	20473
814.551	20495
814.692	20602
814.833	20358
814.974	20419
815.115	20495
815.256	20339
815.397	20377
815.539	20187
815.68	20183
815.821	20145
815.962	20164
816.103	20202
816.244	19963
816.385	19864
816.526	19944
816.666	19803
816.807	19616
816.948	19609
817.089	19704
817.23	19662
817.371	19590
817.512	19616
817.653	19590
817.793	19529
817.934	19655
818.075	19666
818.216	19670
818.356	19521
818.497	19422
818.638	19327
818.778	19266
818.919	19339
819.06	19320
819.2	19533
819.341	19460
819.481	19544
819.622	19609
819.762	19765
819.903	19723
820.043	19750
820.184	19563
820.324	19613
820.465	19674
820.605	19559
820.746	19422
820.886	19312
821.026	19616
821.167	19510
821.307	19533
821.447	19578
821.588	19483
821.728	19293
821.868	19190
822.008	18970
822.149	19023
822.289	18977
822.429	18665
822.569	18639
822.709	18616
822.849	18589
822.99	18509
823.13	18456
823.27	18384
823.41	18262
823.55	18171
823.69	18365
823.83	18342
823.97	18197
824.11	18057
824.25	18083
824.389	17992
824.529	18053
824.669	18041
824.809	18121
824.949	18190
825.089	18163
825.228	17984
825.368	17809
825.508	17783
825.648	17958
825.787	17870
825.927	17904
826.067	17851
826.206	17718
826.346	17760
826.485	17847
826.625	17802
826.765	17931
826.904	17832
827.044	17657
827.183	17608
827.323	17501
827.462	17551
827.601	17551
827.741	17528
827.88	17493
828.02	17459
828.159	17520
828.298	17482
828.437	17604
828.577	17516
828.716	17722
828.855	17421
828.994	17239
829.134	17307
829.273	17273
829.412	17269
829.551	17273
829.69	17197
829.829	17246
829.968	17402
830.107	17315
830.246	17284
830.385	17296
830.524	17181
830.663	17132
830.802	17014
830.941	16919
831.08	17010
831.219	16980
831.357	16942
831.496	17117
831.635	16847
831.774	16869
831.913	16744
832.051	16569
832.19	16687
832.329	16771
832.467	16637
832.606	16512
832.744	16653
832.883	16554
833.022	16497
833.16	16558
833.299	16599
833.437	16793
833.576	16538
833.714	16653
833.852	16656
833.991	16710
834.129	16725
834.267	16645
834.406	16641
834.544	16740
834.682	16694
834.821	16641
834.959	16801
835.097	16687
835.235	16668
835.373	16622
835.511	16687
835.65	16485
835.788	16546
835.926	16428
836.064	16287
836.202	16379
836.34	16531
836.478	16603
836.615	16417
836.753	16630
836.891	16653
837.029	16554
837.167	16675
837.305	16478
837.443	16413
837.58	16382
837.718	16455
837.856	16341
837.993	16367
838.131	16440
838.269	16295
838.406	16367
838.544	16360
838.681	16169
838.819	16067
838.956	15903
839.094	15911
839.231	16048
839.369	16150
839.506	16314
839.643	16200
839.781	16044
839.918	15922
840.055	15964
840.193	16013
840.33	15979
840.467	15888
840.604	15994
840.742	16143
840.879	15930
841.016	15835
841.153	15892
841.29	16036
841.427	15915
841.564	16051
841.701	16036
841.838	15949
841.975	15922
842.112	15892
842.249	15766
842.385	15709
842.522	15956
842.659	15736
842.796	15743
842.933	15793
843.069	15675
843.206	15690
843.343	15819
843.479	15713
843.616	15797
843.752	15523
843.889	15485
844.025	15679
844.162	15511
844.298	15656
844.435	15481
844.571	15526
844.708	15542
844.844	15679
844.98	15698
845.117	15614
845.253	15401
845.389	15454
845.525	15416
845.661	15466
845.798	15378
845.934	15424
846.07	15344
846.206	15412
846.342	15462
846.478	15386
846.614	15119
846.75	15062
846.886	15146
847.022	15089
847.158	15154
847.294	15150
847.429	15116
847.565	15100
847.701	15329
847.837	14880
847.972	14925
848.108	14853
848.244	14975
848.379	14686
848.515	14651
848.65	14769
848.786	14724
848.921	14765
849.057	14674
849.192	14727
849.328	14788
849.463	14777
849.598	14697
849.734	14659
849.869	14511
850.004	14511
850.14	14560
850.275	14450
850.41	14415
850.545	14469
850.68	14438
850.815	14438
850.95	14339
851.085	14598
851.22	14564
851.355	14442
851.49	14389
851.625	14362
851.76	14484
851.895	14446
852.03	14351
852.165	14355
852.299	14488
852.434	14526
852.569	14556
852.703	14461
852.838	14465
852.973	14636
853.107	14590
853.242	14484
853.376	14298
853.511	14259
853.645	14256
853.78	14446
853.914	14328
854.048	14271
854.183	14347
854.317	14412
854.451	14511
854.585	14282
854.72	14298
854.854	14317
854.988	14252
855.122	14366
855.256	14172
855.39	14172
855.524	14309
855.658	14328
855.792	14473
855.926	14419
856.06	14374
856.194	14438
856.327	14328
856.461	14294
856.595	14301
856.729	14199
856.862	14400
856.996	14381
857.13	14415
857.263	14533
857.397	14400
857.53	14282
857.664	14366
857.797	14408
857.931	14396
858.064	14389
858.197	14457
858.331	14301
858.464	14370
858.597	14252
858.731	14294
858.864	14309
858.997	14328
859.13	14271
859.263	14362
859.396	14423
859.529	14317
859.662	14248
859.795	14248
859.928	14454
860.061	14587
860.194	14564
860.327	14332
860.46	14339
860.592	14495
860.725	14522
860.858	14374
860.99	14362
861.123	14164
861.256	14233
861.388	14358
861.521	14861
861.653	14206
861.786	14218
861.918	14183
862.05	14294
862.183	14259
862.315	14324
862.447	14400
862.58	14286
862.712	14157
862.844	14005
862.976	14195
863.108	14145
863.24	14469
863.372	14008
863.504	14039
863.636	13947
863.768	14145
863.9	14096
864.032	14138
864.164	14134
864.296	14069
864.428	14252
864.559	14210
864.691	14267
864.823	14149
864.954	14153
865.086	14176
865.217	14100
865.349	14039
865.48	14092
865.612	14191
865.743	14149
865.875	14077
866.006	14039
866.137	14001
866.269	14096
866.4	14024
866.531	14001
866.662	14077
866.793	14035
866.924	14050
867.055	14020
867.186	14043
867.317	14134
867.448	14058
867.579	14027
867.71	13993
867.841	14027
867.972	14126
868.103	14149
868.233	14100
868.364	14119
868.495	14233
868.625	14298
868.756	14450
868.886	14248
869.017	14263
869.147	14484
869.278	14499
869.408	14336
869.539	14339
869.669	14389
869.799	14480
869.929	14492
870.06	14385
870.19	14670
870.32	14625
870.45	14655
870.58	14727
870.71	14834
870.84	14902
870.97	14720
871.1	14705
871.23	14853
871.36	14971
871.489	14883
871.619	14845
871.749	14887
871.879	15009
872.008	15028
872.138	15001
872.267	14960
872.397	14880
872.526	14804
872.656	14746
872.785	14697
872.915	15013
873.044	14998
873.173	14948
873.303	15036
873.432	15066
873.561	15051
873.69	14967
873.819	15009
873.948	15089
874.077	15066
874.206	14921
874.335	15001
874.464	15100
874.593	15374
874.722	15070
874.851	15302
874.979	15306
875.108	15310
875.237	15233
875.365	15154
875.494	15306
875.623	15378
875.751	15291
875.88	15382
876.008	15431
876.136	15496
876.265	15724
876.393	15850
876.521	15804
876.65	15831
876.778	15739
876.906	15739
877.034	15618
877.162	15663
877.29	15614
877.418	15694
877.546	15660
877.674	15720
877.802	15656
877.93	15690
878.058	15667
878.185	15553
878.313	15667
878.441	15781
878.568	15584
878.696	15675
878.824	15679
878.951	15804
879.079	15800
879.206	15956
879.333	15922
879.461	15739
879.588	15785
879.715	15873
879.842	15987
879.97	15838
880.097	15633
880.224	15462
880.351	15618
880.478	15580
880.605	15523
880.732	15519
880.859	15781
880.986	15603
881.112	15629
881.239	15450
881.366	15302
881.493	15283
881.619	15184
881.746	15268
881.872	15218
881.999	15169
882.125	15203
882.252	15313
882.378	15230
882.505	15466
882.631	15104
882.757	14960
882.883	15150
883.01	14994
883.136	14998
883.262	14937
883.388	14849
883.514	15077
883.64	15055
883.766	14979
883.892	14963
884.018	14956
884.143	14967
884.269	15142
884.395	14864
884.52	14792
884.646	14804
884.772	14640
884.897	14507
885.023	14765
885.148	14823
885.274	14880
885.399	14823
885.524	14735
885.65	14670
885.775	14773
885.9	14648
886.025	14876
886.15	14826
886.275	14720
886.4	14564
886.525	14651
886.65	14659
886.775	14636
886.9	14910
887.025	14948
887.149	14800
887.274	14606
887.399	14610
887.523	14541
887.648	14473
887.773	14495
887.897	14701
888.021	14610
888.146	14629
888.27	14769
888.395	14674
888.519	14590
888.643	14564
888.767	14682
888.891	14499
889.015	14473
889.139	14495
889.263	14396
889.387	14587
889.511	14640
889.635	14469
889.759	14473
889.883	14385
890.006	14484
890.13	14518
890.254	14366
890.377	14305
890.501	14263
890.624	14195
890.748	14351
890.871	14176
890.995	14077
891.118	14111
891.241	14195
891.364	14138
891.488	14229
891.611	14142
891.734	14092
891.857	14149
891.98	14161
892.103	14138
892.226	14176
892.349	14149
892.471	14069
892.594	14088
892.717	14103
892.839	14054
892.962	14119
893.085	14229
893.207	14164
893.33	13963
893.452	13993
893.575	14138
893.697	14138
893.819	14313
893.941	14313
894.064	14275
894.186	14123
894.308	14119
894.43	14336
894.552	14351
894.674	14240
894.796	14031
894.918	14149
895.04	14164
895.161	14244
895.283	14275
895.405	14145
895.526	14164
895.648	14263
895.769	14259
895.891	14320
896.012	14286
896.134	14320
896.255	14275
896.376	14305
896.498	14237
896.619	14366
896.74	14320
896.861	14294
896.982	14564
897.103	14849
897.224	14579
897.345	14507
897.466	14469
897.587	14583
897.708	14693
897.828	14606
897.949	14537
898.07	14358
898.19	14476
898.311	14648
898.431	14552
898.552	14667
898.672	14781
898.792	14686
898.913	14682
899.033	14492
899.153	14476
899.273	14434
899.393	14457
899.513	14518
899.633	14511
899.753	14568
899.873	14408
899.993	14537
900.113	14419
900.232	14556
900.352	14446
900.472	14328
900.591	14256
900.711	14381
900.83	14290
900.95	14446
901.069	14461
901.189	14244
901.308	14183
901.427	14058
901.546	14088
901.665	14092
901.784	14012
901.904	13879
902.023	13780
902.141	13712
902.26	13480
902.379	13700
902.498	13616
902.617	13556
902.735	13719
902.854	13544
902.973	13559
903.091	13324
903.21	13335
903.328	13316
903.446	13168
903.565	13129
903.683	13232
903.801	13069
903.919	13103
904.038	13168
904.156	12962
904.274	13084
904.392	12958
904.51	13000
904.627	12958
904.745	13046
904.863	12924
904.981	12791
905.098	12692
905.216	12776
905.334	12646
905.451	12760
905.569	12677
905.686	12646
905.803	12726
905.921	12445
906.038	12551
906.155	12528
906.272	12471
906.389	12498
906.506	12239
906.623	12338
906.74	12273
906.857	12102
906.974	12190
907.091	12346
907.208	12407
907.324	12296
907.441	12175
907.557	11965
907.674	12053
907.79	11897
907.907	11897
908.023	12053
908.139	12053
908.256	12022
908.372	11874
908.488	11878
908.604	11805
908.72	11733
908.836	11718
908.952	11802
909.068	11859
909.184	11958
909.3	11786
909.415	11821
909.531	11707
909.647	11558
909.762	11573
909.878	11581
909.993	11600
910.108	11604
910.224	11539
910.339	11543
910.454	11452
910.57	11452
910.685	11341
910.8	11653
910.915	11493
911.03	11455
911.145	11250
911.259	11231
911.374	11178
911.489	11056
911.604	11105
911.718	11003
911.833	11079
911.947	10942
912.062	10858
912.176	10965
912.291	10972
912.405	10953
912.519	11162
912.633	11151
912.748	11083
912.862	11029
912.976	10831
913.09	10809
913.204	10805
913.318	10858
913.431	11010
913.545	10934
913.659	11014
913.772	10900
913.886	10801
914	10744
914.113	10809
914.226	10873
914.34	10881
914.453	10679
914.566	10786
914.68	10710
914.793	10637
914.906	10531
915.019	10428
915.132	10516
915.245	10478
915.358	10523
915.47	10474
915.583	10546
915.696	10577
915.809	10679
915.921	10653
916.034	10493
916.146	10421
916.259	10455
916.371	10516
916.483	10512
916.595	10485
916.708	10470
916.82	10440
916.932	10386
917.044	10325
917.156	10348
917.268	10287
917.38	10272
917.491	10333
917.603	10382
917.715	10428
917.826	10413
917.938	10234
918.049	10196
918.161	10348
918.272	10500
918.384	10470
918.495	10299
918.606	10196
918.717	10090
918.828	10234
918.939	10192
919.05	10150
919.161	10200
919.272	10002
919.383	10124
919.494	10215
919.604	10455
919.715	10196
919.826	10101
919.936	10154
920.047	10306
920.157	10238
920.267	10394
920.378	10341
920.488	10128
920.598	10493
920.708	10626
920.818	10443
920.928	10432
921.038	10584
921.148	10542
921.258	10200
921.368	10139
921.477	10074
921.587	10101
921.697	10002
921.806	10173
921.916	10010
922.025	9789
922.134	9808
922.244	9667
922.353	9789
922.462	9652
922.571	9538
922.68	9526
922.789	9507
922.898	9469
923.007	9504
923.116	9511
923.224	9530
923.333	9534
923.442	9367
923.55	9386
923.659	9332
923.767	9370
923.876	9351
923.984	9389
924.092	9310
924.201	9264
924.309	9355
924.417	9420
924.525	9336
924.633	9310
924.741	10238
924.849	9108
924.956	9222
925.064	9154
925.172	9127
925.279	9135
925.387	9173
925.494	9127
925.602	9291
925.709	9173
925.816	9089
925.924	9085
926.031	9264
926.138	9138
926.245	9173
926.352	9001
926.459	9237
926.566	9203
926.673	9058
926.779	8975
926.886	9017
926.993	8815
927.099	8857
927.206	8876
927.312	8807
927.419	8895
927.525	8872
927.631	8902
927.737	8785
927.843	8686
927.95	8708
928.056	8659
928.162	8731
928.267	8731
928.373	9439
928.479	8838
928.585	8594
928.69	8750
928.796	8758
928.901	8720
929.007	8526
929.112	8708
929.218	8697
929.323	8670
929.428	8560
929.533	8670
929.638	8571
929.743	8579
929.848	8594
929.953	8545
930.058	8507
930.163	8301
930.267	8324
930.372	8476
930.477	8305
930.581	8514
930.685	8408
930.79	8298
930.894	8332
930.998	8259
931.103	8393
931.207	8111
931.311	7978
931.415	7932
931.519	7807
931.623	7734
