Data from test_V78500241_3611.txt Node
Date: Fri Mar 25 14:58:51 CST 2022
User: usil
Spectrometer: V785-0024
Trigger mode: 0
Integration Time (sec): 4.000000E-1
Scans to average: 1
Nonlinearity correction enabled: false
Boxcar width: 0
Storing dark spectrum: false
XAxis mode: Wavelengths
Number of Pixels in Spectrum: 1024
>>>>>Begin Spectral Data<<<<<
801.071	21922
801.214	21785
801.356	21534
801.499	21549
801.641	21393
801.783	21310
801.926	21332
802.068	21275
802.211	21222
802.353	21173
802.496	20937
802.638	20792
802.78	20819
802.923	20625
803.065	20526
803.208	20537
803.35	20701
803.492	20636
803.635	20648
803.777	20564
803.919	20651
804.061	20960
804.204	20655
804.346	20590
804.488	20385
804.63	20465
804.773	20408
804.915	20495
805.057	20571
805.199	20549
805.341	20526
805.483	20644
805.626	20514
805.768	20423
805.91	20503
806.052	20522
806.194	20507
806.336	20556
806.478	20442
806.62	20465
806.762	20503
806.904	20678
807.046	20971
807.188	20743
807.33	20762
807.472	20906
807.614	20697
807.756	20861
807.898	20667
808.04	20522
808.182	20495
808.324	20568
808.465	20590
808.607	20788
808.749	20914
808.891	20864
809.033	21009
809.174	20864
809.316	20796
809.458	20906
809.6	20769
809.741	20876
809.883	20998
810.025	20902
810.166	21077
810.308	20975
810.45	20979
810.591	20823
810.733	20659
810.875	20587
811.016	20568
811.158	20560
811.299	20769
811.441	20701
811.582	20750
811.724	20697
811.865	20579
812.007	20492
812.148	20560
812.29	20598
812.431	20823
812.573	20880
812.714	21001
812.855	21123
812.997	21226
813.138	21317
813.279	21154
813.421	21135
813.562	21127
813.703	20868
813.845	20678
813.986	20431
814.127	20298
814.268	20122
814.41	20164
814.551	20069
814.692	20225
814.833	20069
814.974	20081
815.115	20161
815.256	20035
815.397	20027
815.539	19947
815.68	19791
815.821	19830
815.962	19928
816.103	19769
816.244	19723
816.385	19624
816.526	19559
816.666	19400
816.807	19274
816.948	19373
817.089	19392
817.23	19422
817.371	19396
817.512	19422
817.653	19259
817.793	19225
817.934	19263
818.075	19297
818.216	19209
818.356	19152
818.497	19061
818.638	18901
818.778	19023
818.919	18962
819.06	18871
819.2	19118
819.341	19190
819.481	19171
819.622	19343
819.762	19381
819.903	19377
820.043	19312
820.184	19240
820.324	19228
820.465	19263
820.605	19259
820.746	19232
820.886	19168
821.026	19232
821.167	19217
821.307	19308
821.447	19251
821.588	19164
821.728	18882
821.868	18863
822.008	18665
822.149	18730
822.289	18734
822.429	18391
822.569	18357
822.709	18338
822.849	18220
822.99	18117
823.13	18038
823.27	18087
823.41	18049
823.55	17908
823.69	17988
823.83	18015
823.97	17885
824.11	17851
824.25	17752
824.389	17767
824.529	17760
824.669	17726
824.809	17851
824.949	17745
825.089	17821
825.228	17733
825.368	17554
825.508	17642
825.648	17474
825.787	17543
825.927	17657
826.067	17414
826.206	17448
826.346	17615
826.485	17520
826.625	17528
826.765	17687
826.904	17452
827.044	17303
827.183	17204
827.323	17307
827.462	17330
827.601	17178
827.741	17197
827.88	17261
828.02	17178
828.159	17216
828.298	17227
828.437	17315
828.577	17170
828.716	17341
828.855	17170
828.994	17041
829.134	16965
829.273	17033
829.412	16961
829.551	16873
829.69	16942
829.829	17025
829.968	17003
830.107	16991
830.246	16957
830.385	16889
830.524	16934
830.663	16850
830.802	16573
830.941	16694
831.08	16565
831.219	16656
831.357	16660
831.496	16839
831.635	16630
831.774	16519
831.913	16523
832.051	16421
832.19	16371
832.329	16485
832.467	16352
832.606	16291
832.744	16306
832.883	16192
833.022	16303
833.16	16371
833.299	16299
833.437	16352
833.576	16356
833.714	16409
833.852	16360
833.991	16375
834.129	16394
834.267	16523
834.406	16291
834.544	16421
834.682	16428
834.821	16314
834.959	16500
835.097	16303
835.235	16443
835.373	16360
835.511	16386
835.65	16246
835.788	16249
835.926	16139
836.064	16006
836.202	16074
836.34	16272
836.478	16375
836.615	16173
836.753	16291
836.891	16375
837.029	16314
837.167	16219
837.305	16135
837.443	16207
837.58	16226
837.718	16150
837.856	16154
837.993	16090
838.131	16128
838.269	16063
838.406	16006
838.544	15994
838.681	15926
838.819	15755
838.956	15694
839.094	15614
839.231	15698
839.369	15842
839.506	16078
839.643	15953
839.781	15842
839.918	15667
840.055	15686
840.193	15751
840.33	15622
840.467	15671
840.604	15652
840.742	15880
840.879	15663
841.016	15618
841.153	15599
841.29	15869
841.427	15774
841.564	15728
841.701	15728
841.838	15644
841.975	15625
842.112	15633
842.249	15504
842.385	15500
842.522	15660
842.659	15485
842.796	15447
842.933	15473
843.069	15466
843.206	15428
843.343	15500
843.479	15454
843.616	15504
843.752	15332
843.889	15386
844.025	15435
844.162	15241
844.298	15416
844.435	15260
844.571	15222
844.708	15344
844.844	15462
844.98	15355
845.117	15439
845.253	15264
845.389	15135
845.525	15176
845.661	15161
845.798	15047
845.934	15036
846.07	15017
846.206	15161
846.342	15154
846.478	15020
846.614	14914
846.75	14944
846.886	14819
847.022	14956
847.158	14925
847.294	14804
847.429	14876
847.565	14902
847.701	15093
847.837	14636
847.972	14587
848.108	14659
848.244	14689
848.379	14457
848.515	14587
848.65	14370
848.786	14381
848.921	14434
849.057	14655
849.192	14427
849.328	14469
849.463	14446
849.598	14412
849.734	14454
849.869	14370
850.004	14286
850.14	14225
850.275	14339
850.41	14214
850.545	14157
850.68	14286
850.815	14320
850.95	14248
851.085	14358
851.22	14351
851.355	14263
851.49	14149
851.625	14123
851.76	14256
851.895	14164
852.03	14065
852.165	14134
852.299	14313
852.434	14301
852.569	14317
852.703	14199
852.838	14320
852.973	14431
853.107	14278
853.242	14214
853.376	14054
853.511	14005
853.645	14065
853.78	14237
853.914	14031
854.048	13959
854.183	14073
854.317	14092
854.451	14221
854.585	14005
854.72	14126
854.854	14164
854.988	14020
855.122	14054
855.256	13921
855.39	14119
855.524	14172
855.658	14096
855.792	14062
855.926	14210
856.06	14069
856.194	14221
856.327	14138
856.461	14062
856.595	14119
856.729	14081
856.862	14244
856.996	14058
857.13	14126
857.263	14263
857.397	14248
857.53	14027
857.664	14187
857.797	14168
857.931	14168
858.064	14183
858.197	14320
858.331	14069
858.464	13989
858.597	14012
858.731	14119
858.864	14084
858.997	14039
859.13	14180
859.263	14134
859.396	14191
859.529	14134
859.662	13997
859.795	14050
859.928	14195
860.061	14221
860.194	14278
860.327	14138
860.46	14065
860.592	14233
860.725	14294
860.858	14237
860.99	14069
861.123	13978
861.256	14012
861.388	14119
861.521	14990
861.653	13860
861.786	13921
861.918	14012
862.05	13947
862.183	14145
862.315	14126
862.447	14176
862.58	14020
862.712	13917
862.844	13814
862.976	14005
863.108	13917
863.24	14256
863.372	13818
863.504	13845
863.636	13902
863.768	13871
863.9	13902
864.032	13864
864.164	13894
864.296	13909
864.428	13951
864.559	13928
864.691	14054
864.823	13936
864.954	13917
865.086	13898
865.217	13925
865.349	13887
865.48	13909
865.612	13871
865.743	14111
865.875	13898
866.006	13871
866.137	13852
866.269	13947
866.4	13769
866.531	13887
866.662	13875
866.793	13833
866.924	13849
867.055	13917
867.186	13959
867.317	13799
867.448	13757
867.579	13822
867.71	13795
867.841	13746
867.972	13841
868.103	13955
868.233	13925
868.364	13795
868.495	13868
868.625	14058
868.756	14176
868.886	14081
869.017	14084
869.147	14187
869.278	14187
869.408	14202
869.539	14126
869.669	14195
869.799	14138
869.929	14233
870.06	14240
870.19	14484
870.32	14476
870.45	14415
870.58	14503
870.71	14648
870.84	14602
870.97	14442
871.1	14541
871.23	14640
871.36	14769
871.489	14579
871.619	14678
871.749	14712
871.879	14823
872.008	14754
872.138	14663
872.267	14583
872.397	14469
872.526	14492
872.656	14537
872.785	14613
872.915	14651
873.044	14853
873.173	14769
873.303	14891
873.432	14746
873.561	14864
873.69	14834
873.819	14754
873.948	14796
874.077	14876
874.206	14648
874.335	14682
874.464	14979
874.593	15024
874.722	15055
874.851	15093
874.979	15135
875.108	15180
875.237	15089
875.365	15039
875.494	15062
875.623	15176
875.751	15039
875.88	15195
876.008	15279
876.136	15393
876.265	15462
876.393	15637
876.521	15606
876.65	15644
876.778	15530
876.906	15523
877.034	15370
877.162	15428
877.29	15431
877.418	15534
877.546	15542
877.674	15515
877.802	15580
877.93	15450
878.058	15454
878.185	15340
878.313	15622
878.441	15504
878.568	15424
878.696	15473
878.824	15454
878.951	15561
879.079	15648
879.206	15846
879.333	15682
879.461	15606
879.588	15473
879.715	15660
879.842	15823
879.97	15477
880.097	15317
880.224	15359
880.351	15405
880.478	15287
880.605	15268
880.732	15249
880.859	15553
880.986	15454
881.112	15450
881.239	15336
881.366	15249
881.493	15066
881.619	14906
881.746	15036
881.872	14994
881.999	14998
882.125	15013
882.252	15024
882.378	15074
882.505	15154
882.631	15028
882.757	14842
882.883	14902
883.01	14872
883.136	14804
883.262	14655
883.388	14743
883.514	14845
883.64	14807
883.766	14765
883.892	14735
884.018	14727
884.143	14800
884.269	14933
884.395	14613
884.52	14503
884.646	14552
884.772	14495
884.897	14351
885.023	14575
885.148	14556
885.274	14743
885.399	14667
885.524	14446
885.65	14583
885.775	14503
885.9	14564
886.025	14708
886.15	14682
886.275	14495
886.4	14480
886.525	14602
886.65	14549
886.775	14476
886.9	14632
887.025	14739
887.149	14575
887.274	14377
887.399	14347
887.523	14271
887.648	14275
887.773	14244
887.897	14488
888.021	14465
888.146	14355
888.27	14469
888.395	14552
888.519	14507
888.643	14465
888.767	14404
888.891	14324
889.015	14176
889.139	14259
889.263	14183
889.387	14419
889.511	14389
889.635	14404
889.759	14210
889.883	14237
890.006	14317
890.13	14347
890.254	14164
890.377	14240
890.501	14020
890.624	13921
890.748	14111
890.871	13959
890.995	13955
891.118	13864
891.241	13959
891.364	13978
891.488	14016
891.611	13989
891.734	13932
891.857	13997
891.98	14001
892.103	14001
892.226	13978
892.349	13928
892.471	13788
892.594	13925
892.717	13978
892.839	13970
892.962	13932
893.085	14046
893.207	14016
893.33	13833
893.452	13818
893.575	14031
893.697	13875
893.819	14130
893.941	14195
894.064	14153
894.186	13944
894.308	13932
894.43	14100
894.552	14153
894.674	14164
894.796	14027
894.918	14046
895.04	14100
895.161	14062
895.283	14115
895.405	14039
895.526	14050
895.648	14138
895.769	14069
895.891	14065
896.012	14176
896.134	14176
896.255	14092
896.376	14199
896.498	14153
896.619	14199
896.74	14123
896.861	14256
896.982	14541
897.103	14678
897.224	14530
897.345	14271
897.466	14313
897.587	14313
897.708	14545
897.828	14446
897.949	14415
898.07	14313
898.19	14389
898.311	14530
898.431	14305
898.552	14442
898.672	14484
898.792	14526
898.913	14541
899.033	14412
899.153	14389
899.273	14202
899.393	14294
899.513	14389
899.633	14320
899.753	14324
899.873	14301
899.993	14358
900.113	14431
900.232	14419
900.352	14336
900.472	14252
900.591	14229
900.711	14240
900.83	14161
900.95	14233
901.069	14389
901.189	14100
901.308	14027
901.427	13738
901.546	13883
901.665	13970
901.784	13940
901.904	13788
902.023	13727
902.141	13510
902.26	13434
902.379	13495
902.498	13400
902.617	13369
902.735	13499
902.854	13438
902.973	13304
903.091	13190
903.21	13107
903.328	13099
903.446	13015
903.565	13000
903.683	12981
903.801	12897
903.919	12985
904.038	13050
904.156	12764
904.274	12840
904.392	12890
904.51	12783
904.627	12738
904.745	12901
904.863	12894
904.981	12635
905.098	12464
905.216	12525
905.334	12639
905.451	12490
905.569	12376
905.686	12696
905.803	12471
905.921	12376
906.038	12525
906.155	12475
906.272	12266
906.389	12289
906.506	12235
906.623	12117
906.74	12064
906.857	12019
906.974	12022
907.091	12194
907.208	12270
907.324	12155
907.441	11988
907.557	11885
907.674	11809
907.79	11783
907.907	11863
908.023	11920
908.139	11927
908.256	11805
908.372	11821
908.488	11794
908.604	11672
908.72	11592
908.836	11627
908.952	11551
909.068	11596
909.184	11775
909.3	11577
909.415	11649
909.531	11630
909.647	11524
909.762	11353
909.878	11368
909.993	11436
910.108	11436
910.224	11395
910.339	11436
910.454	11269
910.57	11284
910.685	11269
910.8	11459
910.915	11429
911.03	11330
911.145	11056
911.259	11075
911.374	11117
911.489	11083
911.604	11052
911.718	10930
911.833	10938
911.947	10706
912.062	10637
912.176	10854
912.291	10896
912.405	10835
912.519	11022
912.633	11056
912.748	10900
912.862	10896
912.976	10771
913.09	10649
913.204	10668
913.318	10763
913.431	10889
913.545	10831
913.659	10831
913.772	10881
913.886	10672
914	10611
914.113	10607
914.226	10786
914.34	10782
914.453	10569
914.566	10698
914.68	10626
914.793	10660
914.906	10375
915.019	10306
915.132	10344
915.245	10352
915.358	10386
915.47	10428
915.583	10428
915.696	10390
915.809	10497
915.921	10512
916.034	10284
916.146	10348
916.259	10318
916.371	10428
916.483	10428
916.595	10352
916.708	10303
916.82	10291
916.932	10333
917.044	10329
917.156	10291
917.268	10177
917.38	10207
917.491	10215
917.603	10249
917.715	10230
917.826	10291
917.938	10162
918.049	10078
918.161	10215
918.272	10360
918.384	10314
918.495	10215
918.606	10086
918.717	10105
918.828	10055
918.939	10139
919.05	9968
919.161	10071
919.272	9869
919.383	9983
919.494	10177
919.604	10390
919.715	10166
919.826	10036
919.936	10071
920.047	10280
920.157	10162
920.267	10356
920.378	10185
920.488	10128
920.598	10253
920.708	10478
920.818	10185
920.928	10322
921.038	10474
921.148	10500
921.258	10230
921.368	10055
921.477	9991
921.587	9987
921.697	9842
921.806	10017
921.916	9934
922.025	9701
922.134	9648
922.244	9660
922.353	9732
922.462	9591
922.571	9450
922.68	9348
922.789	9245
922.898	9389
923.007	9317
923.116	9336
923.224	9329
923.333	9332
923.442	9256
923.55	9272
923.659	9321
923.767	9348
923.876	9218
923.984	9359
924.092	9138
924.201	9260
924.309	9287
924.417	9279
924.525	9188
924.633	9222
924.741	10010
924.849	9017
924.956	9260
925.064	8986
925.172	8952
925.279	8982
925.387	9020
925.494	9066
925.602	9135
925.709	9192
925.816	8963
925.924	9036
926.031	9116
926.138	9001
926.245	9142
926.352	8971
926.459	9131
926.566	9074
926.673	8971
926.779	8861
926.886	8975
926.993	8758
927.099	8644
927.206	8701
927.312	8746
927.419	8804
927.525	8792
927.631	8811
927.737	8636
927.843	8617
927.95	8545
928.056	8636
928.162	8629
928.267	8766
928.373	9180
928.479	8781
928.585	8461
928.69	8712
928.796	8682
928.901	8568
929.007	8385
929.112	8492
929.218	8571
929.323	8503
929.428	8511
929.533	8594
929.638	8446
929.743	8454
929.848	8476
929.953	8438
930.058	8431
930.163	8218
930.267	8256
930.372	8385
930.477	8240
930.581	8419
930.685	8309
930.79	8130
930.894	8176
930.998	8164
931.103	8324
931.207	7951
931.311	7917
931.415	7875
931.519	7662
931.623	7658
