Data from test_V78500241_2960.txt Node
Date: Fri Mar 25 14:54:19 CST 2022
User: usil
Spectrometer: V785-0024
Trigger mode: 0
Integration Time (sec): 4.000000E-1
Scans to average: 1
Nonlinearity correction enabled: false
Boxcar width: 0
Storing dark spectrum: false
XAxis mode: Wavelengths
Number of Pixels in Spectrum: 1024
>>>>>Begin Spectral Data<<<<<
801.071	22086
801.214	21975
801.356	21686
801.499	21614
801.641	21389
801.783	21431
801.926	21492
802.068	21450
802.211	21363
802.353	21279
802.496	21116
802.638	21001
802.78	21009
802.923	20944
803.065	20750
803.208	20899
803.35	20815
803.492	20910
803.635	21005
803.777	20815
803.919	20914
804.061	21226
804.204	20819
804.346	20823
804.488	20708
804.63	20861
804.773	20678
804.915	20773
805.057	20800
805.199	20678
805.341	20861
805.483	20849
805.626	20712
805.768	20659
805.91	20750
806.052	20705
806.194	20746
806.336	20792
806.478	20743
806.62	20663
806.762	20823
806.904	20788
807.046	21093
807.188	21085
807.33	20986
807.472	21150
807.614	20933
807.756	20979
807.898	20887
808.04	20716
808.182	20830
808.324	20823
808.465	20853
808.607	20998
808.749	21112
808.891	21173
809.033	21260
809.174	21142
809.316	21127
809.458	21154
809.6	21230
809.741	21199
809.883	21146
810.025	21214
810.166	21260
810.308	21268
810.45	21348
810.591	21089
810.733	21001
810.875	20830
811.016	20807
811.158	20746
811.299	20956
811.441	21066
811.582	20967
811.724	20823
811.865	20785
812.007	20830
812.148	20857
812.29	20933
812.431	20982
812.573	21074
812.714	21332
812.855	21348
812.997	21317
813.138	21622
813.279	21443
813.421	21332
813.562	21207
813.703	21138
813.845	21039
813.986	20701
814.127	20541
814.268	20480
814.41	20530
814.551	20488
814.692	20454
814.833	20339
814.974	20339
815.115	20412
815.256	20374
815.397	20286
815.539	20244
815.68	20221
815.821	20088
815.962	20145
816.103	20115
816.244	19967
816.385	19974
816.526	19807
816.666	19651
816.807	19445
816.948	19643
817.089	19632
817.23	19613
817.371	19502
817.512	19510
817.653	19525
817.793	19392
817.934	19548
818.075	19658
818.216	19552
818.356	19411
818.497	19324
818.638	19217
818.778	19244
818.919	19274
819.06	19255
819.2	19297
819.341	19289
819.481	19339
819.622	19605
819.762	19780
819.903	19548
820.043	19590
820.184	19514
820.324	19415
820.465	19556
820.605	19480
820.746	19476
820.886	19320
821.026	19453
821.167	19457
821.307	19506
821.447	19445
821.588	19346
821.728	19259
821.868	19126
822.008	18958
822.149	18901
822.289	18867
822.429	18681
822.569	18650
822.709	18616
822.849	18471
822.99	18437
823.13	18448
823.27	18380
823.41	18216
823.55	18254
823.69	18254
823.83	18266
823.97	18087
824.11	18022
824.25	17992
824.389	17950
824.529	18022
824.669	18019
824.809	18019
824.949	18110
825.089	18045
825.228	17969
825.368	17882
825.508	17817
825.648	17824
825.787	17741
825.927	17805
826.067	17748
826.206	17668
826.346	17783
826.485	17737
826.625	17661
826.765	17912
826.904	17642
827.044	17444
827.183	17577
827.323	17341
827.462	17509
827.601	17512
827.741	17539
827.88	17493
828.02	17337
828.159	17383
828.298	17520
828.437	17535
828.577	17421
828.716	17539
828.855	17376
828.994	17185
829.134	17181
829.273	17254
829.412	17277
829.551	17113
829.69	17098
829.829	17250
829.968	17239
830.107	17334
830.246	17250
830.385	17086
830.524	17052
830.663	17022
830.802	16847
830.941	16869
831.08	16694
831.219	16850
831.357	16729
831.496	17006
831.635	16725
831.774	16618
831.913	16717
832.051	16596
832.19	16577
832.329	16645
832.467	16588
832.606	16462
832.744	16424
832.883	16493
833.022	16405
833.16	16523
833.299	16649
833.437	16474
833.576	16599
833.714	16497
833.852	16584
833.991	16645
834.129	16561
834.267	16607
834.406	16516
834.544	16519
834.682	16592
834.821	16580
834.959	16710
835.097	16512
835.235	16596
835.373	16569
835.511	16519
835.65	16489
835.788	16447
835.926	16299
836.064	16242
836.202	16272
836.34	16371
836.478	16519
836.615	16417
836.753	16523
836.891	16485
837.029	16451
837.167	16333
837.305	16329
837.443	16333
837.58	16325
837.718	16413
837.856	16371
837.993	16166
838.131	16382
838.269	16261
838.406	16371
838.544	16226
838.681	16002
838.819	15956
838.956	15949
839.094	15835
839.231	15865
839.369	16093
839.506	16299
839.643	16093
839.781	15895
839.918	15751
840.055	15838
840.193	15766
840.33	15884
840.467	15789
840.604	15850
840.742	16071
840.879	15778
841.016	15739
841.153	15701
841.29	15922
841.427	15819
841.564	15835
841.701	15816
841.838	15774
841.975	15736
842.112	15888
842.249	15641
842.385	15595
842.522	15823
842.659	15587
842.796	15652
842.933	15587
843.069	15641
843.206	15530
843.343	15705
843.479	15599
843.616	15682
843.752	15454
843.889	15405
844.025	15671
844.162	15431
844.298	15412
844.435	15420
844.571	15287
844.708	15454
844.844	15500
844.98	15622
845.117	15538
845.253	15382
845.389	15340
845.525	15298
845.661	15344
845.798	15214
845.934	15199
846.07	15233
846.206	15146
846.342	15378
846.478	15211
846.614	15062
846.75	14891
846.886	14948
847.022	15062
847.158	15043
847.294	14982
847.429	15119
847.565	15081
847.701	15188
847.837	14769
847.972	14632
848.108	14849
848.244	14754
848.379	14678
848.515	14568
848.65	14571
848.786	14549
848.921	14590
849.057	14648
849.192	14632
849.328	14617
849.463	14590
849.598	14526
849.734	14461
849.869	14454
850.004	14324
850.14	14362
850.275	14389
850.41	14324
850.545	14347
850.68	14313
850.815	14450
850.95	14328
851.085	14552
851.22	14438
851.355	14442
851.49	14233
851.625	14252
851.76	14275
851.895	14142
852.03	14221
852.165	14324
852.299	14362
852.434	14320
852.569	14252
852.703	14404
852.838	14480
852.973	14575
853.107	14286
853.242	14313
853.376	14309
853.511	14043
853.645	14199
853.78	14358
853.914	14168
854.048	14214
854.183	14180
854.317	14199
854.451	14332
854.585	14115
854.72	14130
854.854	14339
854.988	14111
855.122	14153
855.256	14054
855.39	14199
855.524	14313
855.658	14298
855.792	14202
855.926	14313
856.06	14339
856.194	14267
856.327	14199
856.461	14206
856.595	14145
856.729	14210
856.862	14355
856.996	14275
857.13	14172
857.263	14176
857.397	14374
857.53	14294
857.664	14278
857.797	14336
857.931	14298
858.064	14153
858.197	14351
858.331	14191
858.464	14153
858.597	14073
858.731	14263
858.864	14176
858.997	14199
859.13	14145
859.263	14267
859.396	14248
859.529	14164
859.662	14134
859.795	14202
859.928	14202
860.061	14278
860.194	14358
860.327	14317
860.46	14180
860.592	14271
860.725	14332
860.858	14324
860.99	14210
861.123	14145
861.256	14119
861.388	14202
861.521	14883
861.653	14107
861.786	14100
861.918	14050
862.05	14069
862.183	14100
862.315	14202
862.447	14320
862.58	14244
862.712	14039
862.844	13940
862.976	14096
863.108	14046
863.24	14336
863.372	13944
863.504	13947
863.636	14024
863.768	14016
863.9	13989
864.032	13936
864.164	13932
864.296	14092
864.428	14096
864.559	14069
864.691	14130
864.823	14012
864.954	13974
865.086	14065
865.217	13986
865.349	13906
865.48	13925
865.612	13982
865.743	14157
865.875	13947
866.006	13932
866.137	14008
866.269	14050
866.4	13947
866.531	13845
866.662	13822
866.793	13928
866.924	13989
867.055	13936
867.186	13925
867.317	13944
867.448	13868
867.579	13951
867.71	13875
867.841	13822
867.972	14027
868.103	13944
868.233	14008
868.364	14012
868.495	13986
868.625	14214
868.756	14259
868.886	14172
869.017	14221
869.147	14358
869.278	14271
869.408	14195
869.539	14290
869.669	14301
869.799	14221
869.929	14336
870.06	14362
870.19	14598
870.32	14499
870.45	14590
870.58	14678
870.71	14659
870.84	14781
870.97	14746
871.1	14587
871.23	14845
871.36	14769
871.489	14705
871.619	14777
871.749	14811
871.879	14807
872.008	15024
872.138	14834
872.267	14769
872.397	14625
872.526	14667
872.656	14670
872.785	14674
872.915	14800
873.044	14842
873.173	14853
873.303	14826
873.432	14910
873.561	14838
873.69	14948
873.819	14906
873.948	14891
874.077	14986
874.206	14876
874.335	14853
874.464	14952
874.593	15146
874.722	15169
874.851	15157
874.979	15173
875.108	15241
875.237	15154
875.365	15093
875.494	15214
875.623	15260
875.751	15195
875.88	15192
876.008	15233
876.136	15351
876.265	15603
876.393	15793
876.521	15675
876.65	15618
876.778	15618
876.906	15610
877.034	15515
877.162	15496
877.29	15492
877.418	15663
877.546	15663
877.674	15576
877.802	15644
877.93	15488
878.058	15610
878.185	15488
878.313	15538
878.441	15545
878.568	15443
878.696	15511
878.824	15618
878.951	15652
879.079	15819
879.206	15842
879.333	15682
879.461	15610
879.588	15682
879.715	15762
879.842	15873
879.97	15774
880.097	15488
880.224	15492
880.351	15382
880.478	15504
880.605	15397
880.732	15374
880.859	15622
880.986	15500
881.112	15424
881.239	15485
881.366	15233
881.493	15245
881.619	15100
881.746	15127
881.872	15070
881.999	15119
882.125	15131
882.252	15116
882.378	15192
882.505	15275
882.631	14967
882.757	14918
882.883	15085
883.01	14990
883.136	14853
883.262	14727
883.388	14765
883.514	14960
883.64	14902
883.766	14880
883.892	14678
884.018	14693
884.143	14899
884.269	14975
884.395	14655
884.52	14560
884.646	14602
884.772	14598
884.897	14423
885.023	14579
885.148	14705
885.274	14788
885.399	14792
885.524	14598
885.65	14678
885.775	14579
885.9	14651
886.025	14785
886.15	14750
886.275	14560
886.4	14530
886.525	14602
886.65	14617
886.775	14610
886.9	14632
887.025	14861
887.149	14667
887.274	14461
887.399	14499
887.523	14427
887.648	14339
887.773	14381
887.897	14450
888.021	14556
888.146	14366
888.27	14526
888.395	14598
888.519	14587
888.643	14594
888.767	14507
888.891	14396
889.015	14412
889.139	14328
889.263	14320
889.387	14393
889.511	14499
889.635	14503
889.759	14336
889.883	14237
890.006	14339
890.13	14465
890.254	14225
890.377	14240
890.501	14183
890.624	14123
890.748	14183
890.871	14065
890.995	13928
891.118	14111
891.241	14035
891.364	14020
891.488	14024
891.611	14050
891.734	14024
891.857	14035
891.98	14054
892.103	14115
892.226	14020
892.349	13974
892.471	13822
892.594	14024
892.717	14115
892.839	13928
892.962	14073
893.085	14100
893.207	14024
893.33	13860
893.452	13814
893.575	14058
893.697	13989
893.819	14187
893.941	14164
894.064	14130
894.186	14012
894.308	13894
894.43	14115
894.552	14259
894.674	14168
894.796	14001
894.918	14020
895.04	13993
895.161	14153
895.283	14164
895.405	14088
895.526	14138
895.648	14107
895.769	14183
895.891	14256
896.012	14286
896.134	14278
896.255	14092
896.376	14172
896.498	14172
896.619	14221
896.74	14161
896.861	14233
896.982	14518
897.103	14632
897.224	14488
897.345	14484
897.466	14389
897.587	14473
897.708	14644
897.828	14450
897.949	14473
898.07	14206
898.19	14389
898.311	14564
898.431	14495
898.552	14610
898.672	14648
898.792	14552
898.913	14568
899.033	14503
899.153	14454
899.273	14358
899.393	14362
899.513	14438
899.633	14404
899.753	14339
899.873	14370
899.993	14499
900.113	14408
900.232	14400
900.352	14278
900.472	14275
900.591	14206
900.711	14366
900.83	14278
900.95	14400
901.069	14442
901.189	14221
901.308	14027
901.427	13955
901.546	13982
901.665	14035
901.784	14069
901.904	13769
902.023	13723
902.141	13563
902.26	13521
902.379	13613
902.498	13548
902.617	13472
902.735	13537
902.854	13502
902.973	13559
903.091	13282
903.21	13232
903.328	13377
903.446	13179
903.565	13107
903.683	13088
903.801	13091
903.919	13095
904.038	13034
904.156	12981
904.274	12970
904.392	12970
904.51	12916
904.627	12886
904.745	12958
904.863	13019
904.981	12741
905.098	12650
905.216	12532
905.334	12677
905.451	12639
905.569	12650
905.686	12593
905.803	12635
905.921	12388
906.038	12498
906.155	12426
906.272	12342
906.389	12372
906.506	12159
906.623	12330
906.74	12171
906.857	12060
906.974	12167
907.091	12251
907.208	12388
907.324	12171
907.441	12205
907.557	12011
907.674	11882
907.79	11843
907.907	11901
908.023	11980
908.139	11973
908.256	11912
908.372	11882
908.488	11863
908.604	11718
908.72	11649
908.836	11688
908.952	11657
909.068	11805
909.184	11771
909.3	11661
909.415	11714
909.531	11699
909.647	11486
909.762	11436
909.878	11467
909.993	11478
910.108	11436
910.224	11379
910.339	11478
910.454	11391
910.57	11391
910.685	11334
910.8	11551
910.915	11486
911.03	11368
911.145	11143
911.259	11140
911.374	11136
911.489	11045
911.604	11022
911.718	10885
911.833	10946
911.947	10778
912.062	10736
912.176	10862
912.291	10995
912.405	10949
912.519	11075
912.633	11162
912.748	10999
912.862	10930
912.976	10839
913.09	10683
913.204	10793
913.318	10729
913.431	10908
913.545	10972
913.659	10892
913.772	10816
913.886	10786
914	10672
914.113	10668
914.226	10820
914.34	10725
914.453	10531
914.566	10786
914.68	10599
914.793	10660
914.906	10432
915.019	10390
915.132	10306
915.245	10428
915.358	10474
915.47	10428
915.583	10371
915.696	10466
915.809	10508
915.921	10615
916.034	10333
916.146	10402
916.259	10329
916.371	10538
916.483	10405
916.595	10329
916.708	10299
916.82	10375
916.932	10398
917.044	10329
917.156	10265
917.268	10204
917.38	10272
917.491	10207
917.603	10257
917.715	10405
917.826	10310
917.938	10276
918.049	10109
918.161	10272
918.272	10402
918.384	10379
918.495	10276
918.606	10188
918.717	10097
918.828	10177
918.939	10238
919.05	10048
919.161	10135
919.272	9953
919.383	9987
919.494	10185
919.604	10421
919.715	10185
919.826	10067
919.936	10150
920.047	10223
920.157	10185
920.267	10363
920.378	10238
920.488	10158
920.598	10314
920.708	10493
920.818	10276
920.928	10249
921.038	10497
921.148	10516
921.258	10200
921.368	10139
921.477	9983
921.587	9975
921.697	9884
921.806	10010
921.916	9892
922.025	9762
922.134	9728
922.244	9667
922.353	9736
922.462	9667
922.571	9549
922.68	9466
922.789	9367
922.898	9435
923.007	9329
923.116	9450
923.224	9405
923.333	9359
923.442	9321
923.55	9237
923.659	9351
923.767	9336
923.876	9340
923.984	9370
924.092	9207
924.201	9313
924.309	9264
924.417	9268
924.525	9218
924.633	9287
924.741	10169
924.849	9085
924.956	9180
925.064	9036
925.172	9043
925.279	9081
925.387	9055
925.494	9039
925.602	9230
925.709	9211
925.816	8975
925.924	9066
926.031	9157
926.138	9055
926.245	9119
926.352	9051
926.459	9142
926.566	9260
926.673	9070
926.779	8952
926.886	9001
926.993	8838
927.099	8796
927.206	8842
927.312	8750
927.419	8819
927.525	8750
927.631	8861
927.737	8693
927.843	8697
927.95	8499
928.056	8674
928.162	8758
928.267	8819
928.373	9302
928.479	8830
928.585	8473
928.69	8705
928.796	8724
928.901	8575
929.007	8473
929.112	8686
929.218	8541
929.323	8503
929.428	8518
929.533	8659
929.638	8488
929.743	8457
929.848	8560
929.953	8552
930.058	8476
930.163	8313
930.267	8221
930.372	8396
930.477	8225
930.581	8564
930.685	8339
930.79	8202
930.894	8195
930.998	8218
931.103	8393
931.207	7955
931.311	7921
931.415	7921
931.519	7727
931.623	7704
