Data from test_V78500241_2887.txt Node
Date: Fri Mar 25 14:53:48 CST 2022
User: usil
Spectrometer: V785-0024
Trigger mode: 0
Integration Time (sec): 4.000000E-1
Scans to average: 1
Nonlinearity correction enabled: false
Boxcar width: 0
Storing dark spectrum: false
XAxis mode: Wavelengths
Number of Pixels in Spectrum: 1024
>>>>>Begin Spectral Data<<<<<
801.071	22086
801.214	22013
801.356	21682
801.499	21679
801.641	21534
801.783	21367
801.926	21329
802.068	21336
802.211	21401
802.353	21192
802.496	21127
802.638	20986
802.78	20902
802.923	20845
803.065	20590
803.208	20823
803.35	20804
803.492	20921
803.635	20910
803.777	20868
803.919	20796
804.061	21157
804.204	20872
804.346	20705
804.488	20629
804.63	20701
804.773	20689
804.915	20705
805.057	20708
805.199	20804
805.341	20678
805.483	20777
805.626	20811
805.768	20724
805.91	20689
806.052	20701
806.194	20678
806.336	20758
806.478	20663
806.62	20625
806.762	20716
806.904	20941
807.046	21142
807.188	21017
807.33	20963
807.472	21036
807.614	20895
807.756	20956
807.898	20773
808.04	20750
808.182	20735
808.324	20842
808.465	20811
808.607	21013
808.749	21085
808.891	21131
809.033	21211
809.174	21123
809.316	21096
809.458	21096
809.6	21070
809.741	21154
809.883	21233
810.025	21249
810.166	21214
810.308	21157
810.45	21138
810.591	20941
810.733	21013
810.875	20941
811.016	20838
811.158	20804
811.299	20807
811.441	20891
811.582	20830
811.724	20792
811.865	20845
812.007	20705
812.148	20796
812.29	20838
812.431	20998
812.573	21222
812.714	21199
812.855	21207
812.997	21431
813.138	21530
813.279	21424
813.421	21336
813.562	21161
813.703	21161
813.845	20883
813.986	20670
814.127	20434
814.268	20396
814.41	20465
814.551	20419
814.692	20499
814.833	20259
814.974	20263
815.115	20298
815.256	20202
815.397	20176
815.539	20256
815.68	20161
815.821	20031
815.962	20191
816.103	20138
816.244	20035
816.385	19864
816.526	19715
816.666	19655
816.807	19506
816.948	19594
817.089	19693
817.23	19639
817.371	19529
817.512	19537
817.653	19453
817.793	19426
817.934	19464
818.075	19559
818.216	19499
818.356	19403
818.497	19403
818.638	19202
818.778	19228
818.919	19304
819.06	19255
819.2	19289
819.341	19419
819.481	19354
819.622	19468
819.762	19693
819.903	19575
820.043	19559
820.184	19502
820.324	19502
820.465	19434
820.605	19438
820.746	19415
820.886	19400
821.026	19400
821.167	19396
821.307	19449
821.447	19430
821.588	19202
821.728	19225
821.868	19061
822.008	18947
822.149	18954
822.289	18837
822.429	18631
822.569	18681
822.709	18661
822.849	18357
822.99	18395
823.13	18448
823.27	18201
823.41	18133
823.55	18060
823.69	18228
823.83	18102
823.97	18072
824.11	18022
824.25	17916
824.389	17954
824.529	18034
824.669	17977
824.809	18057
824.949	17984
825.089	17916
825.228	18011
825.368	17874
825.508	17604
825.648	17649
825.787	17733
825.927	17794
826.067	17611
826.206	17684
826.346	17733
826.485	17726
826.625	17760
826.765	17798
826.904	17745
827.044	17497
827.183	17478
827.323	17444
827.462	17448
827.601	17337
827.741	17455
827.88	17421
828.02	17398
828.159	17444
828.298	17509
828.437	17516
828.577	17452
828.716	17509
828.855	17318
828.994	17162
829.134	17121
829.273	17124
829.412	17223
829.551	17162
829.69	17189
829.829	17166
829.968	17273
830.107	17174
830.246	17155
830.385	17018
830.524	16995
830.663	16949
830.802	16957
830.941	16873
831.08	16736
831.219	16885
831.357	16850
831.496	16908
831.635	16824
831.774	16580
831.913	16767
832.051	16573
832.19	16569
832.329	16481
832.467	16527
832.606	16497
832.744	16409
832.883	16428
833.022	16299
833.16	16550
833.299	16512
833.437	16497
833.576	16474
833.714	16481
833.852	16565
833.991	16554
834.129	16637
834.267	16599
834.406	16592
834.544	16440
834.682	16516
834.821	16489
834.959	16675
835.097	16436
835.235	16603
835.373	16542
835.511	16516
835.65	16348
835.788	16428
835.926	16268
836.064	16272
836.202	16306
836.34	16436
836.478	16558
836.615	16337
836.753	16440
836.891	16535
837.029	16409
837.167	16341
837.305	16325
837.443	16310
837.58	16230
837.718	16371
837.856	16344
837.993	16310
838.131	16360
838.269	16230
838.406	16147
838.544	16181
838.681	16055
838.819	16002
838.956	15930
839.094	15793
839.231	15854
839.369	15876
839.506	16223
839.643	16154
839.781	15937
839.918	15804
840.055	15899
840.193	15880
840.33	15747
840.467	15873
840.604	15968
840.742	16036
840.879	15591
841.016	15656
841.153	15781
841.29	15907
841.427	15869
841.564	15793
841.701	15781
841.838	15770
841.975	15709
842.112	15724
842.249	15595
842.385	15648
842.522	15770
842.659	15660
842.796	15538
842.933	15637
843.069	15606
843.206	15648
843.343	15580
843.479	15606
843.616	15709
843.752	15374
843.889	15386
844.025	15526
844.162	15370
844.298	15538
844.435	15355
844.571	15374
844.708	15504
844.844	15576
844.98	15534
845.117	15447
845.253	15359
845.389	15264
845.525	15272
845.661	15374
845.798	15218
845.934	15241
846.07	15127
846.206	15275
846.342	15325
846.478	15176
846.614	14910
846.75	15024
846.886	14960
847.022	15138
847.158	14967
847.294	14921
847.429	15058
847.565	14948
847.701	15154
847.837	14651
847.972	14621
848.108	14868
848.244	14731
848.379	14579
848.515	14556
848.65	14571
848.786	14598
848.921	14606
849.057	14625
849.192	14663
849.328	14610
849.463	14545
849.598	14579
849.734	14526
849.869	14476
850.004	14473
850.14	14446
850.275	14400
850.41	14244
850.545	14301
850.68	14290
850.815	14324
850.95	14339
851.085	14484
851.22	14499
851.355	14412
851.49	14252
851.625	14229
851.76	14244
851.895	14138
852.03	14142
852.165	14320
852.299	14415
852.434	14362
852.569	14427
852.703	14393
852.838	14415
852.973	14347
853.107	14465
853.242	14278
853.376	14351
853.511	14149
853.645	14145
853.78	14355
853.914	14134
854.048	14176
854.183	14210
854.317	14267
854.451	14381
854.585	14199
854.72	14149
854.854	14229
854.988	14001
855.122	14183
855.256	14096
855.39	14130
855.524	14240
855.658	14229
855.792	14259
855.926	14271
856.06	14225
856.194	14305
856.327	14267
856.461	14130
856.595	14164
856.729	14206
856.862	14248
856.996	14271
857.13	14263
857.263	14324
857.397	14415
857.53	14168
857.664	14259
857.797	14286
857.931	14362
858.064	14191
858.197	14347
858.331	14248
858.464	14244
858.597	14206
858.731	14183
858.864	14191
858.997	14138
859.13	14195
859.263	14263
859.396	14301
859.529	14187
859.662	14176
859.795	14221
859.928	14214
860.061	14370
860.194	14381
860.327	14202
860.46	14199
860.592	14328
860.725	14393
860.858	14244
860.99	14161
861.123	14210
861.256	14077
861.388	14240
861.521	14883
861.653	14043
861.786	14027
861.918	14073
862.05	14115
862.183	14126
862.315	14164
862.447	14157
862.58	14145
862.712	14027
862.844	13932
862.976	14001
863.108	14043
863.24	14336
863.372	13917
863.504	14016
863.636	13883
863.768	14031
863.9	13974
864.032	13932
864.164	13936
864.296	13959
864.428	14130
864.559	14103
864.691	13989
864.823	14103
864.954	14001
865.086	14054
865.217	13970
865.349	13860
865.48	13967
865.612	13906
865.743	14111
865.875	14001
866.006	13917
866.137	13906
866.269	13944
866.4	13982
866.531	13967
866.662	13902
866.793	13936
866.924	13932
867.055	14073
867.186	14005
867.317	13887
867.448	13906
867.579	13856
867.71	13921
867.841	13887
867.972	13993
868.103	13917
868.233	13955
868.364	13986
868.495	14039
868.625	14183
868.756	14393
868.886	14126
869.017	14145
869.147	14290
869.278	14309
869.408	14183
869.539	14218
869.669	14286
869.799	14256
869.929	14290
870.06	14358
870.19	14594
870.32	14442
870.45	14606
870.58	14655
870.71	14674
870.84	14754
870.97	14613
871.1	14606
871.23	14796
871.36	14743
871.489	14701
871.619	14826
871.749	14769
871.879	14811
872.008	14910
872.138	14826
872.267	14689
872.397	14739
872.526	14556
872.656	14655
872.785	14598
872.915	14796
873.044	14986
873.173	14838
873.303	14826
873.432	14979
873.561	14914
873.69	14842
873.819	14914
873.948	14853
874.077	14872
874.206	14834
874.335	14815
874.464	14979
874.593	15207
874.722	15043
874.851	15169
874.979	15089
875.108	15214
875.237	15066
875.365	15077
875.494	15195
875.623	15161
875.751	15260
875.88	15207
876.008	15321
876.136	15420
876.265	15526
876.393	15747
876.521	15652
876.65	15694
876.778	15599
876.906	15511
877.034	15564
877.162	15641
877.29	15591
877.418	15629
877.546	15637
877.674	15656
877.802	15576
877.93	15576
878.058	15523
878.185	15469
878.313	15591
878.441	15584
878.568	15367
878.696	15545
878.824	15610
878.951	15595
879.079	15831
879.206	15945
879.333	15736
879.461	15682
879.588	15584
879.715	15724
879.842	15945
879.97	15641
880.097	15511
880.224	15287
880.351	15393
880.478	15549
880.605	15393
880.732	15408
880.859	15698
880.986	15481
881.112	15477
881.239	15332
881.366	15222
881.493	15161
881.619	15165
881.746	15192
881.872	15108
881.999	15131
882.125	15089
882.252	15062
882.378	15142
882.505	15351
882.631	15150
882.757	14971
882.883	14956
883.01	14834
883.136	14815
883.262	14815
883.388	14746
883.514	15062
883.64	14975
883.766	14967
883.892	14712
884.018	14765
884.143	14887
884.269	14883
884.395	14629
884.52	14625
884.646	14575
884.772	14518
884.897	14480
885.023	14625
885.148	14678
885.274	14765
885.399	14697
885.524	14587
885.65	14621
885.775	14640
885.9	14621
886.025	14773
886.15	14648
886.275	14552
886.4	14590
886.525	14594
886.65	14556
886.775	14488
886.9	14667
887.025	14876
887.149	14636
887.274	14450
887.399	14385
887.523	14404
887.648	14484
887.773	14457
887.897	14476
888.021	14530
888.146	14374
888.27	14625
888.395	14556
888.519	14488
888.643	14564
888.767	14533
888.891	14393
889.015	14271
889.139	14374
889.263	14282
889.387	14495
889.511	14423
889.635	14415
889.759	14317
889.883	14355
890.006	14355
890.13	14499
890.254	14248
890.377	14248
890.501	14164
890.624	14092
890.748	14183
890.871	14020
890.995	13978
891.118	14001
891.241	14077
891.364	14001
891.488	14168
891.611	14130
891.734	14046
891.857	14062
891.98	14005
892.103	14027
892.226	14073
892.349	13925
892.471	13860
892.594	13890
892.717	14031
892.839	13970
892.962	14088
893.085	14138
893.207	14020
893.33	13986
893.452	14031
893.575	14176
893.697	13986
893.819	14126
893.941	14248
894.064	14187
894.186	13944
894.308	13879
894.43	14130
894.552	14286
894.674	14191
894.796	14050
894.918	14073
895.04	14043
895.161	14134
895.283	14149
895.405	14001
895.526	14134
895.648	14164
895.769	14237
895.891	14176
896.012	14320
896.134	14263
896.255	14172
896.376	14168
896.498	14111
896.619	14278
896.74	14256
896.861	14206
896.982	14560
897.103	14644
897.224	14457
897.345	14469
897.466	14431
897.587	14549
897.708	14514
897.828	14492
897.949	14438
898.07	14248
898.19	14518
898.311	14648
898.431	14511
898.552	14530
898.672	14610
898.792	14651
898.913	14533
899.033	14465
899.153	14438
899.273	14320
899.393	14377
899.513	14412
899.633	14454
899.753	14530
899.873	14461
899.993	14560
900.113	14385
900.232	14552
900.352	14393
900.472	14366
900.591	14252
900.711	14218
900.83	14153
900.95	14404
901.069	14320
901.189	14294
901.308	14050
901.427	14043
901.546	13974
901.665	13921
901.784	14035
901.904	13849
902.023	13769
902.141	13582
902.26	13487
902.379	13605
902.498	13525
902.617	13449
902.735	13616
902.854	13582
902.973	13400
903.091	13240
903.21	13278
903.328	13217
903.446	13156
903.565	13107
903.683	13133
903.801	12958
903.919	13095
904.038	13137
904.156	12848
904.274	12985
904.392	12867
904.51	12932
904.627	12890
904.745	12913
904.863	12939
904.981	12741
905.098	12597
905.216	12570
905.334	12707
905.451	12616
905.569	12578
905.686	12627
905.803	12681
905.921	12346
906.038	12540
906.155	12369
906.272	12357
906.389	12353
906.506	12232
906.623	12300
906.74	12197
906.857	12072
906.974	12095
907.091	12213
907.208	12323
907.324	12171
907.441	12121
907.557	11984
907.674	11992
907.79	11893
907.907	11935
908.023	11927
908.139	11946
908.256	11874
908.372	11901
908.488	11813
908.604	11741
908.72	11566
908.836	11779
908.952	11657
909.068	11707
909.184	11771
909.3	11688
909.415	11775
909.531	11745
909.647	11455
909.762	11474
909.878	11452
909.993	11497
910.108	11493
910.224	11448
910.339	11459
910.454	11425
910.57	11254
910.685	11296
910.8	11512
910.915	11509
911.03	11440
911.145	11220
911.259	11147
911.374	11079
911.489	11098
911.604	11075
911.718	10919
911.833	11022
911.947	10809
912.062	10843
912.176	10900
912.291	10938
912.405	10889
912.519	11132
912.633	11155
912.748	10965
912.862	10938
912.976	10790
913.09	10668
913.204	10721
913.318	10858
913.431	10889
913.545	10881
913.659	10896
913.772	10869
913.886	10714
914	10656
914.113	10854
914.226	10805
914.34	10771
914.453	10641
914.566	10843
914.68	10596
914.793	10588
914.906	10462
915.019	10440
915.132	10451
915.245	10455
915.358	10443
915.47	10478
915.583	10512
915.696	10481
915.809	10580
915.921	10596
916.034	10409
916.146	10386
916.259	10402
916.371	10421
916.483	10451
916.595	10318
916.708	10363
916.82	10348
916.932	10348
917.044	10303
917.156	10348
917.268	10238
917.38	10265
917.491	10234
917.603	10268
917.715	10360
917.826	10348
917.938	10230
918.049	10166
918.161	10284
918.272	10360
918.384	10413
918.495	10287
918.606	10181
918.717	10131
918.828	10090
918.939	10158
919.05	10063
919.161	10097
919.272	9953
919.383	10006
919.494	10181
919.604	10337
919.715	10188
919.826	10078
919.936	10124
920.047	10287
920.157	10211
920.267	10280
920.378	10306
920.488	10105
920.598	10303
920.708	10538
920.818	10428
920.928	10363
921.038	10504
921.148	10565
921.258	10204
921.368	10112
921.477	9975
921.587	10036
921.697	9880
921.806	10059
921.916	9934
922.025	9759
922.134	9785
922.244	9713
922.353	9709
922.462	9606
922.571	9511
922.68	9473
922.789	9325
922.898	9462
923.007	9367
923.116	9473
923.224	9424
923.333	9424
923.442	9287
923.55	9336
923.659	9321
923.767	9389
923.876	9256
923.984	9313
924.092	9195
924.201	9313
924.309	9272
924.417	9283
924.525	9218
924.633	9233
924.741	10139
924.849	9077
924.956	9199
925.064	9020
925.172	8994
925.279	8982
925.387	9127
925.494	9104
925.602	9214
925.709	9260
925.816	9001
925.924	9081
926.031	9127
926.138	9093
926.245	9150
926.352	9013
926.459	9161
926.566	9100
926.673	9020
926.779	8941
926.886	8994
926.993	8857
927.099	8739
927.206	8746
927.312	8693
927.419	8819
927.525	8796
927.631	8941
927.737	8800
927.843	8629
927.95	8556
928.056	8682
928.162	8701
928.267	8785
928.373	9321
928.479	8857
928.585	8507
928.69	8629
928.796	8712
928.901	8621
929.007	8408
929.112	8693
929.218	8571
929.323	8518
929.428	8518
929.533	8636
929.638	8484
929.743	8537
929.848	8583
929.953	8549
930.058	8412
930.163	8267
930.267	8275
930.372	8473
930.477	8259
930.581	8545
930.685	8336
930.79	8229
930.894	8229
930.998	8191
931.103	8336
931.207	8016
931.311	8031
931.415	7921
931.519	7731
931.623	7746
