Data from test_V78500241_236.txt Node
Date: Fri Mar 25 14:35:22 CST 2022
User: usil
Spectrometer: V785-0024
Trigger mode: 0
Integration Time (sec): 4.000000E-1
Scans to average: 1
Nonlinearity correction enabled: false
Boxcar width: 0
Storing dark spectrum: false
XAxis mode: Wavelengths
Number of Pixels in Spectrum: 1024
>>>>>Begin Spectral Data<<<<<
801.071	27686
801.214	27660
801.356	27256
801.499	27214
801.641	27203
801.783	27020
801.926	27214
802.068	27070
802.211	26880
802.353	26944
802.496	26667
802.638	26716
802.78	26712
802.923	26598
803.065	26484
803.208	26651
803.35	26625
803.492	26587
803.635	26811
803.777	26617
803.919	26644
804.061	26925
804.204	26609
804.346	26514
804.488	26545
804.63	26735
804.773	26385
804.915	26617
805.057	26712
805.199	26670
805.341	26815
805.483	26632
805.626	26644
805.768	26514
805.91	26613
806.052	26552
806.194	26545
806.336	26788
806.478	26583
806.62	26663
806.762	26750
806.904	26998
807.046	27195
807.188	27169
807.33	26956
807.472	27123
807.614	27066
807.756	26990
807.898	26834
808.04	26830
808.182	26830
808.324	27093
808.465	27108
808.607	27154
808.749	27378
808.891	27504
809.033	27557
809.174	27424
809.316	27283
809.458	27218
809.6	27249
809.741	27264
809.883	27272
810.025	27313
810.166	27363
810.308	27370
810.45	27351
810.591	27279
810.733	27093
810.875	27100
811.016	27013
811.158	26967
811.299	27135
811.441	27157
811.582	27199
811.724	26990
811.865	26914
812.007	26902
812.148	26925
812.29	27024
812.431	27256
812.573	27237
812.714	27367
812.855	27351
812.997	27682
813.138	27724
813.279	27622
813.421	27538
813.562	27443
813.703	27313
813.845	27154
813.986	26872
814.127	26659
814.268	26644
814.41	26587
814.551	26530
814.692	26712
814.833	26518
814.974	26533
815.115	26598
815.256	26336
815.397	26301
815.539	26309
815.68	26305
815.821	26267
815.962	26473
816.103	26145
816.244	26168
816.385	25966
816.526	26058
816.666	25856
816.807	25788
816.948	25712
817.089	25868
817.23	25658
817.371	25674
817.512	25658
817.653	25780
817.793	25594
817.934	25704
818.075	25765
818.216	25689
818.356	25639
818.497	25453
818.638	25362
818.778	25510
818.919	25403
819.06	25274
819.2	25472
819.341	25609
819.481	25514
819.622	25681
819.762	25921
819.903	25883
820.043	25647
820.184	25616
820.324	25681
820.465	25616
820.605	25597
820.746	25655
820.886	25510
821.026	25434
821.167	25540
821.307	25540
821.447	25518
821.588	25457
821.728	25365
821.868	25065
822.008	25057
822.149	25027
822.289	24992
822.429	24707
822.569	24620
822.709	24654
822.849	24388
822.99	24467
823.13	24486
823.27	24418
823.41	24182
823.55	24106
823.69	24304
823.83	24197
823.97	24216
824.11	24007
824.25	23996
824.389	24049
824.529	24034
824.669	24114
824.809	24163
824.949	24030
825.089	24110
825.228	23935
825.368	23771
825.508	23931
825.648	23859
825.787	23828
825.927	23855
826.067	23771
826.206	23851
826.346	23916
826.485	23927
826.625	23863
826.765	23977
826.904	23771
827.044	23627
827.183	23543
827.323	23627
827.462	23566
827.601	23467
827.741	23433
827.88	23372
828.02	23334
828.159	23528
828.298	23425
828.437	23585
828.577	23364
828.716	23448
828.855	23360
828.994	23220
829.134	23102
829.273	23212
829.412	23113
829.551	23147
829.69	23197
829.829	23208
829.968	23193
830.107	23223
830.246	23197
830.385	23178
830.524	23067
830.663	23044
830.802	22812
830.941	22710
831.08	22618
831.219	22820
831.357	22850
831.496	22908
831.635	22774
831.774	22607
831.913	22554
832.051	22626
832.19	22443
832.329	22481
832.467	22462
832.606	22394
832.744	22360
832.883	22287
833.022	22352
833.16	22299
833.299	22371
833.437	22341
833.576	22443
833.714	22363
833.852	22382
833.991	22352
834.129	22481
834.267	22478
834.406	22322
834.544	22363
834.682	22333
834.821	22314
834.959	22584
835.097	22344
835.235	22314
835.373	22432
835.511	22386
835.65	22234
835.788	22348
835.926	22067
836.064	22017
836.202	22051
836.34	22242
836.478	22276
836.615	22196
836.753	22268
836.891	22242
837.029	22188
837.167	22025
837.305	22105
837.443	22032
837.58	22040
837.718	22070
837.856	22078
837.993	21934
838.131	22032
838.269	21903
838.406	21827
838.544	21846
838.681	21671
838.819	21568
838.956	21595
839.094	21549
839.231	21515
839.369	21625
839.506	21819
839.643	21675
839.781	21485
839.918	21393
840.055	21431
840.193	21283
840.33	21336
840.467	21336
840.604	21401
840.742	21827
840.879	21211
841.016	21397
841.153	21237
841.29	21561
841.427	21386
841.564	21348
841.701	21245
841.838	21268
841.975	21294
842.112	21180
842.249	21135
842.385	21161
842.522	21298
842.659	21112
842.796	21138
842.933	21085
843.069	21020
843.206	21074
843.343	21017
843.479	21157
843.616	21199
843.752	20834
843.889	20811
844.025	20960
844.162	20849
844.298	20868
844.435	20823
844.571	20792
844.708	20956
844.844	20998
844.98	20944
845.117	20868
845.253	20815
845.389	20754
845.525	20777
845.661	20914
845.798	20899
845.934	21036
846.07	20899
846.206	21058
846.342	20929
846.478	20838
846.614	20507
846.75	20305
846.886	20370
847.022	20484
847.158	20313
847.294	20317
847.429	20362
847.565	20119
847.701	20552
847.837	20020
847.972	19925
848.108	20119
848.244	19959
848.379	19890
848.515	19822
848.65	19757
848.786	19788
848.921	19791
849.057	19887
849.192	19974
849.328	19841
849.463	19791
849.598	19734
849.734	19704
849.869	19563
850.004	19552
850.14	19609
850.275	19620
850.41	19506
850.545	19582
850.68	19438
850.815	19521
850.95	19514
851.085	19761
851.22	19616
851.355	19635
851.49	19609
851.625	19468
851.76	19609
851.895	19643
852.03	19422
852.165	19415
852.299	19613
852.434	19674
852.569	19578
852.703	19632
852.838	19681
852.973	19674
853.107	19582
853.242	19552
853.376	19388
853.511	19259
853.645	19354
853.78	19419
853.914	19373
854.048	19350
854.183	19343
854.317	19403
854.451	19620
854.585	19316
854.72	19236
854.854	19384
854.988	19247
855.122	19320
855.256	19263
855.39	19320
855.524	19301
855.658	19415
855.792	19240
855.926	19343
856.06	19312
856.194	19320
856.327	19396
856.461	19282
856.595	19354
856.729	19263
856.862	19434
856.996	19415
857.13	19422
857.263	19514
857.397	19392
857.53	19400
857.664	19362
857.797	19483
857.931	19514
858.064	19441
858.197	19453
858.331	19225
858.464	19278
858.597	19137
858.731	19240
858.864	19232
858.997	19343
859.13	19247
859.263	19354
859.396	19350
859.529	19213
859.662	19209
859.795	19240
859.928	19289
860.061	19430
860.194	19514
860.327	19327
860.46	19240
860.592	19320
860.725	19377
860.858	19430
860.99	19297
861.123	19114
861.256	19213
861.388	19320
861.521	19936
861.653	19057
861.786	19152
861.918	19148
862.05	19297
862.183	19148
862.315	19434
862.447	19358
862.58	19301
862.712	19027
862.844	19019
862.976	19088
863.108	19080
863.24	19476
863.372	18943
863.504	19004
863.636	19050
863.768	18977
863.9	18996
864.032	18905
864.164	18882
864.296	19050
864.428	19247
864.559	19053
864.691	19027
864.823	19012
864.954	19015
865.086	19042
865.217	18966
865.349	18886
865.48	18920
865.612	18996
865.743	19012
865.875	18814
866.006	18875
866.137	18909
866.269	18924
866.4	18848
866.531	18958
866.662	18829
866.793	18825
866.924	18871
867.055	18844
867.186	18943
867.317	18795
867.448	18715
867.579	18692
867.71	18859
867.841	18719
867.972	18878
868.103	18901
868.233	18787
868.364	18734
868.495	18909
868.625	19084
868.756	19099
868.886	18886
869.017	19057
869.147	19152
869.278	19148
869.408	19118
869.539	19038
869.669	19133
869.799	19084
869.929	19206
870.06	19213
870.19	19377
870.32	19297
870.45	19377
870.58	19495
870.71	19552
870.84	19506
870.97	19430
871.1	19403
871.23	19552
871.36	19651
871.489	19464
871.619	19624
871.749	19525
871.879	19696
872.008	19746
872.138	19651
872.267	19525
872.397	19438
872.526	19514
872.656	19540
872.785	19430
872.915	19670
873.044	19769
873.173	19738
873.303	19795
873.432	19677
873.561	19624
873.69	19723
873.819	19723
873.948	19712
874.077	19658
874.206	19628
874.335	19734
874.464	19864
874.593	19864
874.722	19822
874.851	19940
874.979	19932
875.108	19947
875.237	19894
875.365	19852
875.494	19917
875.623	19902
875.751	19875
875.88	19955
876.008	20122
876.136	20172
876.265	20450
876.393	20568
876.521	20381
876.65	20457
876.778	20389
876.906	20290
877.034	20320
877.162	20263
877.29	20290
877.418	20374
877.546	20309
877.674	20252
877.802	20370
877.93	20343
878.058	20366
878.185	20294
878.313	20332
878.441	20317
878.568	20153
878.696	20298
878.824	20412
878.951	20362
879.079	20587
879.206	20720
879.333	20667
879.461	20545
879.588	20697
879.715	20746
879.842	20781
879.97	20545
880.097	20244
880.224	20240
880.351	20237
880.478	20172
880.605	20191
880.732	20271
880.859	20404
880.986	20259
881.112	20187
881.239	20183
881.366	19967
881.493	19940
881.619	19791
881.746	19826
881.872	19795
881.999	19761
882.125	19693
882.252	19879
882.378	19833
882.505	19913
882.631	19693
882.757	19776
882.883	19681
883.01	19597
883.136	19552
883.262	19430
883.388	19384
883.514	19597
883.64	19544
883.766	19476
883.892	19426
884.018	19392
884.143	19460
884.269	19613
884.395	19274
884.52	19312
884.646	19316
884.772	19206
884.897	19160
885.023	19285
885.148	19324
885.274	19457
885.399	19244
885.524	19293
885.65	19232
885.775	19228
885.9	19221
886.025	19400
886.15	19304
886.275	19198
886.4	19053
886.525	19202
886.65	19164
886.775	19145
886.9	19221
887.025	19388
887.149	19168
887.274	19107
887.399	18947
887.523	19004
887.648	18894
887.773	18894
887.897	19031
888.021	18973
888.146	18920
888.27	18954
888.395	19015
888.519	18973
888.643	18954
888.767	18962
888.891	18856
889.015	18856
889.139	18783
889.263	18749
889.387	18859
889.511	19027
889.635	18909
889.759	18760
889.883	18802
890.006	18776
890.13	18810
890.254	18646
890.377	18650
890.501	18506
890.624	18441
890.748	18555
890.871	18361
890.995	18361
891.118	18266
891.241	18414
891.364	18315
891.488	18547
891.611	18330
891.734	18369
891.857	18464
891.98	18437
892.103	18464
892.226	18433
892.349	18350
892.471	18186
892.594	18209
892.717	18361
892.839	18369
892.962	18289
893.085	18361
893.207	18292
893.33	18125
893.452	18209
893.575	18273
893.697	18353
893.819	18422
893.941	18509
894.064	18380
894.186	18232
894.308	18148
894.43	18414
894.552	18399
894.674	18338
894.796	18315
894.918	18315
895.04	18270
895.161	18372
895.283	18323
895.405	18216
895.526	18243
895.648	18292
895.769	18262
895.891	18365
896.012	18441
896.134	18414
896.255	18300
896.376	18243
896.498	18353
896.619	18403
896.74	18388
896.861	18426
896.982	18665
897.103	18928
897.224	18722
897.345	18673
897.466	18418
897.587	18608
897.708	18688
897.828	18654
897.949	18604
898.07	18547
898.19	18639
898.311	18677
898.431	18467
898.552	18574
898.672	18707
898.792	18627
898.913	18623
899.033	18464
899.153	18429
899.273	18270
899.393	18407
899.513	18403
899.633	18353
899.753	18445
899.873	18342
899.993	18315
900.113	18273
900.232	18327
900.352	18323
900.472	18235
900.591	18194
900.711	18213
900.83	18186
900.95	18407
901.069	18254
901.189	18152
901.308	17950
901.427	17798
901.546	17843
901.665	17901
901.784	17851
901.904	17573
902.023	17562
902.141	17486
902.26	17315
902.379	17391
902.498	17296
902.617	17147
902.735	17334
902.854	17318
902.973	17155
903.091	17014
903.21	16869
903.328	16949
903.446	16957
903.565	16725
903.683	16816
903.801	16687
903.919	16839
904.038	16774
904.156	16713
904.274	16626
904.392	16527
904.51	16588
904.627	16596
904.745	16649
904.863	16653
904.981	16333
905.098	16242
905.216	16253
905.334	16268
905.451	16162
905.569	16131
905.686	16242
905.803	16200
905.921	15994
906.038	16086
906.155	16036
906.272	15873
906.389	15960
906.506	15728
906.623	15739
906.74	15671
906.857	15717
906.974	15652
907.091	15747
907.208	15812
907.324	15842
907.441	15644
907.557	15393
907.674	15481
907.79	15389
907.907	15405
908.023	15511
908.139	15450
908.256	15329
908.372	15408
908.488	15245
908.604	15237
908.72	15157
908.836	15203
908.952	15135
909.068	15142
909.184	15306
909.3	15020
909.415	15112
909.531	15043
909.647	14902
909.762	14815
909.878	14925
909.993	14838
910.108	14758
910.224	14815
910.339	14895
910.454	14689
910.57	14659
910.685	14511
910.8	14906
910.915	14758
911.03	14625
911.145	14484
911.259	14454
911.374	14454
911.489	14446
911.604	14263
911.718	14256
911.833	14221
911.947	14168
912.062	14092
912.176	14248
912.291	14301
912.405	14111
912.519	14461
912.633	14396
912.748	14286
912.862	14130
912.976	14081
913.09	13849
913.204	14062
913.318	14012
913.431	14119
913.545	14161
913.659	14256
913.772	13909
913.886	13799
914	13868
914.113	13921
914.226	14020
914.34	13963
914.453	13731
914.566	13913
914.68	13734
914.793	13860
914.906	13460
915.019	13483
915.132	13422
915.245	13571
915.358	13597
915.47	13544
915.583	13537
915.696	13639
915.809	13605
915.921	13632
916.034	13506
916.146	13468
916.259	13430
916.371	13529
916.483	13480
916.595	13388
916.708	13487
916.82	13411
916.932	13324
917.044	13373
917.156	13350
917.268	13179
917.38	13221
917.491	13198
917.603	13236
917.715	13297
917.826	13388
917.938	13232
918.049	13099
918.161	13225
918.272	13354
918.384	13354
918.495	13301
918.606	13042
918.717	12890
918.828	13019
918.939	13145
919.05	12905
919.161	12909
919.272	12802
919.383	12814
919.494	13099
919.604	13194
919.715	12867
919.826	12890
919.936	12935
920.047	13000
920.157	12985
920.267	13209
920.378	12973
920.488	12859
920.598	13137
920.708	13270
920.818	13183
920.928	13091
921.038	13183
921.148	13133
921.258	12947
921.368	12814
921.477	12722
921.587	12726
921.697	12627
921.806	12677
921.916	12563
922.025	12353
922.134	12422
922.244	12300
922.353	12414
922.462	12323
922.571	12247
922.68	12095
922.789	12041
922.898	12057
923.007	12030
923.116	12057
923.224	12034
923.333	12049
923.442	11904
923.55	11783
923.659	11927
923.767	12076
923.876	11920
923.984	12015
924.092	11786
924.201	11859
924.309	11889
924.417	11813
924.525	11756
924.633	11764
924.741	12654
924.849	11547
924.956	11722
925.064	11562
925.172	11478
925.279	11554
925.387	11570
925.494	11581
925.602	11729
925.709	11543
925.816	11410
925.924	11486
926.031	11589
926.138	11516
926.245	11558
926.352	11414
926.459	11596
926.566	11486
926.673	11391
926.779	11379
926.886	11265
926.993	11212
927.099	11155
927.206	11162
927.312	11086
927.419	11117
927.525	11128
927.631	11159
927.737	11048
927.843	10949
927.95	10900
928.056	11018
928.162	10987
928.267	11075
928.373	11581
928.479	11117
928.585	10892
928.69	10991
928.796	11022
928.901	10957
929.007	10767
929.112	10904
929.218	10866
929.323	10824
929.428	10759
929.533	10896
929.638	10702
929.743	10698
929.848	10778
929.953	10702
930.058	10641
930.163	10508
930.267	10512
930.372	10656
930.477	10436
930.581	10660
930.685	10462
930.79	10367
930.894	10348
930.998	10310
931.103	10405
931.207	10017
931.311	10082
931.415	9998
931.519	9774
931.623	9819
