Data from test_V78500241_90.txt Node
Date: Fri Mar 25 14:34:21 CST 2022
User: usil
Spectrometer: V785-0024
Trigger mode: 0
Integration Time (sec): 4.000000E-1
Scans to average: 1
Nonlinearity correction enabled: false
Boxcar width: 0
Storing dark spectrum: false
XAxis mode: Wavelengths
Number of Pixels in Spectrum: 1024
>>>>>Begin Spectral Data<<<<<
801.071	28721
801.214	28858
801.356	28500
801.499	28390
801.641	28318
801.783	28280
801.926	28238
802.068	28344
802.211	28177
802.353	27987
802.496	27960
802.638	27823
802.78	27846
802.923	27724
803.065	27838
803.208	27812
803.35	27842
803.492	27953
803.635	27994
803.777	27907
803.919	27926
804.061	28322
804.204	27941
804.346	27960
804.488	27857
804.63	27781
804.773	27857
804.915	27827
805.057	28013
805.199	27888
805.341	28017
805.483	27964
805.626	28086
805.768	27922
805.91	27972
806.052	27914
806.194	27975
806.336	28082
806.478	28013
806.62	27991
806.762	28097
806.904	28325
807.046	28459
807.188	28470
807.33	28348
807.472	28497
807.614	28394
807.756	28356
807.898	28272
808.04	28177
808.182	28242
808.324	28356
808.465	28325
808.607	28512
808.749	28740
808.891	28721
809.033	28980
809.174	28759
809.316	28710
809.458	28565
809.6	28660
809.741	28793
809.883	28675
810.025	28843
810.166	28812
810.308	28710
810.45	28687
810.591	28656
810.733	28535
810.875	28542
811.016	28325
811.158	28188
811.299	28367
811.441	28580
811.582	28656
811.724	28451
811.865	28394
812.007	28417
812.148	28455
812.29	28542
812.431	28554
812.573	28725
812.714	28778
812.855	28759
812.997	28809
813.138	29113
813.279	29117
813.421	28953
813.562	28733
813.703	28706
813.845	28573
813.986	28375
814.127	28116
814.268	28063
814.41	28025
814.551	27972
814.692	27895
814.833	28025
814.974	27827
815.115	28017
815.256	27698
815.397	27736
815.539	27823
815.68	27827
815.821	27812
815.962	27690
816.103	27739
816.244	27523
816.385	27378
816.526	27568
816.666	27108
816.807	27150
816.948	27222
817.089	27233
817.23	27188
817.371	27100
817.512	27058
817.653	26963
817.793	26998
817.934	27051
818.075	26986
818.216	27017
818.356	27108
818.497	26940
818.638	26724
818.778	26606
818.919	26921
819.06	26838
819.2	26868
819.341	27032
819.481	27001
819.622	27089
819.762	27344
819.903	27077
820.043	27199
820.184	27131
820.324	27138
820.465	26994
820.605	27081
820.746	27009
820.886	26902
821.026	27176
821.167	26918
821.307	26960
821.447	26872
821.588	26921
821.728	26678
821.868	26415
822.008	26313
822.149	26278
822.289	26199
822.429	26183
822.569	26084
822.709	26035
822.849	25871
822.99	25925
823.13	25845
823.27	25769
823.41	25655
823.55	25419
823.69	25761
823.83	25544
823.97	25533
824.11	25327
824.25	25350
824.389	25327
824.529	25339
824.669	25373
824.809	25472
824.949	25415
825.089	25529
825.228	25422
825.368	25304
825.508	25209
825.648	25293
825.787	25194
825.927	25350
826.067	25217
826.206	25160
826.346	25228
826.485	25221
826.625	25187
826.765	25350
826.904	25225
827.044	24901
827.183	24905
827.323	24848
827.462	24897
827.601	24909
827.741	24875
827.88	24913
828.02	24726
828.159	24875
828.298	24882
828.437	24878
828.577	24738
828.716	24878
828.855	24745
828.994	24429
829.134	24532
829.273	24566
829.412	24456
829.551	24471
829.69	24452
829.829	24456
829.968	24623
830.107	24616
830.246	24437
830.385	24490
830.524	24296
830.663	24407
830.802	24209
830.941	24125
831.08	24011
831.219	24194
831.357	24049
831.496	24327
831.635	24152
831.774	23882
831.913	23843
832.051	23843
832.19	23779
832.329	23923
832.467	23745
832.606	23714
832.744	23573
832.883	23729
833.022	23699
833.16	23714
833.299	23733
833.437	23630
833.576	23714
833.714	23775
833.852	23767
833.991	23764
834.129	23741
834.267	23798
834.406	23710
834.544	23714
834.682	23714
834.821	23547
834.959	23866
835.097	23638
835.235	23771
835.373	23779
835.511	23695
835.65	23512
835.788	23486
835.926	23474
836.064	23311
836.202	23372
836.34	23360
836.478	23592
836.615	23356
836.753	23509
836.891	23520
837.029	23615
837.167	23524
837.305	23330
837.443	23444
837.58	23273
837.718	23353
837.856	23345
837.993	23223
838.131	23318
838.269	23216
838.406	23208
838.544	23094
838.681	22995
838.819	22949
838.956	22835
839.094	22816
839.231	22786
839.369	22889
839.506	23189
839.643	22965
839.781	22839
839.918	22752
840.055	22786
840.193	22603
840.33	22691
840.467	22626
840.604	22542
840.742	22835
840.879	22622
841.016	22569
841.153	22523
841.29	22683
841.427	22736
841.564	22679
841.701	22626
841.838	22538
841.975	22451
842.112	22402
842.249	22386
842.385	22291
842.522	22424
842.659	22382
842.796	22257
842.933	22257
843.069	22325
843.206	22173
843.343	22402
843.479	22356
843.616	22318
843.752	22032
843.889	22131
844.025	22215
844.162	22029
844.298	22207
844.435	22131
844.571	21918
844.708	22010
844.844	22112
844.98	22265
845.117	22207
845.253	22112
845.389	21911
845.525	22063
845.661	22070
845.798	22021
845.934	22128
846.07	21968
846.206	21949
846.342	22177
846.478	21895
846.614	21580
846.75	21500
846.886	21580
847.022	21625
847.158	21511
847.294	21530
847.429	21485
847.565	21359
847.701	21648
847.837	21195
847.972	21119
848.108	21256
848.244	21256
848.379	21039
848.515	20967
848.65	21001
848.786	21017
848.921	21005
849.057	21089
849.192	20998
849.328	20929
849.463	21070
849.598	21001
849.734	20933
849.869	20872
850.004	20720
850.14	20769
850.275	20941
850.41	20640
850.545	20682
850.68	20701
850.815	20792
850.95	20693
851.085	20735
851.22	20811
851.355	20724
851.49	20697
851.625	20712
851.76	20689
851.895	20552
852.03	20674
852.165	20629
852.299	20727
852.434	20834
852.569	20705
852.703	20678
852.838	20788
852.973	20842
853.107	20853
853.242	20629
853.376	20625
853.511	20366
853.645	20465
853.78	20682
853.914	20731
854.048	20541
854.183	20625
854.317	20568
854.451	20845
854.585	20526
854.72	20427
854.854	20606
854.988	20533
855.122	20537
855.256	20438
855.39	20442
855.524	20602
855.658	20564
855.792	20465
855.926	20434
856.06	20537
856.194	20488
856.327	20556
856.461	20522
856.595	20400
856.729	20480
856.862	20480
856.996	20564
857.13	20549
857.263	20434
857.397	20606
857.53	20457
857.664	20606
857.797	20507
857.931	20552
858.064	20526
858.197	20644
858.331	20446
858.464	20374
858.597	20282
858.731	20438
858.864	20469
858.997	20415
859.13	20408
859.263	20446
859.396	20541
859.529	20503
859.662	20503
859.795	20476
859.928	20484
860.061	20625
860.194	20564
860.327	20473
860.46	20408
860.592	20571
860.725	20746
860.858	20598
860.99	20431
861.123	20423
861.256	20412
861.388	20473
861.521	21127
861.653	20267
861.786	20263
861.918	20237
862.05	20286
862.183	20415
862.315	20480
862.447	20541
862.58	20362
862.712	20275
862.844	20161
862.976	20240
863.108	20202
863.24	20450
863.372	20100
863.504	20168
863.636	20161
863.768	20183
863.9	20073
864.032	20046
864.164	20043
864.296	20187
864.428	20191
864.559	20183
864.691	20244
864.823	20115
864.954	20134
865.086	19967
865.217	20119
865.349	20001
865.48	19936
865.612	20012
865.743	20126
865.875	20073
866.006	19955
866.137	20088
866.269	20043
866.4	20039
866.531	20020
866.662	19894
866.793	19947
866.924	19944
867.055	20050
867.186	19906
867.317	19936
867.448	19887
867.579	20058
867.71	19879
867.841	19826
867.972	19928
868.103	19947
868.233	19970
868.364	19936
868.495	20088
868.625	20180
868.756	20229
868.886	20138
869.017	20145
869.147	20313
869.278	20259
869.408	20267
869.539	20195
869.669	20172
869.799	20244
869.929	20366
870.06	20164
870.19	20438
870.32	20370
870.45	20431
870.58	20575
870.71	20765
870.84	20663
870.97	20655
871.1	20568
871.23	20811
871.36	20819
871.489	20609
871.619	20823
871.749	20724
871.879	20796
872.008	20849
872.138	20743
872.267	20750
872.397	20651
872.526	20632
872.656	20727
872.785	20659
872.915	20785
873.044	20883
873.173	20781
873.303	20861
873.432	20807
873.561	20918
873.69	20910
873.819	20785
873.948	20792
874.077	20804
874.206	20701
874.335	20804
874.464	20971
874.593	21020
874.722	20944
874.851	21161
874.979	21112
875.108	21138
875.237	21112
875.365	21131
875.494	20998
875.623	21085
875.751	20990
875.88	20994
876.008	21150
876.136	21233
876.265	21435
876.393	21515
876.521	21545
876.65	21450
876.778	21534
876.906	21340
877.034	21485
877.162	21412
877.29	21291
877.418	21542
877.546	21496
877.674	21370
877.802	21389
877.93	21477
878.058	21351
878.185	21382
878.313	21329
878.441	21481
878.568	21344
878.696	21367
878.824	21443
878.951	21595
879.079	21663
879.206	21732
879.333	21603
879.461	21599
879.588	21724
879.715	21637
879.842	21759
879.97	21622
880.097	21370
880.224	21370
880.351	21340
880.478	21332
880.605	21226
880.732	21386
880.859	21492
880.986	21245
881.112	21287
881.239	21165
881.366	21070
881.493	20971
881.619	20910
881.746	21009
881.872	20861
881.999	20861
882.125	20815
882.252	20982
882.378	20876
882.505	20986
882.631	20781
882.757	20686
882.883	20697
883.01	20495
883.136	20522
883.262	20355
883.388	20446
883.514	20537
883.64	20636
883.766	20667
883.892	20381
884.018	20499
884.143	20579
884.269	20625
884.395	20362
884.52	20263
884.646	20366
884.772	20240
884.897	20115
885.023	20237
885.148	20328
885.274	20415
885.399	20271
885.524	20229
885.65	20301
885.775	20313
885.9	20210
886.025	20332
886.15	20328
886.275	20164
886.4	20081
886.525	20138
886.65	20111
886.775	20153
886.9	20244
887.025	20339
887.149	20233
887.274	19978
887.399	19906
887.523	20005
887.648	19947
887.773	19818
887.897	20050
888.021	19902
888.146	19887
888.27	20043
888.395	19997
888.519	20039
888.643	19959
888.767	19974
888.891	19845
889.015	19784
889.139	19944
889.263	19811
889.387	19772
889.511	19875
889.635	19963
889.759	19814
889.883	19727
890.006	19841
890.13	19750
890.254	19658
890.377	19575
890.501	19491
890.624	19480
890.748	19514
890.871	19388
890.995	19362
891.118	19278
891.241	19304
891.364	19316
891.488	19468
891.611	19457
891.734	19400
891.857	19373
891.98	19343
892.103	19354
892.226	19255
892.349	19339
892.471	19213
892.594	19255
892.717	19263
892.839	19270
892.962	19247
893.085	19278
893.207	19274
893.33	19110
893.452	19190
893.575	19339
893.697	19240
893.819	19430
893.941	19510
894.064	19445
894.186	19213
894.308	19236
894.43	19365
894.552	19407
894.674	19396
894.796	19168
894.918	19244
895.04	19217
895.161	19251
895.283	19293
895.405	19251
895.526	19285
895.648	19259
895.769	19304
895.891	19331
896.012	19350
896.134	19354
896.255	19259
896.376	19285
896.498	19388
896.619	19331
896.74	19232
896.861	19354
896.982	19708
897.103	19868
897.224	19533
897.345	19529
897.466	19521
897.587	19620
897.708	19715
897.828	19567
897.949	19422
898.07	19335
898.19	19495
898.311	19578
898.431	19464
898.552	19453
898.672	19586
898.792	19575
898.913	19533
899.033	19381
899.153	19343
899.273	19259
899.393	19263
899.513	19282
899.633	19232
899.753	19244
899.873	19126
899.993	19331
900.113	19152
900.232	19171
900.352	19160
900.472	19137
900.591	18989
900.711	19103
900.83	19034
900.95	19152
901.069	19175
901.189	18932
901.308	18703
901.427	18726
901.546	18681
901.665	18677
901.784	18700
901.904	18464
902.023	18441
902.141	18216
902.26	18182
902.379	18190
902.498	18125
902.617	18091
902.735	18197
902.854	18106
902.973	18079
903.091	17885
903.21	17851
903.328	17767
903.446	17638
903.565	17710
903.683	17649
903.801	17539
903.919	17604
904.038	17596
904.156	17448
904.274	17497
904.392	17398
904.51	17478
904.627	17391
904.745	17433
904.863	17410
904.981	17200
905.098	17010
905.216	17124
905.334	17105
905.451	17079
905.569	16991
905.686	16991
905.803	17083
905.921	16976
906.038	16957
906.155	16908
906.272	16759
906.389	16702
906.506	16607
906.623	16615
906.74	16516
906.857	16523
906.974	16489
907.091	16611
907.208	16767
907.324	16573
907.441	16554
907.557	16211
907.674	16333
907.79	16162
907.907	16287
908.023	16253
908.139	16291
908.256	16253
908.372	16215
908.488	16147
908.604	16017
908.72	16021
908.836	16013
908.952	15903
909.068	16021
909.184	16032
909.3	15979
909.415	15975
909.531	15926
909.647	15637
909.762	15739
909.878	15629
909.993	15686
910.108	15652
910.224	15523
910.339	15599
910.454	15568
910.57	15553
910.685	15428
910.8	15698
910.915	15603
911.03	15469
911.145	15287
911.259	15249
911.374	15310
911.489	15264
911.604	15165
911.718	15028
911.833	14998
911.947	14929
912.062	14887
912.176	14990
912.291	14914
912.405	14899
912.519	15154
912.633	15188
912.748	15142
912.862	15017
912.976	14838
913.09	14743
913.204	14701
913.318	14788
913.431	14906
913.545	14914
913.659	14982
913.772	14830
913.886	14606
914	14750
914.113	14735
914.226	14853
914.34	14667
914.453	14507
914.566	14712
914.68	14606
914.793	14545
914.906	14362
915.019	14385
915.132	14282
915.245	14248
915.358	14282
915.47	14275
915.583	14309
915.696	14355
915.809	14370
915.921	14339
916.034	14183
916.146	14130
916.259	14225
916.371	14161
916.483	14271
916.595	14096
916.708	14157
916.82	14142
916.932	14172
917.044	14062
917.156	14012
917.268	13894
917.38	13902
917.491	13894
917.603	13883
917.715	14001
917.826	13947
917.938	13860
918.049	13761
918.161	13883
918.272	14126
918.384	14058
918.495	13959
918.606	13856
918.717	13594
918.828	13723
918.939	13742
919.05	13567
919.161	13620
919.272	13422
919.383	13491
919.494	13696
919.604	13833
919.715	13616
919.826	13571
919.936	13643
920.047	13731
920.157	13746
920.267	13719
920.378	13666
920.488	13601
920.598	13765
920.708	13974
920.818	13769
920.928	13811
921.038	13951
921.148	13898
921.258	13639
921.368	13506
921.477	13400
921.587	13449
921.697	13343
921.806	13415
921.916	13213
922.025	13080
922.134	13072
922.244	13034
922.353	13080
922.462	12856
922.571	12852
922.68	12757
922.789	12631
922.898	12688
923.007	12540
923.116	12684
923.224	12658
923.333	12658
923.442	12506
923.55	12536
923.659	12570
923.767	12593
923.876	12517
923.984	12559
924.092	12407
924.201	12448
924.309	12456
924.417	12460
924.525	12388
924.633	12338
924.741	13331
924.849	12254
924.956	12327
925.064	12178
925.172	12011
925.279	12091
925.387	12205
925.494	12136
925.602	12273
925.709	12194
925.816	12133
925.924	12182
926.031	12194
926.138	12167
926.245	12186
926.352	12076
926.459	12098
926.566	12114
926.673	12083
926.779	11942
926.886	11920
926.993	11855
927.099	11760
927.206	11756
927.312	11779
927.419	11737
927.525	11722
927.631	11745
927.737	11646
927.843	11547
927.95	11539
928.056	11482
928.162	11554
928.267	11668
928.373	12133
928.479	11558
928.585	11440
928.69	11528
928.796	11600
928.901	11444
929.007	11284
929.112	11391
929.218	11391
929.323	11296
929.428	11364
929.533	11433
929.638	11227
929.743	11246
929.848	11288
929.953	11223
930.058	11132
930.163	11014
930.267	11003
930.372	11162
930.477	11048
930.581	11170
930.685	11121
930.79	10831
930.894	10930
930.998	10835
931.103	10987
931.207	10645
931.311	10577
931.415	10470
931.519	10356
931.623	10295
