Data from test_V78500241_2316.txt Node
Date: Fri Mar 25 14:49:50 CST 2022
User: usil
Spectrometer: V785-0024
Trigger mode: 0
Integration Time (sec): 4.000000E-1
Scans to average: 1
Nonlinearity correction enabled: false
Boxcar width: 0
Storing dark spectrum: false
XAxis mode: Wavelengths
Number of Pixels in Spectrum: 1024
>>>>>Begin Spectral Data<<<<<
801.071	22135
801.214	22002
801.356	21857
801.499	21743
801.641	21663
801.783	21405
801.926	21466
802.068	21542
802.211	21302
802.353	21317
802.496	21214
802.638	21009
802.78	21074
802.923	20838
803.065	20754
803.208	20735
803.35	20975
803.492	20834
803.635	21028
803.777	20781
803.919	20914
804.061	21169
804.204	20895
804.346	20834
804.488	20731
804.63	20785
804.773	20648
804.915	20796
805.057	20868
805.199	20720
805.341	20830
805.483	20887
805.626	20902
805.768	20785
805.91	20830
806.052	20796
806.194	20804
806.336	20918
806.478	20853
806.62	20678
806.762	20925
806.904	20963
807.046	21249
807.188	21184
807.33	21077
807.472	21135
807.614	20944
807.756	21024
807.898	20902
808.04	20823
808.182	20788
808.324	20899
808.465	21013
808.607	21085
808.749	21222
808.891	21260
809.033	21291
809.174	21283
809.316	21207
809.458	21131
809.6	21070
809.741	21252
809.883	21222
810.025	21294
810.166	21252
810.308	21351
810.45	21260
810.591	21218
810.733	21001
810.875	21005
811.016	20853
811.158	20823
811.299	21070
811.441	21127
811.582	21081
811.724	21024
811.865	21009
812.007	20845
812.148	20948
812.29	21009
812.431	21017
812.573	21203
812.714	21340
812.855	21439
812.997	21507
813.138	21717
813.279	21572
813.421	21424
813.562	21397
813.703	21100
813.845	21188
813.986	20727
814.127	20568
814.268	20469
814.41	20530
814.551	20507
814.692	20617
814.833	20431
814.974	20404
815.115	20419
815.256	20431
815.397	20366
815.539	20423
815.68	20248
815.821	20199
815.962	20294
816.103	20267
816.244	20088
816.385	19947
816.526	19944
816.666	19776
816.807	19628
816.948	19746
817.089	19757
817.23	19704
817.371	19495
817.512	19639
817.653	19540
817.793	19499
817.934	19712
818.075	19696
818.216	19601
818.356	19620
818.497	19472
818.638	19236
818.778	19285
818.919	19217
819.06	19460
819.2	19476
819.341	19563
819.481	19491
819.622	19696
819.762	19860
819.903	19723
820.043	19620
820.184	19666
820.324	19635
820.465	19537
820.605	19609
820.746	19540
820.886	19464
821.026	19666
821.167	19537
821.307	19628
821.447	19491
821.588	19358
821.728	19381
821.868	19160
822.008	18894
822.149	18970
822.289	18954
822.429	18856
822.569	18677
822.709	18658
822.849	18494
822.99	18517
823.13	18536
823.27	18448
823.41	18350
823.55	18304
823.69	18277
823.83	18311
823.97	18155
824.11	18182
824.25	18022
824.389	17999
824.529	18178
824.669	18087
824.809	18057
824.949	18216
825.089	18155
825.228	18079
825.368	17897
825.508	17969
825.648	17851
825.787	18034
825.927	18007
826.067	17866
826.206	17745
826.346	17813
826.485	17813
826.625	17923
826.765	18003
826.904	17961
827.044	17703
827.183	17512
827.323	17573
827.462	17680
827.601	17532
827.741	17516
827.88	17668
828.02	17406
828.159	17547
828.298	17444
828.437	17627
828.577	17433
828.716	17680
828.855	17364
828.994	17337
829.134	17372
829.273	17368
829.412	17273
829.551	17143
829.69	17235
829.829	17311
829.968	17425
830.107	17478
830.246	17330
830.385	17269
830.524	17132
830.663	17124
830.802	17121
830.941	16927
831.08	16896
831.219	16934
831.357	16930
831.496	17159
831.635	16862
831.774	16755
831.913	16733
832.051	16748
832.19	16679
832.329	16675
832.467	16607
832.606	16558
832.744	16580
832.883	16542
833.022	16542
833.16	16645
833.299	16710
833.437	16706
833.576	16603
833.714	16645
833.852	16744
833.991	16691
834.129	16744
834.267	16683
834.406	16618
834.544	16664
834.682	16637
834.821	16607
834.959	16847
835.097	16558
835.235	16729
835.373	16637
835.511	16584
835.65	16592
835.788	16500
835.926	16432
836.064	16291
836.202	16337
836.34	16523
836.478	16607
836.615	16459
836.753	16523
836.891	16618
837.029	16565
837.167	16508
837.305	16440
837.443	16371
837.58	16356
837.718	16402
837.856	16402
837.993	16246
838.131	16402
838.269	16348
838.406	16242
838.544	16246
838.681	16162
838.819	16067
838.956	16002
839.094	15960
839.231	15998
839.369	16086
839.506	16379
839.643	16166
839.781	15808
839.918	15899
840.055	15922
840.193	15960
840.33	15884
840.467	15926
840.604	15979
840.742	16196
840.879	15835
841.016	15846
841.153	15937
841.29	15979
841.427	15994
841.564	15956
841.701	15994
841.838	15774
841.975	15850
842.112	15747
842.249	15850
842.385	15644
842.522	15911
842.659	15644
842.796	15637
842.933	15625
843.069	15637
843.206	15584
843.343	15888
843.479	15736
843.616	15660
843.752	15526
843.889	15462
844.025	15625
844.162	15568
844.298	15622
844.435	15523
844.571	15439
844.708	15584
844.844	15641
844.98	15660
845.117	15576
845.253	15363
845.389	15374
845.525	15355
845.661	15416
845.798	15279
845.934	15294
846.07	15283
846.206	15340
846.342	15382
846.478	15256
846.614	15104
846.75	14967
846.886	14994
847.022	15154
847.158	15085
847.294	15119
847.429	15089
847.565	14998
847.701	15264
847.837	14838
847.972	14705
848.108	14944
848.244	14826
848.379	14758
848.515	14686
848.65	14670
848.786	14651
848.921	14708
849.057	14826
849.192	14735
849.328	14716
849.463	14678
849.598	14705
849.734	14594
849.869	14549
850.004	14461
850.14	14545
850.275	14301
850.41	14374
850.545	14355
850.68	14568
850.815	14545
850.95	14442
851.085	14644
851.22	14503
851.355	14419
851.49	14366
851.625	14389
851.76	14404
851.895	14309
852.03	14320
852.165	14427
852.299	14473
852.434	14514
852.569	14450
852.703	14518
852.838	14427
852.973	14602
853.107	14613
853.242	14385
853.376	14343
853.511	14180
853.645	14237
853.78	14423
853.914	14377
854.048	14206
854.183	14240
854.317	14355
854.451	14461
854.585	14240
854.72	14317
854.854	14404
854.988	14142
855.122	14332
855.256	14221
855.39	14336
855.524	14488
855.658	14438
855.792	14301
855.926	14343
856.06	14465
856.194	14415
856.327	14183
856.461	14202
856.595	14278
856.729	14233
856.862	14488
856.996	14370
857.13	14393
857.263	14480
857.397	14469
857.53	14301
857.664	14415
857.797	14355
857.931	14396
858.064	14298
858.197	14396
858.331	14263
858.464	14244
858.597	14191
858.731	14290
858.864	14347
858.997	14187
859.13	14332
859.263	14301
859.396	14446
859.529	14237
859.662	14305
859.795	14229
859.928	14374
860.061	14473
860.194	14503
860.327	14324
860.46	14294
860.592	14377
860.725	14450
860.858	14362
860.99	14305
861.123	14183
861.256	14100
861.388	14244
861.521	14788
861.653	14172
861.786	14069
861.918	14115
862.05	14218
862.183	14267
862.315	14320
862.447	14286
862.58	14267
862.712	14005
862.844	13997
862.976	14100
863.108	14035
863.24	14503
863.372	13963
863.504	14115
863.636	14081
863.768	14088
863.9	14149
864.032	14008
864.164	14096
864.296	14062
864.428	14248
864.559	14123
864.691	14123
864.823	14123
864.954	14081
865.086	14039
865.217	14031
865.349	13982
865.48	13906
865.612	14031
865.743	14206
865.875	14138
866.006	14050
866.137	14024
866.269	14084
866.4	14103
866.531	14035
866.662	13989
866.793	14027
866.924	14088
867.055	14043
867.186	14130
867.317	14043
867.448	13959
867.579	13959
867.71	13940
867.841	13925
867.972	14062
868.103	14096
868.233	14145
868.364	14062
868.495	14103
868.625	14180
868.756	14343
868.886	14195
869.017	14278
869.147	14419
869.278	14469
869.408	14370
869.539	14282
869.669	14339
869.799	14298
869.929	14423
870.06	14488
870.19	14590
870.32	14598
870.45	14644
870.58	14678
870.71	14792
870.84	14792
870.97	14648
871.1	14705
871.23	14857
871.36	14925
871.489	14845
871.619	14887
871.749	14872
871.879	14952
872.008	14998
872.138	14963
872.267	14883
872.397	14686
872.526	14826
872.656	14667
872.785	14773
872.915	14872
873.044	15009
873.173	14998
873.303	14986
873.432	14918
873.561	15077
873.69	14967
873.819	14956
873.948	15036
874.077	14994
874.206	14910
874.335	14925
874.464	15116
874.593	15211
874.722	15165
874.851	15306
874.979	15275
875.108	15207
875.237	15123
875.365	15138
875.494	15230
875.623	15351
875.751	15260
875.88	15241
876.008	15488
876.136	15542
876.265	15682
876.393	15762
876.521	15709
876.65	15800
876.778	15751
876.906	15614
877.034	15648
877.162	15667
877.29	15724
877.418	15728
877.546	15686
877.674	15720
877.802	15713
877.93	15770
878.058	15530
878.185	15568
878.313	15599
878.441	15717
878.568	15408
878.696	15633
878.824	15656
878.951	15667
879.079	15861
879.206	16002
879.333	15884
879.461	15759
879.588	15865
879.715	15804
879.842	16074
879.97	15789
880.097	15557
880.224	15500
880.351	15595
880.478	15622
880.605	15500
880.732	15523
880.859	15717
880.986	15523
881.112	15553
881.239	15428
881.366	15302
881.493	15291
881.619	15188
881.746	15222
881.872	15173
881.999	15100
882.125	15142
882.252	15214
882.378	15165
882.505	15405
882.631	15161
882.757	15013
882.883	14952
883.01	14845
883.136	14868
883.262	14982
883.388	14941
883.514	14994
883.64	15043
883.766	14910
883.892	14864
884.018	14746
884.143	14971
884.269	15100
884.395	14762
884.52	14583
884.646	14765
884.772	14606
884.897	14541
885.023	14686
885.148	14750
885.274	14815
885.399	14819
885.524	14750
885.65	14701
885.775	14712
885.9	14636
886.025	14826
886.15	14823
886.275	14754
886.4	14583
886.525	14621
886.65	14606
886.775	14754
886.9	14769
887.025	14921
887.149	14811
887.274	14507
887.399	14503
887.523	14518
887.648	14434
887.773	14389
887.897	14594
888.021	14644
888.146	14446
888.27	14602
888.395	14568
888.519	14549
888.643	14590
888.767	14552
888.891	14434
889.015	14415
889.139	14450
889.263	14488
889.387	14461
889.511	14632
889.635	14495
889.759	14381
889.883	14377
890.006	14408
890.13	14488
890.254	14305
890.377	14339
890.501	14202
890.624	14229
890.748	14248
890.871	14119
890.995	13989
891.118	14024
891.241	14123
891.364	14111
891.488	14161
891.611	14054
891.734	14001
891.857	14225
891.98	14126
892.103	14218
892.226	14119
892.349	14149
892.471	13936
892.594	13986
892.717	14191
892.839	14069
892.962	14115
893.085	14073
893.207	14020
893.33	13944
893.452	13917
893.575	14145
893.697	13974
893.819	14202
893.941	14259
894.064	14225
894.186	14092
894.308	14039
894.43	14237
894.552	14305
894.674	14233
894.796	14027
894.918	14142
895.04	14123
895.161	14256
895.283	14149
895.405	14115
895.526	14111
895.648	14183
895.769	14191
895.891	14309
896.012	14286
896.134	14256
896.255	14218
896.376	14225
896.498	14393
896.619	14396
896.74	14259
896.861	14351
896.982	14518
897.103	14773
897.224	14568
897.345	14495
897.466	14461
897.587	14571
897.708	14636
897.828	14686
897.949	14530
898.07	14381
898.19	14442
898.311	14712
898.431	14549
898.552	14678
898.672	14743
898.792	14701
898.913	14629
899.033	14583
899.153	14530
899.273	14442
899.393	14370
899.513	14473
899.633	14476
899.753	14522
899.873	14355
899.993	14503
900.113	14457
900.232	14530
900.352	14556
900.472	14400
900.591	14305
900.711	14438
900.83	14305
900.95	14431
901.069	14465
901.189	14393
901.308	13997
901.427	13993
901.546	14016
901.665	14046
901.784	14172
901.904	13909
902.023	13799
902.141	13643
902.26	13662
902.379	13723
902.498	13613
902.617	13575
902.735	13723
902.854	13552
902.973	13472
903.091	13255
903.21	13251
903.328	13354
903.446	13274
903.565	13110
903.683	13259
903.801	13072
903.919	13110
904.038	13183
904.156	12958
904.274	13015
904.392	12996
904.51	12958
904.627	12993
904.745	13008
904.863	13034
904.981	12802
905.098	12639
905.216	12730
905.334	12741
905.451	12703
905.569	12711
905.686	12696
905.803	12623
905.921	12494
906.038	12635
906.155	12540
906.272	12399
906.389	12403
906.506	12334
906.623	12213
906.74	12334
906.857	12167
906.974	12163
907.091	12296
907.208	12494
907.324	12247
907.441	12182
907.557	12007
907.674	12087
907.79	11992
907.907	12019
908.023	11988
908.139	12129
908.256	11935
908.372	11874
908.488	11893
908.604	11718
908.72	11714
908.836	11760
908.952	11733
909.068	11745
909.184	11870
909.3	11745
909.415	11737
909.531	11821
909.647	11570
909.762	11501
909.878	11490
909.993	11532
910.108	11474
910.224	11433
910.339	11573
910.454	11410
910.57	11368
910.685	11360
910.8	11596
910.915	11429
911.03	11410
911.145	11258
911.259	11220
911.374	11185
911.489	11170
911.604	11094
911.718	10946
911.833	10991
911.947	10972
912.062	10790
912.176	10953
912.291	10976
912.405	10995
912.519	11201
912.633	11113
912.748	11117
912.862	10968
912.976	10850
913.09	10687
913.204	10866
913.318	10831
913.431	10892
913.545	10976
913.659	11006
913.772	10805
913.886	10816
914	10641
914.113	10892
914.226	10877
914.34	10820
914.453	10675
914.566	10733
914.68	10736
914.793	10656
914.906	10470
915.019	10436
915.132	10379
915.245	10386
915.358	10497
915.47	10504
915.583	10447
915.696	10592
915.809	10630
915.921	10542
916.034	10424
916.146	10390
916.259	10421
916.371	10554
916.483	10535
916.595	10295
916.708	10512
916.82	10428
916.932	10440
917.044	10371
917.156	10322
917.268	10295
917.38	10284
917.491	10268
917.603	10356
917.715	10382
917.826	10360
917.938	10337
918.049	10207
918.161	10287
918.272	10451
918.384	10447
918.495	10329
918.606	10246
918.717	10169
918.828	10188
918.939	10249
919.05	10147
919.161	10150
919.272	10051
919.383	10063
919.494	10238
919.604	10379
919.715	10246
919.826	10173
919.936	10154
920.047	10280
920.157	10242
920.267	10470
920.378	10299
920.488	10215
920.598	10428
920.708	10535
920.818	10432
920.928	10386
921.038	10451
921.148	10500
921.258	10284
921.368	10093
921.477	10093
921.587	10071
921.697	9941
921.806	10063
921.916	9945
922.025	9743
922.134	9694
922.244	9671
922.353	9816
922.462	9656
922.571	9561
922.68	9481
922.789	9408
922.898	9443
923.007	9428
923.116	9488
923.224	9439
923.333	9496
923.442	9363
923.55	9363
923.659	9355
923.767	9420
923.876	9260
923.984	9386
924.092	9218
924.201	9332
924.309	9313
924.417	9359
924.525	9245
924.633	9321
924.741	10280
924.849	9104
924.956	9313
925.064	9135
925.172	9119
925.279	9020
925.387	9203
925.494	9157
925.602	9184
925.709	9203
925.816	9013
925.924	9085
926.031	9188
926.138	9116
926.245	9214
926.352	9085
926.459	9195
926.566	9237
926.673	9077
926.779	8994
926.886	9066
926.993	8800
927.099	8826
927.206	8777
927.312	8777
927.419	8941
927.525	8891
927.631	8933
927.737	8785
927.843	8731
927.95	8636
928.056	8693
928.162	8701
928.267	8781
928.373	9450
928.479	8857
928.585	8602
928.69	8708
928.796	8773
928.901	8640
929.007	8514
929.112	8629
929.218	8552
929.323	8602
929.428	8571
929.533	8705
929.638	8495
929.743	8590
929.848	8632
929.953	8568
930.058	8427
930.163	8339
930.267	8305
930.372	8362
930.477	8305
930.581	8560
930.685	8404
930.79	8237
930.894	8362
930.998	8263
931.103	8381
931.207	8092
931.311	7993
931.415	7947
931.519	7776
931.623	7845
