Data from test_V78500241_1775.txt Node
Date: Fri Mar 25 14:46:04 CST 2022
User: usil
Spectrometer: V785-0024
Trigger mode: 0
Integration Time (sec): 4.000000E-1
Scans to average: 1
Nonlinearity correction enabled: false
Boxcar width: 0
Storing dark spectrum: false
XAxis mode: Wavelengths
Number of Pixels in Spectrum: 1024
>>>>>Begin Spectral Data<<<<<
801.071	22166
801.214	22078
801.356	21884
801.499	21762
801.641	21603
801.783	21511
801.926	21606
802.068	21477
802.211	21488
802.353	21291
802.496	21157
802.638	21009
802.78	21047
802.923	20857
803.065	20838
803.208	20785
803.35	20906
803.492	20990
803.635	21062
803.777	20758
803.919	20902
804.061	21249
804.204	20914
804.346	20819
804.488	20800
804.63	20815
804.773	20743
804.915	20861
805.057	20948
805.199	20701
805.341	20826
805.483	20956
805.626	20765
805.768	20864
805.91	20731
806.052	20963
806.194	20667
806.336	20944
806.478	20651
806.62	20693
806.762	20887
806.904	21020
807.046	21195
807.188	21104
807.33	21093
807.472	21081
807.614	20998
807.756	20929
807.898	21028
808.04	20864
808.182	20868
808.324	20876
808.465	20994
808.607	21001
808.749	21180
808.891	21291
809.033	21294
809.174	21195
809.316	21135
809.458	21237
809.6	21306
809.741	21192
809.883	21173
810.025	21325
810.166	21264
810.308	21447
810.45	21294
810.591	21237
810.733	21142
810.875	21013
811.016	20880
811.158	20804
811.299	21043
811.441	21173
811.582	21051
811.724	20895
811.865	21100
812.007	21020
812.148	20986
812.29	21028
812.431	21211
812.573	21359
812.714	21260
812.855	21359
812.997	21603
813.138	21549
813.279	21625
813.421	21458
813.562	21450
813.703	21180
813.845	21207
813.986	20785
814.127	20533
814.268	20651
814.41	20640
814.551	20526
814.692	20640
814.833	20427
814.974	20476
815.115	20507
815.256	20389
815.397	20313
815.539	20377
815.68	20122
815.821	20180
815.962	20248
816.103	20161
816.244	20084
816.385	19906
816.526	19974
816.666	19696
816.807	19651
816.948	19841
817.089	19765
817.23	19620
817.371	19578
817.512	19609
817.653	19696
817.793	19643
817.934	19552
818.075	19662
818.216	19719
818.356	19662
818.497	19514
818.638	19358
818.778	19270
818.919	19247
819.06	19377
819.2	19464
819.341	19487
819.481	19430
819.622	19582
819.762	19837
819.903	19693
820.043	19635
820.184	19662
820.324	19609
820.465	19723
820.605	19544
820.746	19639
820.886	19518
821.026	19514
821.167	19540
821.307	19635
821.447	19468
821.588	19411
821.728	19270
821.868	19156
822.008	19008
822.149	19023
822.289	18993
822.429	18787
822.569	18597
822.709	18787
822.849	18566
822.99	18498
823.13	18551
823.27	18464
823.41	18300
823.55	18357
823.69	18357
823.83	18258
823.97	18216
824.11	18148
824.25	18125
824.389	18038
824.529	18079
824.669	18087
824.809	18247
824.949	18239
825.089	18163
825.228	18049
825.368	17961
825.508	17851
825.648	17901
825.787	17866
825.927	17942
826.067	17752
826.206	17760
826.346	17927
826.485	17859
826.625	17832
826.765	17961
826.904	17863
827.044	17649
827.183	17630
827.323	17638
827.462	17516
827.601	17642
827.741	17600
827.88	17608
828.02	17372
828.159	17566
828.298	17585
828.437	17512
828.577	17573
828.716	17646
828.855	17539
828.994	17277
829.134	17360
829.273	17250
829.412	17220
829.551	17250
829.69	17330
829.829	17311
829.968	17467
830.107	17372
830.246	17372
830.385	17273
830.524	17277
830.663	17181
830.802	17056
830.941	16930
831.08	16900
831.219	17014
831.357	16984
831.496	17136
831.635	17006
831.774	16908
831.913	16771
832.051	16869
832.19	16858
832.329	16744
832.467	16755
832.606	16542
832.744	16630
832.883	16637
833.022	16519
833.16	16672
833.299	16664
833.437	16653
833.576	16611
833.714	16668
833.852	16656
833.991	16660
834.129	16588
834.267	16748
834.406	16733
834.544	16683
834.682	16736
834.821	16630
834.959	16820
835.097	16649
835.235	16717
835.373	16721
835.511	16717
835.65	16615
835.788	16592
835.926	16318
836.064	16428
836.202	16474
836.34	16618
836.478	16672
836.615	16538
836.753	16649
836.891	16607
837.029	16637
837.167	16622
837.305	16485
837.443	16363
837.58	16440
837.718	16497
837.856	16436
837.993	16253
838.131	16504
838.269	16390
838.406	16371
838.544	16272
838.681	16101
838.819	16086
838.956	15968
839.094	15998
839.231	16071
839.369	16086
839.506	16363
839.643	16299
839.781	15903
839.918	15960
840.055	16029
840.193	15964
840.33	15953
840.467	15994
840.604	15994
840.742	16303
840.879	15941
841.016	15876
841.153	15926
841.29	16150
841.427	15937
841.564	15998
841.701	15953
841.838	15922
841.975	15857
842.112	15895
842.249	15690
842.385	15739
842.522	15979
842.659	15778
842.796	15804
842.933	15816
843.069	15766
843.206	15755
843.343	15854
843.479	15800
843.616	15793
843.752	15606
843.889	15576
844.025	15774
844.162	15564
844.298	15633
844.435	15584
844.571	15572
844.708	15656
844.844	15724
844.98	15644
845.117	15633
845.253	15576
845.389	15450
845.525	15485
845.661	15397
845.798	15283
845.934	15428
846.07	15370
846.206	15416
846.342	15523
846.478	15443
846.614	15199
846.75	15127
846.886	14990
847.022	15203
847.158	15203
847.294	15146
847.429	15230
847.565	15017
847.701	15325
847.837	14906
847.972	14849
848.108	14967
848.244	14918
848.379	14781
848.515	14716
848.65	14686
848.786	14811
848.921	14663
849.057	14800
849.192	14834
849.328	14819
849.463	14754
849.598	14689
849.734	14697
849.869	14636
850.004	14495
850.14	14518
850.275	14549
850.41	14408
850.545	14499
850.68	14499
850.815	14473
850.95	14526
851.085	14651
851.22	14613
851.355	14465
851.49	14480
851.625	14442
851.76	14484
851.895	14366
852.03	14358
852.165	14480
852.299	14526
852.434	14659
852.569	14552
852.703	14522
852.838	14659
852.973	14697
853.107	14686
853.242	14476
853.376	14393
853.511	14305
853.645	14313
853.78	14450
853.914	14419
854.048	14488
854.183	14282
854.317	14412
854.451	14697
854.585	14347
854.72	14389
854.854	14465
854.988	14240
855.122	14415
855.256	14271
855.39	14385
855.524	14454
855.658	14396
855.792	14495
855.926	14423
856.06	14499
856.194	14492
856.327	14461
856.461	14317
856.595	14324
856.729	14400
856.862	14492
856.996	14438
857.13	14457
857.263	14488
857.397	14526
857.53	14396
857.664	14434
857.797	14499
857.931	14492
858.064	14514
858.197	14541
858.331	14450
858.464	14385
858.597	14267
858.731	14412
858.864	14434
858.997	14423
859.13	14454
859.263	14419
859.396	14568
859.529	14465
859.662	14343
859.795	14385
859.928	14408
860.061	14571
860.194	14606
860.327	14358
860.46	14454
860.592	14495
860.725	14564
860.858	14408
860.99	14431
861.123	14324
861.256	14286
861.388	14336
861.521	15135
861.653	14336
861.786	14317
861.918	14309
862.05	14343
862.183	14355
862.315	14282
862.447	14408
862.58	14362
862.712	14176
862.844	14065
862.976	14313
863.108	14259
863.24	14598
863.372	14164
863.504	14142
863.636	14206
863.768	14214
863.9	14123
864.032	14161
864.164	14237
864.296	14256
864.428	14328
864.559	14233
864.691	14256
864.823	14263
864.954	14225
865.086	14271
865.217	14187
865.349	14161
865.48	14123
865.612	14024
865.743	14320
865.875	14263
866.006	14202
866.137	14084
866.269	14149
866.4	14233
866.531	14214
866.662	13970
866.793	14088
866.924	14065
867.055	14176
867.186	14115
867.317	14172
867.448	14092
867.579	14100
867.71	14054
867.841	14058
867.972	14168
868.103	14233
868.233	14221
868.364	14134
868.495	14168
868.625	14358
868.756	14465
868.886	14377
869.017	14533
869.147	14530
869.278	14564
869.408	14465
869.539	14469
869.669	14533
869.799	14484
869.929	14583
870.06	14499
870.19	14712
870.32	14701
870.45	14773
870.58	14849
870.71	15009
870.84	14971
870.97	14845
871.1	14883
871.23	15058
871.36	15074
871.489	14937
871.619	15077
871.749	15077
871.879	15097
872.008	15138
872.138	14986
872.267	14929
872.397	14986
872.526	14765
872.656	14739
872.785	14876
872.915	15116
873.044	15077
873.173	15028
873.303	15043
873.432	15138
873.561	15222
873.69	15062
873.819	15081
873.948	15161
874.077	15047
874.206	15047
874.335	15077
874.464	15211
874.593	15428
874.722	15283
874.851	15466
874.979	15378
875.108	15412
875.237	15378
875.365	15249
875.494	15359
875.623	15447
875.751	15389
875.88	15401
876.008	15523
876.136	15622
876.265	15857
876.393	15956
876.521	15892
876.65	15895
876.778	15819
876.906	15747
877.034	15804
877.162	15743
877.29	15679
877.418	15831
877.546	15781
877.674	15819
877.802	15823
877.93	15785
878.058	15747
878.185	15701
878.313	15804
878.441	15827
878.568	15701
878.696	15705
878.824	15705
878.951	15789
879.079	15922
879.206	16051
879.333	15903
879.461	15785
879.588	15930
879.715	16036
879.842	16116
879.97	15911
880.097	15713
880.224	15606
880.351	15618
880.478	15656
880.605	15652
880.732	15675
880.859	15835
880.986	15720
881.112	15720
881.239	15538
881.366	15507
881.493	15317
881.619	15363
881.746	15340
881.872	15283
881.999	15363
882.125	15260
882.252	15378
882.378	15325
882.505	15469
882.631	15207
882.757	15127
882.883	15275
883.01	15207
883.136	15108
883.262	14963
883.388	14880
883.514	15074
883.64	15093
883.766	15017
883.892	14868
884.018	14960
884.143	15100
884.269	15169
884.395	14895
884.52	14792
884.646	14857
884.772	14758
884.897	14708
885.023	14887
885.148	14864
885.274	15039
885.399	14891
885.524	14701
885.65	14861
885.775	14762
885.9	14788
886.025	14956
886.15	14788
886.275	14769
886.4	14792
886.525	14792
886.65	14777
886.775	14773
886.9	14864
887.025	15077
887.149	14777
887.274	14651
887.399	14636
887.523	14594
887.648	14522
887.773	14518
887.897	14689
888.021	14758
888.146	14610
888.27	14788
888.395	14720
888.519	14743
888.643	14746
888.767	14712
888.891	14541
889.015	14469
889.139	14545
889.263	14404
889.387	14579
889.511	14815
889.635	14632
889.759	14594
889.883	14526
890.006	14590
890.13	14465
890.254	14461
890.377	14503
890.501	14343
890.624	14332
890.748	14355
890.871	14206
890.995	14229
891.118	14111
891.241	14199
891.364	14195
891.488	14301
891.611	14126
891.734	14240
891.857	14358
891.98	14282
892.103	14263
892.226	14183
892.349	14138
892.471	14065
892.594	14153
892.717	14168
892.839	14225
892.962	14218
893.085	14419
893.207	14183
893.33	14081
893.452	14096
893.575	14294
893.697	14103
893.819	14438
893.941	14457
894.064	14267
894.186	14119
894.308	14153
894.43	14210
894.552	14400
894.674	14225
894.796	14202
894.918	14282
895.04	14305
895.161	14412
895.283	14377
895.405	14282
895.526	14336
895.648	14278
895.769	14396
895.891	14408
896.012	14537
896.134	14343
896.255	14427
896.376	14377
896.498	14347
896.619	14408
896.74	14339
896.861	14396
896.982	14857
897.103	14868
897.224	14640
897.345	14720
897.466	14659
897.587	14518
897.708	14754
897.828	14708
897.949	14579
898.07	14503
898.19	14590
898.311	14815
898.431	14560
898.552	14762
898.672	14815
898.792	14834
898.913	14781
899.033	14716
899.153	14556
899.273	14454
899.393	14484
899.513	14610
899.633	14568
899.753	14549
899.873	14564
899.993	14579
900.113	14511
900.232	14568
900.352	14541
900.472	14473
900.591	14442
900.711	14381
900.83	14351
900.95	14514
901.069	14571
901.189	14362
901.308	14214
901.427	14092
901.546	14096
901.665	14157
901.784	14187
901.904	14027
902.023	13944
902.141	13738
902.26	13693
902.379	13742
902.498	13662
902.617	13655
902.735	13731
902.854	13715
902.973	13594
903.091	13346
903.21	13426
903.328	13426
903.446	13266
903.565	13346
903.683	13282
903.801	13164
903.919	13282
904.038	13156
904.156	13027
904.274	13175
904.392	13145
904.51	13080
904.627	12989
904.745	13061
904.863	13088
904.981	12840
905.098	12760
905.216	12768
905.334	12787
905.451	12734
905.569	12692
905.686	12779
905.803	12730
905.921	12570
906.038	12703
906.155	12601
906.272	12418
906.389	12528
906.506	12319
906.623	12300
906.74	12376
906.857	12254
906.974	12228
907.091	12441
907.208	12509
907.324	12376
907.441	12220
907.557	12049
907.674	12011
907.79	11939
907.907	12064
908.023	12106
908.139	12064
908.256	12098
908.372	11992
908.488	12007
908.604	11828
908.72	11824
908.836	11840
908.952	11832
909.068	11794
909.184	11992
909.3	11870
909.415	11840
909.531	11897
909.647	11634
909.762	11589
909.878	11665
909.993	11562
910.108	11604
910.224	11592
910.339	11634
910.454	11490
910.57	11520
910.685	11360
910.8	11691
910.915	11585
911.03	11520
911.145	11330
911.259	11318
911.374	11273
911.489	11227
911.604	11227
911.718	11045
911.833	11098
911.947	10957
912.062	10919
912.176	11014
912.291	11086
912.405	11075
912.519	11250
912.633	11288
912.748	11147
912.862	11056
912.976	10957
913.09	10771
913.204	10919
913.318	10892
913.431	11045
913.545	11067
913.659	11079
913.772	11010
913.886	10801
914	10908
914.113	10877
914.226	10953
914.34	10862
914.453	10763
914.566	10809
914.68	10771
914.793	10885
914.906	10641
915.019	10474
915.132	10443
915.245	10519
915.358	10599
915.47	10653
915.583	10634
915.696	10538
915.809	10675
915.921	10664
916.034	10558
916.146	10474
916.259	10451
916.371	10596
916.483	10596
916.595	10500
916.708	10512
916.82	10493
916.932	10489
917.044	10432
917.156	10466
917.268	10405
917.38	10443
917.491	10333
917.603	10413
917.715	10451
917.826	10485
917.938	10447
918.049	10268
918.161	10455
918.272	10580
918.384	10485
918.495	10409
918.606	10249
918.717	10162
918.828	10352
918.939	10352
919.05	10196
919.161	10265
919.272	10025
919.383	10128
919.494	10299
919.604	10550
919.715	10310
919.826	10181
919.936	10246
920.047	10386
920.157	10333
920.267	10474
920.378	10436
920.488	10299
920.598	10497
920.708	10664
920.818	10550
920.928	10462
921.038	10626
921.148	10626
921.258	10303
921.368	10242
921.477	10154
921.587	10120
921.697	9979
921.806	10139
921.916	10029
922.025	9915
922.134	9911
922.244	9884
922.353	9918
922.462	9778
922.571	9690
922.68	9580
922.789	9553
922.898	9572
923.007	9538
923.116	9572
923.224	9538
923.333	9542
923.442	9507
923.55	9458
923.659	9515
923.767	9511
923.876	9351
923.984	9408
924.092	9351
924.201	9382
924.309	9447
924.417	9477
924.525	9447
924.633	9458
924.741	10417
924.849	9173
924.956	9386
925.064	9226
925.172	9173
925.279	9169
925.387	9245
925.494	9195
925.602	9336
925.709	9363
925.816	9192
925.924	9268
926.031	9294
926.138	9211
926.245	9253
926.352	9211
926.459	9207
926.566	9253
926.673	9199
926.779	9074
926.886	9077
926.993	8979
927.099	9009
927.206	8883
927.312	8925
927.419	8941
927.525	8929
927.631	9024
927.737	8933
927.843	8880
927.95	8693
928.056	8754
928.162	8811
928.267	8853
928.373	9534
928.479	8899
928.585	8705
928.69	8804
928.796	8872
928.901	8689
929.007	8560
929.112	8777
929.218	8682
929.323	8743
929.428	8590
929.533	8739
929.638	8716
929.743	8587
929.848	8613
929.953	8590
930.058	8575
930.163	8408
930.267	8347
930.372	8514
930.477	8358
930.581	8617
930.685	8518
930.79	8370
930.894	8423
930.998	8320
931.103	8514
931.207	8153
931.311	8111
931.415	8005
931.519	7883
931.623	7890
