Data from test_V78500241_3580.txt Node
Date: Fri Mar 25 14:58:38 CST 2022
User: usil
Spectrometer: V785-0024
Trigger mode: 0
Integration Time (sec): 4.000000E-1
Scans to average: 1
Nonlinearity correction enabled: false
Boxcar width: 0
Storing dark spectrum: false
XAxis mode: Wavelengths
Number of Pixels in Spectrum: 1024
>>>>>Begin Spectral Data<<<<<
801.071	21983
801.214	21732
801.356	21492
801.499	21416
801.641	21386
801.783	21336
801.926	21279
802.068	21256
802.211	21123
802.353	21028
802.496	20819
802.638	20891
802.78	20739
802.923	20629
803.065	20575
803.208	20495
803.35	20670
803.492	20697
803.635	20807
803.777	20606
803.919	20651
804.061	20925
804.204	20655
804.346	20621
804.488	20526
804.63	20522
804.773	20522
804.915	20488
805.057	20636
805.199	20549
805.341	20632
805.483	20640
805.626	20682
805.768	20579
805.91	20587
806.052	20518
806.194	20522
806.336	20659
806.478	20454
806.62	20454
806.762	20583
806.904	20625
807.046	21051
807.188	20902
807.33	20823
807.472	20998
807.614	20758
807.756	20826
807.898	20617
808.04	20533
808.182	20552
808.324	20587
808.465	20674
808.607	20796
808.749	20872
808.891	20979
809.033	21055
809.174	20994
809.316	20887
809.458	20975
809.6	20613
809.741	20956
809.883	20925
810.025	21055
810.166	21028
810.308	21100
810.45	20880
810.591	20845
810.733	20670
810.875	20617
811.016	20499
811.158	20457
811.299	20648
811.441	20682
811.582	20663
811.724	20636
811.865	20648
812.007	20609
812.148	20488
812.29	20705
812.431	20724
812.573	20982
812.714	21001
812.855	21146
812.997	21245
813.138	21275
813.279	21294
813.421	21127
813.562	21051
813.703	20842
813.845	20777
813.986	20545
814.127	20320
814.268	20191
814.41	20263
814.551	20145
814.692	20164
814.833	20062
814.974	20084
815.115	20191
815.256	20008
815.397	19993
815.539	20069
815.68	19963
815.821	19902
815.962	19944
816.103	19932
816.244	19784
816.385	19582
816.526	19525
816.666	19506
816.807	19339
816.948	19343
817.089	19381
817.23	19331
817.371	19301
817.512	19221
817.653	19301
817.793	19308
817.934	19293
818.075	19354
818.216	19244
818.356	19304
818.497	19232
818.638	18829
818.778	19118
818.919	18970
819.06	19084
819.2	19118
819.341	19187
819.481	19160
819.622	19278
819.762	19464
819.903	19468
820.043	19263
820.184	19339
820.324	19297
820.465	19289
820.605	19202
820.746	19255
820.886	19126
821.026	19270
821.167	19270
821.307	19232
821.447	19114
821.588	19217
821.728	18916
821.868	18833
822.008	18661
822.149	18642
822.289	18654
822.429	18384
822.569	18467
822.709	18479
822.849	18285
822.99	18129
823.13	18060
823.27	18125
823.41	18011
823.55	17984
823.69	18007
823.83	17984
823.97	17863
824.11	17786
824.25	17748
824.389	17760
824.529	17821
824.669	17691
824.809	17912
824.949	17931
825.089	17878
825.228	17760
825.368	17577
825.508	17600
825.648	17551
825.787	17585
825.927	17562
826.067	17570
826.206	17497
826.346	17448
826.485	17608
826.625	17547
826.765	17718
826.904	17577
827.044	17292
827.183	17250
827.323	17200
827.462	17337
827.601	17254
827.741	17105
827.88	17261
828.02	17204
828.159	17200
828.298	17318
828.437	17223
828.577	17220
828.716	17398
828.855	17151
828.994	17067
829.134	16987
829.273	17071
829.412	16889
829.551	16885
829.69	17014
829.829	16995
829.968	17052
830.107	17006
830.246	17075
830.385	17006
830.524	16892
830.663	16839
830.802	16752
830.941	16733
831.08	16588
831.219	16763
831.357	16596
831.496	16843
831.635	16694
831.774	16592
831.913	16405
832.051	16413
832.19	16485
832.329	16402
832.467	16284
832.606	16181
832.744	16360
832.883	16204
833.022	16318
833.16	16284
833.299	16344
833.437	16306
833.576	16390
833.714	16322
833.852	16417
833.991	16314
834.129	16409
834.267	16303
834.406	16344
834.544	16398
834.682	16280
834.821	16436
834.959	16497
835.097	16390
835.235	16455
835.373	16459
835.511	16394
835.65	16344
835.788	16261
835.926	16112
836.064	16090
836.202	16150
836.34	16295
836.478	16348
836.615	16314
836.753	16223
836.891	16360
837.029	16371
837.167	16268
837.305	16139
837.443	16200
837.58	16230
837.718	16230
837.856	16078
837.993	16135
838.131	16211
838.269	16139
838.406	16109
838.544	16044
838.681	15888
838.819	15831
838.956	15728
839.094	15785
839.231	15797
839.369	15869
839.506	16112
839.643	15899
839.781	15698
839.918	15667
840.055	15732
840.193	15812
840.33	15690
840.467	15720
840.604	15701
840.742	15968
840.879	15564
841.016	15644
841.153	15595
841.29	15865
841.427	15812
841.564	15739
841.701	15804
841.838	15652
841.975	15625
842.112	15679
842.249	15492
842.385	15515
842.522	15831
842.659	15439
842.796	15526
842.933	15507
843.069	15530
843.206	15397
843.343	15610
843.479	15538
843.616	15549
843.752	15291
843.889	15260
844.025	15469
844.162	15279
844.298	15443
844.435	15207
844.571	15195
844.708	15268
844.844	15450
844.98	15443
845.117	15374
845.253	15241
845.389	15085
845.525	15233
845.661	15188
845.798	15097
845.934	15123
846.07	15013
846.206	15195
846.342	15275
846.478	15097
846.614	14963
846.75	14845
846.886	14823
847.022	15013
847.158	14796
847.294	14887
847.429	14811
847.565	14807
847.701	15135
847.837	14583
847.972	14610
848.108	14811
848.244	14651
848.379	14476
848.515	14434
848.65	14454
848.786	14476
848.921	14522
849.057	14632
849.192	14602
849.328	14484
849.463	14480
849.598	14381
849.734	14442
849.869	14267
850.004	14351
850.14	14313
850.275	14218
850.41	14191
850.545	14218
850.68	14210
850.815	14180
850.95	14176
851.085	14469
851.22	14461
851.355	14248
851.49	14176
851.625	14164
851.76	14161
851.895	14062
852.03	14103
852.165	14180
852.299	14244
852.434	14332
852.569	14256
852.703	14248
852.838	14282
852.973	14259
853.107	14332
853.242	14183
853.376	14180
853.511	13989
853.645	14077
853.78	14164
853.914	14096
854.048	14073
854.183	14077
854.317	14180
854.451	14206
854.585	14172
854.72	14058
854.854	14142
854.988	13997
855.122	14065
855.256	13890
855.39	14073
855.524	14199
855.658	14111
855.792	14088
855.926	14225
856.06	14069
856.194	14244
856.327	13989
856.461	13993
856.595	14020
856.729	14115
856.862	14134
856.996	14149
857.13	14100
857.263	14301
857.397	14271
857.53	14027
857.664	14172
857.797	14206
857.931	14286
858.064	14149
858.197	14153
858.331	14103
858.464	14145
858.597	14031
858.731	13986
858.864	14149
858.997	14031
859.13	14180
859.263	14149
859.396	14096
859.529	14126
859.662	14164
859.795	14062
859.928	14123
860.061	14290
860.194	14313
860.327	14134
860.46	14214
860.592	14233
860.725	14161
860.858	14100
860.99	14164
861.123	14058
861.256	14153
861.388	14073
861.521	14899
861.653	14008
861.786	13894
861.918	13989
862.05	13913
862.183	14008
862.315	14161
862.447	14149
862.58	14046
862.712	13818
862.844	13852
862.976	13951
863.108	14012
863.24	14191
863.372	13780
863.504	13925
863.636	13921
863.768	13978
863.9	13887
864.032	13712
864.164	13913
864.296	13871
864.428	13997
864.559	14020
864.691	14054
864.823	13959
864.954	13955
865.086	13936
865.217	13868
865.349	13830
865.48	13887
865.612	13849
865.743	13955
865.875	13940
866.006	13864
866.137	13890
866.269	13887
866.4	13947
866.531	13856
866.662	13791
866.793	13761
866.924	13852
867.055	13871
867.186	13856
867.317	13799
867.448	13738
867.579	13753
867.71	13795
867.841	13791
867.972	13856
868.103	13936
868.233	13932
868.364	13860
868.495	13989
868.625	14062
868.756	14191
868.886	13986
869.017	14081
869.147	14252
869.278	14225
869.408	14157
869.539	14100
869.669	14290
869.799	14130
869.929	14278
870.06	14320
870.19	14438
870.32	14400
870.45	14366
870.58	14476
870.71	14556
870.84	14549
870.97	14434
871.1	14499
871.23	14663
871.36	14743
871.489	14606
871.619	14644
871.749	14750
871.879	14731
872.008	14716
872.138	14640
872.267	14819
872.397	14659
872.526	14541
872.656	14568
872.785	14667
872.915	14769
873.044	14838
873.173	14739
873.303	14883
873.432	14868
873.561	14864
873.69	14834
873.819	14788
873.948	14743
874.077	14807
874.206	14735
874.335	14796
874.464	14960
874.593	15184
874.722	15017
874.851	15207
874.979	15108
875.108	15218
875.237	15062
875.365	14975
875.494	15123
875.623	15135
875.751	14921
875.88	15116
876.008	15237
876.136	15249
876.265	15492
876.393	15648
876.521	15720
876.65	15641
876.778	15458
876.906	15507
877.034	15363
877.162	15454
877.29	15428
877.418	15454
877.546	15523
877.674	15469
877.802	15378
877.93	15534
878.058	15462
878.185	15416
878.313	15462
878.441	15515
878.568	15313
878.696	15561
878.824	15477
878.951	15557
879.079	15682
879.206	15808
879.333	15644
879.461	15637
879.588	15576
879.715	15755
879.842	15743
879.97	15629
880.097	15466
880.224	15363
880.351	15378
880.478	15367
880.605	15279
880.732	15279
880.859	15679
880.986	15435
881.112	15351
881.239	15291
881.366	15165
881.493	15036
881.619	14990
881.746	15024
881.872	14944
881.999	14990
882.125	14994
882.252	15093
882.378	15116
882.505	15264
882.631	15097
882.757	14845
882.883	14960
883.01	14857
883.136	14708
883.262	14708
883.388	14708
883.514	14887
883.64	14895
883.766	14750
883.892	14678
884.018	14724
884.143	14864
884.269	14899
884.395	14670
884.52	14556
884.646	14514
884.772	14488
884.897	14381
885.023	14568
885.148	14621
885.274	14724
885.399	14712
885.524	14640
885.65	14556
885.775	14541
885.9	14617
886.025	14667
886.15	14705
886.275	14480
886.4	14518
886.525	14556
886.65	14476
886.775	14503
886.9	14674
887.025	14735
887.149	14526
887.274	14446
887.399	14408
887.523	14465
887.648	14336
887.773	14240
887.897	14461
888.021	14476
888.146	14252
888.27	14454
888.395	14514
888.519	14450
888.643	14423
888.767	14533
888.891	14290
889.015	14248
889.139	14408
889.263	14244
889.387	14412
889.511	14526
889.635	14313
889.759	14210
889.883	14298
890.006	14237
890.13	14434
890.254	14157
890.377	14248
890.501	14096
890.624	14024
890.748	14153
890.871	14050
890.995	13944
891.118	13795
891.241	13951
891.364	13898
891.488	14081
891.611	13967
891.734	14005
891.857	13894
891.98	13928
892.103	14031
892.226	13947
892.349	13860
892.471	13708
892.594	13944
892.717	13982
892.839	13921
892.962	13932
893.085	14077
893.207	13955
893.33	13803
893.452	13894
893.575	14062
893.697	13925
893.819	14043
893.941	14240
894.064	14142
894.186	13849
894.308	13925
894.43	14096
894.552	14153
894.674	14062
894.796	13932
894.918	14035
895.04	13967
895.161	14092
895.283	14107
895.405	13963
895.526	14073
895.648	14050
895.769	14176
895.891	14202
896.012	14199
896.134	14081
896.255	14123
896.376	14058
896.498	14107
896.619	14157
896.74	14031
896.861	14221
896.982	14526
897.103	14617
897.224	14400
897.345	14370
897.466	14381
897.587	14385
897.708	14488
897.828	14343
897.949	14419
898.07	14244
898.19	14366
898.311	14564
898.431	14434
898.552	14461
898.672	14590
898.792	14541
898.913	14518
899.033	14473
899.153	14317
899.273	14328
899.393	14351
899.513	14400
899.633	14412
899.753	14469
899.873	14294
899.993	14351
900.113	14301
900.232	14431
900.352	14309
900.472	14263
900.591	14199
900.711	14206
900.83	14130
900.95	14290
901.069	14294
901.189	14145
901.308	13944
901.427	13890
901.546	13944
901.665	13913
901.784	13928
901.904	13750
902.023	13616
902.141	13438
902.26	13343
902.379	13483
902.498	13441
902.617	13346
902.735	13506
902.854	13430
902.973	13293
903.091	13160
903.21	13187
903.328	13129
903.446	13027
903.565	13038
903.683	13023
903.801	12852
903.919	13019
904.038	12958
904.156	12875
904.274	12798
904.392	12863
904.51	12840
904.627	12810
904.745	12875
904.863	12901
904.981	12677
905.098	12574
905.216	12525
905.334	12547
905.451	12532
905.569	12494
905.686	12528
905.803	12540
905.921	12372
906.038	12418
906.155	12380
906.272	12247
906.389	12289
906.506	12155
906.623	12079
906.74	12095
906.857	12072
906.974	12087
907.091	12167
907.208	12277
907.324	12239
907.441	12057
907.557	11882
907.674	11923
907.79	11847
907.907	11745
908.023	11950
908.139	11870
908.256	11779
908.372	11771
908.488	11695
908.604	11668
908.72	11623
908.836	11623
908.952	11646
909.068	11756
909.184	11710
909.3	11741
909.415	11649
909.531	11710
909.647	11455
909.762	11387
909.878	11341
909.993	11433
910.108	11334
910.224	11326
910.339	11429
910.454	11322
910.57	11269
910.685	11239
910.8	11516
910.915	11421
911.03	11189
911.145	11136
911.259	11025
911.374	11033
911.489	11060
911.604	10949
911.718	10790
911.833	10923
911.947	10786
912.062	10683
912.176	10835
912.291	10984
912.405	10831
912.519	11090
912.633	11052
912.748	10995
912.862	10896
912.976	10805
913.09	10645
913.204	10649
913.318	10721
913.431	10820
913.545	10816
913.659	10805
913.772	10729
913.886	10622
914	10630
914.113	10679
914.226	10812
914.34	10721
914.453	10599
914.566	10634
914.68	10519
914.793	10622
914.906	10409
915.019	10333
915.132	10268
915.245	10318
915.358	10371
915.47	10390
915.583	10325
915.696	10413
915.809	10462
915.921	10523
916.034	10314
916.146	10371
916.259	10333
916.371	10432
916.483	10500
916.595	10295
916.708	10257
916.82	10341
916.932	10276
917.044	10398
917.156	10314
917.268	10185
917.38	10188
917.491	10211
917.603	10249
917.715	10272
917.826	10295
917.938	10211
918.049	10067
918.161	10215
918.272	10443
918.384	10329
918.495	10272
918.606	10082
918.717	10010
918.828	10097
918.939	10135
919.05	10010
919.161	10116
919.272	9884
919.383	9953
919.494	10048
919.604	10287
919.715	10078
919.826	10063
919.936	10082
920.047	10207
920.157	10112
920.267	10238
920.378	10204
920.488	10078
920.598	10306
920.708	10432
920.818	10363
920.928	10314
921.038	10466
921.148	10462
921.258	10238
921.368	10082
921.477	10017
921.587	9953
921.697	9869
921.806	10029
921.916	9812
922.025	9713
922.134	9652
922.244	9618
922.353	9751
922.462	9568
922.571	9580
922.68	9355
922.789	9412
922.898	9428
923.007	9355
923.116	9420
923.224	9386
923.333	9336
923.442	9325
923.55	9283
923.659	9214
923.767	9313
923.876	9218
923.984	9340
924.092	9203
924.201	9211
924.309	9253
924.417	9226
924.525	9180
924.633	9203
924.741	9972
924.849	9005
924.956	9192
925.064	9097
925.172	8998
925.279	9013
925.387	8994
925.494	9001
925.602	9176
925.709	9169
925.816	8971
925.924	9001
926.031	9135
926.138	9013
926.245	9066
926.352	8956
926.459	9154
926.566	9157
926.673	8971
926.779	8933
926.886	8990
926.993	8720
927.099	8720
927.206	8678
927.312	8648
927.419	8781
927.525	8758
927.631	8773
927.737	8663
927.843	8678
927.95	8579
928.056	8606
928.162	8689
928.267	8686
928.373	9230
928.479	8689
928.585	8488
928.69	8632
928.796	8667
928.901	8632
929.007	8473
929.112	8613
929.218	8518
929.323	8530
929.428	8434
929.533	8575
929.638	8385
929.743	8514
929.848	8423
929.953	8396
930.058	8385
930.163	8248
930.267	8256
930.372	8355
930.477	8225
930.581	8495
930.685	8332
930.79	8161
930.894	8202
930.998	8164
931.103	8309
931.207	7932
931.311	7883
931.415	7887
931.519	7666
931.623	7731
