Data from test_V78500241_364.txt Node
Date: Fri Mar 25 14:36:15 CST 2022
User: usil
Spectrometer: V785-0024
Trigger mode: 0
Integration Time (sec): 4.000000E-1
Scans to average: 1
Nonlinearity correction enabled: false
Boxcar width: 0
Storing dark spectrum: false
XAxis mode: Wavelengths
Number of Pixels in Spectrum: 1024
>>>>>Begin Spectral Data<<<<<
801.071	26891
801.214	26914
801.356	26545
801.499	26336
801.641	26294
801.783	26157
801.926	26442
802.068	26119
802.211	26065
802.353	26046
802.496	25894
802.638	25807
802.78	25841
802.923	25670
803.065	25586
803.208	25715
803.35	25685
803.492	25852
803.635	25841
803.777	25837
803.919	25849
804.061	26012
804.204	25883
804.346	25670
804.488	25731
804.63	25731
804.773	25708
804.915	25761
805.057	25772
805.199	25693
805.341	25830
805.483	25776
805.626	25791
805.768	25761
805.91	25780
806.052	25807
806.194	25715
806.336	25871
806.478	25799
806.62	25772
806.762	25845
806.904	25852
807.046	26183
807.188	26092
807.33	26130
807.472	26138
807.614	25993
807.756	26244
807.898	26084
808.04	25784
808.182	25966
808.324	25936
808.465	25947
808.607	26088
808.749	26259
808.891	26339
809.033	26549
809.174	26389
809.316	26263
809.458	26358
809.6	26180
809.741	26393
809.883	26374
810.025	26526
810.166	26587
810.308	26514
810.45	26461
810.591	26427
810.733	26278
810.875	26130
811.016	26164
811.158	25940
811.299	26309
811.441	26221
811.582	26347
811.724	26214
811.865	26119
812.007	26172
812.148	26225
812.29	26153
812.431	26164
812.573	26332
812.714	26412
812.855	26640
812.997	26674
813.138	26716
813.279	26807
813.421	26636
813.562	26522
813.703	26457
813.845	26343
813.986	26031
814.127	25959
814.268	25742
814.41	25753
814.551	25674
814.692	25750
814.833	25605
814.974	25662
815.115	25696
815.256	25491
815.397	25521
815.539	25537
815.68	25407
815.821	25407
815.962	25575
816.103	25445
816.244	25384
816.385	25240
816.526	25072
816.666	24958
816.807	24913
816.948	24901
817.089	25046
817.23	24947
817.371	24837
817.512	24840
817.653	24730
817.793	24795
817.934	24757
818.075	24840
818.216	24764
818.356	24837
818.497	24642
818.638	24483
818.778	24616
818.919	24528
819.06	24540
819.2	24635
819.341	24677
819.481	24901
819.622	24806
819.762	25187
819.903	25000
820.043	24878
820.184	24810
820.324	24757
820.465	24913
820.605	24829
820.746	24768
820.886	24593
821.026	24878
821.167	24829
821.307	24825
821.447	24604
821.588	24677
821.728	24475
821.868	24213
822.008	24197
822.149	24049
822.289	24083
822.429	23824
822.569	23878
822.709	23870
822.849	23604
822.99	23570
823.13	23528
823.27	23433
823.41	23417
823.55	23330
823.69	23406
823.83	23360
823.97	23322
824.11	23067
824.25	23113
824.389	23197
824.529	23235
824.669	23109
824.809	23174
824.949	23189
825.089	23254
825.228	23117
825.368	22987
825.508	22965
825.648	22927
825.787	22957
825.927	23102
826.067	22862
826.206	23037
826.346	22980
826.485	22957
826.625	22896
826.765	23067
826.904	22927
827.044	22664
827.183	22668
827.323	22615
827.462	22668
827.601	22656
827.741	22603
827.88	22637
828.02	22519
828.159	22557
828.298	22691
828.437	22630
828.577	22421
828.716	22660
828.855	22592
828.994	22390
829.134	22299
829.273	22367
829.412	22246
829.551	22093
829.69	22169
829.829	22329
829.968	22394
830.107	22367
830.246	22295
830.385	22158
830.524	22246
830.663	22226
830.802	21991
830.941	21831
831.08	21812
831.219	21998
831.357	21899
831.496	22063
831.635	21747
831.774	21797
831.913	21751
832.051	21682
832.19	21698
832.329	21694
832.467	21629
832.606	21610
832.744	21564
832.883	21450
833.022	21458
833.16	21492
833.299	21435
833.437	21523
833.576	21564
833.714	21538
833.852	21595
833.991	21656
834.129	21648
834.267	21583
834.406	21515
834.544	21519
834.682	21625
834.821	21580
834.959	21743
835.097	21504
835.235	21511
835.373	21553
835.511	21561
835.65	21488
835.788	21462
835.926	21256
836.064	21203
836.202	21161
836.34	21348
836.478	21488
836.615	21249
836.753	21355
836.891	21511
837.029	21412
837.167	21325
837.305	21256
837.443	21180
837.58	21291
837.718	21275
837.856	21268
837.993	21138
838.131	21340
838.269	21150
838.406	21176
838.544	21017
838.681	20918
838.819	20883
838.956	20636
839.094	20750
839.231	20708
839.369	20868
839.506	20990
839.643	20868
839.781	20788
839.918	20648
840.055	20636
840.193	20606
840.33	20583
840.467	20629
840.604	20602
840.742	20845
840.879	20457
841.016	20571
841.153	20549
841.29	20705
841.427	20587
841.564	20648
841.701	20629
841.838	20457
841.975	20404
842.112	20518
842.249	20400
842.385	20317
842.522	20415
842.659	20294
842.796	20294
842.933	20244
843.069	20256
843.206	20278
843.343	20396
843.479	20370
843.616	20301
843.752	20153
843.889	20115
844.025	20218
844.162	19883
844.298	20195
844.435	20145
844.571	20161
844.708	20050
844.844	20157
844.98	20145
845.117	20161
845.253	20050
845.389	20005
845.525	20050
845.661	20005
845.798	19967
845.934	19856
846.07	19887
846.206	19902
846.342	19928
846.478	19875
846.614	19761
846.75	19449
846.886	19453
847.022	19685
847.158	19571
847.294	19540
847.429	19533
847.565	19544
847.701	19655
847.837	19202
847.972	19289
848.108	19285
848.244	19362
848.379	19107
848.515	19027
848.65	19091
848.786	19095
848.921	19175
849.057	19129
849.192	19266
849.328	19088
849.463	19133
849.598	18981
849.734	18973
849.869	18947
850.004	18791
850.14	18882
850.275	18856
850.41	18745
850.545	18757
850.68	18760
850.815	18837
850.95	18867
851.085	18981
851.22	18817
851.355	18795
851.49	18798
851.625	18787
851.76	18825
851.895	18711
852.03	18597
852.165	18745
852.299	18783
852.434	18848
852.569	18806
852.703	18783
852.838	18863
852.973	18939
853.107	18981
853.242	18692
853.376	18726
853.511	18486
853.645	18700
853.78	18821
853.914	18722
854.048	18604
854.183	18642
854.317	18658
854.451	18745
854.585	18661
854.72	18585
854.854	18783
854.988	18532
855.122	18623
855.256	18490
855.39	18555
855.524	18848
855.658	18604
855.792	18623
855.926	18658
856.06	18715
856.194	18825
856.327	18620
856.461	18517
856.595	18582
856.729	18582
856.862	18791
856.996	18658
857.13	18787
857.263	18692
857.397	18639
857.53	18570
857.664	18715
857.797	18650
857.931	18768
858.064	18593
858.197	18779
858.331	18608
858.464	18585
858.597	18456
858.731	18536
858.864	18498
858.997	18585
859.13	18692
859.263	18673
859.396	18650
859.529	18597
859.662	18604
859.795	18528
859.928	18726
860.061	18772
860.194	18749
860.327	18639
860.46	18540
860.592	18658
860.725	18719
860.858	18654
860.99	18635
861.123	18494
861.256	18494
861.388	18616
861.521	19381
861.653	18551
861.786	18563
861.918	18551
862.05	18566
862.183	18681
862.315	18722
862.447	18631
862.58	18585
862.712	18399
862.844	18399
862.976	18464
863.108	18475
863.24	18715
863.372	18235
863.504	18399
863.636	18258
863.768	18353
863.9	18330
864.032	18220
864.164	18216
864.296	18270
864.428	18300
864.559	18372
864.691	18429
864.823	18273
864.954	18357
865.086	18308
865.217	18338
865.349	18171
865.48	18205
865.612	18289
865.743	18334
865.875	18220
866.006	18300
866.137	18350
866.269	18285
866.4	18277
866.531	18228
866.662	18163
866.793	18152
866.924	18308
867.055	18243
867.186	18232
867.317	18148
867.448	18095
867.579	18243
867.71	18186
867.841	18144
867.972	18285
868.103	18136
868.233	18152
868.364	18247
868.495	18346
868.625	18506
868.756	18540
868.886	18338
869.017	18490
869.147	18502
869.278	18574
869.408	18315
869.539	18384
869.669	18471
869.799	18467
869.929	18578
870.06	18498
870.19	18825
870.32	18681
870.45	18844
870.58	18814
870.71	18871
870.84	18859
870.97	18741
871.1	18909
871.23	18943
871.36	19099
871.489	18722
871.619	19023
871.749	18947
871.879	18993
872.008	19004
872.138	19046
872.267	19095
872.397	19008
872.526	18741
872.656	18787
872.785	18913
872.915	19008
873.044	19141
873.173	19038
873.303	19099
873.432	19057
873.561	19046
873.69	19095
873.819	19084
873.948	19206
874.077	19088
874.206	18928
874.335	18920
874.464	19247
874.593	19327
874.722	19228
874.851	19438
874.979	19392
875.108	19350
875.237	19331
875.365	19194
875.494	19339
875.623	19438
875.751	19343
875.88	19293
876.008	19472
876.136	19628
876.265	19742
876.393	19788
876.521	19845
876.65	19803
876.778	19772
876.906	19772
877.034	19647
877.162	19776
877.29	19548
877.418	19704
877.546	19696
877.674	19750
877.802	19655
877.93	19757
878.058	19689
878.185	19548
878.313	19712
878.441	19689
878.568	19582
878.696	19670
878.824	19776
878.951	19807
879.079	19974
879.206	19906
879.333	19807
879.461	19776
879.588	19837
879.715	19902
879.842	20058
879.97	19822
880.097	19502
880.224	19525
880.351	19620
880.478	19575
880.605	19578
880.732	19521
880.859	19822
880.986	19620
881.112	19651
881.239	19514
881.366	19388
881.493	19217
881.619	19175
881.746	19198
881.872	19175
881.999	19198
882.125	19080
882.252	19304
882.378	19065
882.505	19247
882.631	19107
882.757	18970
882.883	19133
883.01	18916
883.136	18951
883.262	18821
883.388	18875
883.514	19038
883.64	18935
883.766	18924
883.892	18741
884.018	18745
884.143	18856
884.269	19008
884.395	18741
884.52	18650
884.646	18601
884.772	18563
884.897	18429
885.023	18681
885.148	18722
885.274	18692
885.399	18623
885.524	18601
885.65	18700
885.775	18639
885.9	18696
886.025	18597
886.15	18692
886.275	18536
886.4	18475
886.525	18616
886.65	18547
886.775	18525
886.9	18620
887.025	18642
887.149	18483
887.274	18426
887.399	18308
887.523	18407
887.648	18422
887.773	18243
887.897	18452
888.021	18410
888.146	18281
888.27	18517
888.395	18494
888.519	18338
888.643	18388
888.767	18403
888.891	18247
889.015	18117
889.139	18171
889.263	18136
889.387	18296
889.511	18429
889.635	18285
889.759	18155
889.883	18102
890.006	18038
890.13	18270
890.254	18091
890.377	18087
890.501	17840
890.624	17843
890.748	18003
890.871	17882
890.995	17802
891.118	17680
891.241	17767
891.364	17813
891.488	17870
891.611	17764
891.734	17726
891.857	17786
891.98	17783
892.103	17828
892.226	17847
892.349	17760
892.471	17471
892.594	17661
892.717	17737
892.839	17741
892.962	17737
893.085	17779
893.207	17733
893.33	17642
893.452	17627
893.575	17714
893.697	17703
893.819	17931
893.941	17863
894.064	17828
894.186	17695
894.308	17672
894.43	17794
894.552	18038
894.674	17786
894.796	17672
894.918	17824
895.04	17710
895.161	17817
895.283	17851
895.405	17668
895.526	17718
895.648	17767
895.769	17726
895.891	17745
896.012	17786
896.134	17779
896.255	17783
896.376	17668
896.498	17836
896.619	17927
896.74	17817
896.861	17840
896.982	18087
897.103	18277
897.224	18095
897.345	18060
897.466	17901
897.587	18087
897.708	18159
897.828	18011
897.949	17935
898.07	17824
898.19	18022
898.311	18045
898.431	18121
898.552	18003
898.672	18121
898.792	18083
898.913	18015
899.033	17954
899.153	17882
899.273	17748
899.393	17779
899.513	17786
899.633	17722
899.753	17840
899.873	17691
899.993	17771
900.113	17794
900.232	17748
900.352	17695
900.472	17668
900.591	17623
900.711	17657
900.83	17668
900.95	17726
901.069	17840
901.189	17539
901.308	17372
901.427	17235
901.546	17265
901.665	17277
901.784	17356
901.904	17261
902.023	17086
902.141	16881
902.26	16782
902.379	16869
902.498	16748
902.617	16733
902.735	16828
902.854	16691
902.973	16694
903.091	16565
903.21	16424
903.328	16466
903.446	16314
903.565	16352
903.683	16234
903.801	16158
903.919	16207
904.038	16162
904.156	16150
904.274	16074
904.392	16109
904.51	16150
904.627	16116
904.745	16112
904.863	16086
904.981	15835
905.098	15838
905.216	15648
905.334	15762
905.451	15625
905.569	15774
905.686	15587
905.803	15732
905.921	15519
906.038	15667
906.155	15614
906.272	15378
906.389	15382
906.506	15272
906.623	15241
906.74	15268
906.857	15123
906.974	15207
907.091	15294
907.208	15389
907.324	15317
907.441	15146
907.557	15017
907.674	15070
907.79	15001
907.907	15009
908.023	15070
908.139	15024
908.256	14902
908.372	14921
908.488	14815
908.604	14697
908.72	14705
908.836	14606
908.952	14663
909.068	14731
909.184	14853
909.3	14705
909.415	14720
909.531	14746
909.647	14423
909.762	14374
909.878	14366
909.993	14389
910.108	14457
910.224	14320
910.339	14362
910.454	14263
910.57	14183
910.685	14263
910.8	14423
910.915	14347
911.03	14233
911.145	14115
911.259	14062
911.374	14039
911.489	13970
911.604	13932
911.718	13875
911.833	13704
911.947	13662
912.062	13529
912.176	13803
912.291	13772
912.405	13788
912.519	13890
912.633	13921
912.748	13803
912.862	13738
912.976	13643
913.09	13384
913.204	13537
913.318	13658
913.431	13674
913.545	13727
913.659	13628
913.772	13563
913.886	13419
914	13407
914.113	13567
914.226	13521
914.34	13540
914.453	13297
914.566	13540
914.68	13354
914.793	13388
914.906	13206
915.019	13061
915.132	13122
915.245	13118
915.358	13194
915.47	13080
915.583	13110
915.696	13137
915.809	13278
915.921	13221
916.034	13091
916.146	13091
916.259	12958
916.371	13129
916.483	13069
916.595	12966
916.708	12909
916.82	12985
916.932	12920
917.044	13000
917.156	12852
917.268	12791
917.38	12856
917.491	12798
917.603	12814
917.715	12943
917.826	12920
917.938	12875
918.049	12681
918.161	12772
918.272	12909
918.384	12935
918.495	12821
918.606	12616
918.717	12540
918.828	12669
918.939	12601
919.05	12601
919.161	12703
919.272	12338
919.383	12418
919.494	12669
919.604	12738
919.715	12692
919.826	12540
919.936	12509
920.047	12673
920.157	12642
920.267	12806
920.378	12635
920.488	12559
920.598	12802
920.708	12947
920.818	12817
920.928	12772
921.038	12905
921.148	12875
921.258	12601
921.368	12448
921.477	12391
921.587	12410
921.697	12281
921.806	12365
921.916	12258
922.025	12053
922.134	12106
922.244	12076
922.353	12003
922.462	11931
922.571	11813
922.68	11741
922.789	11733
922.898	11695
923.007	11585
923.116	11699
923.224	11627
923.333	11707
923.442	11615
923.55	11573
923.659	11482
923.767	11596
923.876	11520
923.984	11688
924.092	11452
924.201	11562
924.309	11482
924.417	11535
924.525	11433
924.633	11566
924.741	12159
924.849	11220
924.956	11410
925.064	11170
925.172	11140
925.279	11246
925.387	11334
925.494	11261
925.602	11398
925.709	11315
925.816	11166
925.924	11178
926.031	11250
926.138	11193
926.245	11250
926.352	11147
926.459	11265
926.566	11258
926.673	11140
926.779	11010
926.886	10987
926.993	10896
927.099	10923
927.206	10812
927.312	10862
927.419	10927
927.525	10831
927.631	10866
927.737	10736
927.843	10774
927.95	10626
928.056	10706
928.162	10725
928.267	10763
928.373	11425
928.479	10824
928.585	10592
928.69	10740
928.796	10736
928.901	10641
929.007	10398
929.112	10626
929.218	10516
929.323	10527
929.428	10413
929.533	10637
929.638	10455
929.743	10462
929.848	10550
929.953	10398
930.058	10344
930.163	10185
930.267	10265
930.372	10371
930.477	10158
930.581	10394
930.685	10272
930.79	10120
930.894	10124
930.998	10154
931.103	10242
931.207	9873
931.311	9808
931.415	9724
931.519	9564
931.623	9447
