Data from test_V78500241_1353.txt Node
Date: Fri Mar 25 14:43:08 CST 2022
User: usil
Spectrometer: V785-0024
Trigger mode: 0
Integration Time (sec): 4.000000E-1
Scans to average: 1
Nonlinearity correction enabled: false
Boxcar width: 0
Storing dark spectrum: false
XAxis mode: Wavelengths
Number of Pixels in Spectrum: 1024
>>>>>Begin Spectral Data<<<<<
801.071	22573
801.214	22257
801.356	22219
801.499	21907
801.641	21846
801.783	21778
801.926	21732
802.068	21717
802.211	21720
802.353	21572
802.496	21275
802.638	21306
802.78	21203
802.923	21150
803.065	21036
803.208	20941
803.35	21116
803.492	21245
803.635	21192
803.777	21146
803.919	21241
804.061	21382
804.204	21157
804.346	21081
804.488	21017
804.63	21077
804.773	20910
804.915	20952
805.057	21116
805.199	21020
805.341	21047
805.483	21062
805.626	21104
805.768	20944
805.91	21009
806.052	21009
806.194	20982
806.336	21192
806.478	21058
806.62	21062
806.762	21081
806.904	21195
807.046	21370
807.188	21389
807.33	21435
807.472	21393
807.614	21412
807.756	21401
807.898	21298
808.04	21119
808.182	21173
808.324	21336
808.465	21317
808.607	21504
808.749	21675
808.891	21774
809.033	21762
809.174	21656
809.316	21618
809.458	21583
809.6	21435
809.741	21568
809.883	21545
810.025	21675
810.166	21625
810.308	21652
810.45	21591
810.591	21587
810.733	21344
810.875	21302
811.016	21176
811.158	21047
811.299	21283
811.441	21485
811.582	21287
811.724	21195
811.865	21199
812.007	21184
812.148	21146
812.29	21199
812.431	21348
812.573	21511
812.714	21694
812.855	21671
812.997	21869
813.138	21960
813.279	21861
813.421	21701
813.562	21580
813.703	21500
813.845	21485
813.986	21047
814.127	20853
814.268	20857
814.41	20819
814.551	20754
814.692	20781
814.833	20701
814.974	20701
815.115	20678
815.256	20533
815.397	20522
815.539	20522
815.68	20385
815.821	20366
815.962	20568
816.103	20503
816.244	20415
816.385	20229
816.526	20176
816.666	19986
816.807	19967
816.948	20069
817.089	20103
817.23	19974
817.371	19925
817.512	19951
817.653	19803
817.793	19955
817.934	19906
818.075	19761
818.216	19917
818.356	19921
818.497	19601
818.638	19571
818.778	19464
818.919	19643
819.06	19620
819.2	19563
819.341	19750
819.481	19784
819.622	20001
819.762	20027
819.903	20103
820.043	20016
820.184	19811
820.324	19856
820.465	19909
820.605	19997
820.746	19864
820.886	19700
821.026	19883
821.167	19833
821.307	19936
821.447	19784
821.588	19582
821.728	19578
821.868	19483
822.008	19297
822.149	19354
822.289	19247
822.429	19072
822.569	18996
822.709	18897
822.849	18886
822.99	18783
823.13	18604
823.27	18753
823.41	18642
823.55	18486
823.69	18517
823.83	18616
823.97	18483
824.11	18361
824.25	18327
824.389	18289
824.529	18471
824.669	18429
824.809	18384
824.949	18551
825.089	18494
825.228	18426
825.368	18178
825.508	18159
825.648	18228
825.787	18220
825.927	18171
826.067	18102
826.206	18182
826.346	18190
826.485	18155
826.625	18159
826.765	18163
826.904	18209
827.044	17992
827.183	17893
827.323	17794
827.462	17927
827.601	17783
827.741	17817
827.88	17901
828.02	17828
828.159	17840
828.298	17851
828.437	18019
828.577	17817
828.716	17980
828.855	17775
828.994	17592
829.134	17539
829.273	17638
829.412	17585
829.551	17414
829.69	17444
829.829	17589
829.968	17608
830.107	17729
830.246	17524
830.385	17570
830.524	17505
830.663	17433
830.802	17311
830.941	17185
831.08	17197
831.219	17261
831.357	17299
831.496	17414
831.635	17261
831.774	17098
831.913	17079
832.051	17014
832.19	16927
832.329	17052
832.467	16965
832.606	16889
832.744	16831
832.883	16847
833.022	16793
833.16	16976
833.299	16915
833.437	16896
833.576	16942
833.714	16968
833.852	16957
833.991	16999
834.129	17037
834.267	16980
834.406	17006
834.544	17086
834.682	16957
834.821	16984
834.959	17181
835.097	16873
835.235	16953
835.373	16885
835.511	16980
835.65	16831
835.788	16900
835.926	16733
836.064	16672
836.202	16588
836.34	16953
836.478	16995
836.615	16820
836.753	16892
836.891	16854
837.029	16923
837.167	16942
837.305	16873
837.443	16774
837.58	16641
837.718	16759
837.856	16752
837.993	16622
838.131	16618
838.269	16603
838.406	16596
838.544	16584
838.681	16470
838.819	16394
838.956	16257
839.094	16257
839.231	16185
839.369	16352
839.506	16713
839.643	16504
839.781	16329
839.918	16238
840.055	16219
840.193	16257
840.33	16215
840.467	16287
840.604	16261
840.742	16561
840.879	16109
841.016	16196
841.153	16211
841.29	16261
841.427	16230
841.564	16253
841.701	16287
841.838	16192
841.975	16211
842.112	16173
842.249	15987
842.385	16097
842.522	16284
842.659	16124
842.796	16074
842.933	16044
843.069	15991
843.206	16029
843.343	16116
843.479	16006
843.616	16055
843.752	15835
843.889	15793
844.025	15956
844.162	15800
844.298	15922
844.435	15842
844.571	15808
844.708	15857
844.844	16017
844.98	15968
845.117	15975
845.253	15915
845.389	15720
845.525	15797
845.661	15892
845.798	15762
845.934	15949
846.07	15903
846.206	15972
846.342	16017
846.478	15846
846.614	15549
846.75	15431
846.886	15424
847.022	15542
847.158	15450
847.294	15431
847.429	15481
847.565	15321
847.701	15660
847.837	15192
847.972	15074
848.108	15230
848.244	15233
848.379	15039
848.515	14937
848.65	14971
848.786	14979
848.921	14910
849.057	14998
849.192	15024
849.328	15097
849.463	14967
849.598	14963
849.734	14967
849.869	14861
850.004	14849
850.14	14765
850.275	14781
850.41	14678
850.545	14697
850.68	14743
850.815	14773
850.95	14792
851.085	14899
851.22	14754
851.355	14834
851.49	14769
851.625	14762
851.76	14705
851.895	14659
852.03	14651
852.165	14743
852.299	14769
852.434	14838
852.569	14724
852.703	14861
852.838	14815
852.973	14921
853.107	14891
853.242	14800
853.376	14708
853.511	14492
853.645	14503
853.78	14667
853.914	14674
854.048	14568
854.183	14594
854.317	14670
854.451	14785
854.585	14606
854.72	14594
854.854	14769
854.988	14499
855.122	14701
855.256	14488
855.39	14541
855.524	14727
855.658	14785
855.792	14689
855.926	14727
856.06	14727
856.194	14667
856.327	14686
856.461	14590
856.595	14533
856.729	14552
856.862	14796
856.996	14655
857.13	14670
857.263	14705
857.397	14735
857.53	14590
857.664	14682
857.797	14667
857.931	14777
858.064	14754
858.197	14735
858.331	14655
858.464	14590
858.597	14514
858.731	14686
858.864	14526
858.997	14552
859.13	14686
859.263	14617
859.396	14640
859.529	14625
859.662	14587
859.795	14549
859.928	14590
860.061	14796
860.194	14754
860.327	14629
860.46	14644
860.592	14800
860.725	14746
860.858	14651
860.99	14598
861.123	14541
861.256	14503
861.388	14602
861.521	15306
861.653	14560
861.786	14495
861.918	14457
862.05	14564
862.183	14587
862.315	14537
862.447	14640
862.58	14602
862.712	14423
862.844	14320
862.976	14446
863.108	14400
863.24	14739
863.372	14290
863.504	14495
863.636	14404
863.768	14415
863.9	14431
864.032	14271
864.164	14427
864.296	14469
864.428	14549
864.559	14419
864.691	14480
864.823	14533
864.954	14450
865.086	14454
865.217	14454
865.349	14385
865.48	14438
865.612	14454
865.743	14454
865.875	14423
866.006	14362
866.137	14301
866.269	14442
866.4	14400
866.531	14385
866.662	14275
866.793	14347
866.924	14229
867.055	14339
867.186	14355
867.317	14305
867.448	14294
867.579	14461
867.71	14263
867.841	14324
867.972	14442
868.103	14351
868.233	14305
868.364	14370
868.495	14469
868.625	14629
868.756	14724
868.886	14590
869.017	14587
869.147	14617
869.278	14663
869.408	14651
869.539	14644
869.669	14708
869.799	14754
869.929	14746
870.06	14667
870.19	14960
870.32	14792
870.45	14956
870.58	15058
870.71	15127
870.84	15104
870.97	14982
871.1	15058
871.23	15138
871.36	15192
871.489	15127
871.619	15211
871.749	15199
871.879	15195
872.008	15348
872.138	15226
872.267	15203
872.397	15165
872.526	14986
872.656	15005
872.785	15085
872.915	15161
873.044	15260
873.173	15264
873.303	15321
873.432	15302
873.561	15287
873.69	15252
873.819	15321
873.948	15317
874.077	15382
874.206	15230
874.335	15283
874.464	15523
874.593	15477
874.722	15496
874.851	15709
874.979	15526
875.108	15667
875.237	15580
875.365	15492
875.494	15618
875.623	15622
875.751	15568
875.88	15618
876.008	15720
876.136	15781
876.265	16002
876.393	16200
876.521	16071
876.65	16143
876.778	16021
876.906	15922
877.034	15941
877.162	15880
877.29	15884
877.418	16010
877.546	16002
877.674	15953
877.802	16131
877.93	16048
878.058	15915
878.185	15907
878.313	15949
878.441	16086
878.568	15945
878.696	15941
878.824	15975
878.951	16067
879.079	16295
879.206	16329
879.333	16268
879.461	16128
879.588	16249
879.715	16337
879.842	16371
879.97	16253
880.097	16029
880.224	15823
880.351	15884
880.478	15846
880.605	15816
880.732	15937
880.859	16101
880.986	15800
881.112	15915
881.239	15907
881.366	15587
881.493	15572
881.619	15580
881.746	15538
881.872	15477
881.999	15488
882.125	15477
882.252	15629
882.378	15587
882.505	15671
882.631	15439
882.757	15469
882.883	15439
883.01	15363
883.136	15294
883.262	15184
883.388	15173
883.514	15435
883.64	15367
883.766	15348
883.892	15260
884.018	15169
884.143	15382
884.269	15367
884.395	15146
884.52	14921
884.646	14979
884.772	14944
884.897	15013
885.023	15077
885.148	15058
885.274	15150
885.399	15142
885.524	15032
885.65	15001
885.775	15070
885.9	15028
886.025	15024
886.15	15157
886.275	15032
886.4	14960
886.525	14929
886.65	14937
886.775	14967
886.9	15237
887.025	15256
887.149	14944
887.274	14868
887.399	14868
887.523	14800
887.648	14708
887.773	14754
887.897	14998
888.021	14921
888.146	14765
888.27	15036
888.395	14986
888.519	14960
888.643	15001
888.767	14952
888.891	14750
889.015	14735
889.139	14758
889.263	14724
889.387	14804
889.511	14948
889.635	14876
889.759	14629
889.883	14644
890.006	14697
890.13	14902
890.254	14648
890.377	14651
890.501	14549
890.624	14484
890.748	14625
890.871	14393
890.995	14248
891.118	14362
891.241	14469
891.364	14377
891.488	14568
891.611	14408
891.734	14393
891.857	14438
891.98	14415
892.103	14522
892.226	14320
892.349	14389
892.471	14347
892.594	14336
892.717	14454
892.839	14385
892.962	14343
893.085	14499
893.207	14377
893.33	14366
893.452	14400
893.575	14492
893.697	14358
893.819	14629
893.941	14564
894.064	14492
894.186	14332
894.308	14317
894.43	14457
894.552	14674
894.674	14533
894.796	14347
894.918	14450
895.04	14404
895.161	14514
895.283	14442
895.405	14374
895.526	14461
895.648	14476
895.769	14503
895.891	14526
896.012	14621
896.134	14651
896.255	14488
896.376	14514
896.498	14537
896.619	14454
896.74	14587
896.861	14735
896.982	14887
897.103	15116
897.224	14788
897.345	14769
897.466	14815
897.587	14933
897.708	14902
897.828	14861
897.949	14674
898.07	14686
898.19	14705
898.311	14887
898.431	14807
898.552	14929
898.672	14975
898.792	14979
898.913	14849
899.033	14811
899.153	14754
899.273	14655
899.393	14807
899.513	14804
899.633	14746
899.753	14785
899.873	14762
899.993	14781
900.113	14727
900.232	14735
900.352	14678
900.472	14697
900.591	14640
900.711	14678
900.83	14636
900.95	14651
901.069	14682
901.189	14602
901.308	14374
901.427	14267
901.546	14256
901.665	14305
901.784	14324
901.904	14123
902.023	14043
902.141	13826
902.26	13849
902.379	13997
902.498	13864
902.617	13715
902.735	13898
902.854	13860
902.973	13852
903.091	13575
903.21	13529
903.328	13658
903.446	13521
903.565	13460
903.683	13449
903.801	13441
903.919	13430
904.038	13407
904.156	13099
904.274	13244
904.392	13213
904.51	13168
904.627	13141
904.745	13381
904.863	13232
904.981	12985
905.098	12894
905.216	12951
905.334	12913
905.451	12924
905.569	12894
905.686	12840
905.803	12867
905.921	12772
906.038	12833
906.155	12760
906.272	12513
906.389	12593
906.506	12498
906.623	12467
906.74	12509
906.857	12372
906.974	12403
907.091	12521
907.208	12654
907.324	12532
907.441	12426
907.557	12334
907.674	12182
907.79	12045
907.907	12190
908.023	12262
908.139	12273
908.256	12239
908.372	12220
908.488	12091
908.604	12083
908.72	11939
908.836	11893
908.952	11912
909.068	12019
909.184	12057
909.3	11996
909.415	12110
909.531	11999
909.647	11836
909.762	11779
909.878	11714
909.993	11821
910.108	11722
910.224	11718
910.339	11756
910.454	11653
910.57	11684
910.685	11467
910.8	11920
910.915	11859
911.03	11638
911.145	11349
911.259	11482
911.374	11486
911.489	11414
911.604	11292
911.718	11280
911.833	11242
911.947	11189
912.062	11075
912.176	11227
912.291	11174
912.405	11299
912.519	11311
912.633	11486
912.748	11296
912.862	11147
912.976	11121
913.09	11006
913.204	11067
913.318	11045
913.431	11239
913.545	11189
913.659	11189
913.772	11079
913.886	10946
914	10957
914.113	11060
914.226	11132
914.34	11075
914.453	10828
914.566	11086
914.68	10976
914.793	10900
914.906	10759
915.019	10672
915.132	10611
915.245	10683
915.358	10748
915.47	10714
915.583	10694
915.696	10839
915.809	10824
915.921	10820
916.034	10683
916.146	10603
916.259	10694
916.371	10790
916.483	10767
916.595	10603
916.708	10717
916.82	10637
916.932	10634
917.044	10634
917.156	10634
917.268	10538
917.38	10538
917.491	10504
917.603	10493
917.715	10611
917.826	10656
917.938	10462
918.049	10462
918.161	10466
918.272	10687
918.384	10626
918.495	10577
918.606	10417
918.717	10375
918.828	10478
918.939	10402
919.05	10276
919.161	10508
919.272	10181
919.383	10322
919.494	10481
919.604	10668
919.715	10333
919.826	10333
919.936	10436
920.047	10481
920.157	10523
920.267	10603
920.378	10478
920.488	10478
920.598	10611
920.708	10771
920.818	10641
920.928	10573
921.038	10774
921.148	10748
921.258	10394
921.368	10409
921.477	10303
921.587	10215
921.697	10120
921.806	10314
921.916	10158
922.025	9998
922.134	10036
922.244	9937
922.353	10032
922.462	9873
922.571	9808
922.68	9705
922.789	9679
922.898	9603
923.007	9614
923.116	9633
923.224	9595
923.333	9682
923.442	9511
923.55	9572
923.659	9580
923.767	9610
923.876	9549
923.984	9576
924.092	9435
924.201	9530
924.309	9538
924.417	9515
924.525	9439
924.633	9610
924.741	10314
924.849	9226
924.956	9348
925.064	9313
925.172	9249
925.279	9157
925.387	9355
925.494	9283
925.602	9382
925.709	9336
925.816	9264
925.924	9291
926.031	9374
926.138	9275
926.245	9348
926.352	9173
926.459	9374
926.566	9397
926.673	9222
926.779	9093
926.886	9089
926.993	9028
927.099	9001
927.206	8956
927.312	8967
927.419	9024
927.525	9009
927.631	9119
927.737	8986
927.843	8842
927.95	8830
928.056	8876
928.162	8952
928.267	8956
928.373	9523
928.479	8971
928.585	8708
928.69	8849
928.796	8899
928.901	8792
929.007	8750
929.112	8823
929.218	8785
929.323	8727
929.428	8720
929.533	8910
929.638	8697
929.743	8667
929.848	8785
929.953	8693
930.058	8522
930.163	8537
930.267	8511
930.372	8568
930.477	8408
930.581	8689
930.685	8602
930.79	8404
930.894	8457
930.998	8438
931.103	8526
931.207	8202
931.311	8206
931.415	8046
931.519	7917
931.623	7898
