Data from test_V78500241_3701.txt Node
Date: Fri Mar 25 14:59:29 CST 2022
User: usil
Spectrometer: V785-0024
Trigger mode: 0
Integration Time (sec): 4.000000E-1
Scans to average: 1
Nonlinearity correction enabled: false
Boxcar width: 0
Storing dark spectrum: false
XAxis mode: Wavelengths
Number of Pixels in Spectrum: 1024
>>>>>Begin Spectral Data<<<<<
801.071	21869
801.214	21888
801.356	21545
801.499	21348
801.641	21279
801.783	21329
801.926	21287
802.068	21272
802.211	21108
802.353	21188
802.496	20792
802.638	20720
802.78	20708
802.923	20545
803.065	20526
803.208	20617
803.35	20724
803.492	20659
803.635	20750
803.777	20583
803.919	20708
804.061	21043
804.204	20659
804.346	20412
804.488	20461
804.63	20530
804.773	20400
804.915	20556
805.057	20560
805.199	20526
805.341	20564
805.483	20590
805.626	20507
805.768	20461
805.91	20606
806.052	20590
806.194	20450
806.336	20617
806.478	20396
806.62	20442
806.762	20526
806.904	20617
807.046	20853
807.188	20830
807.33	20746
807.472	20876
807.614	20659
807.756	20727
807.898	20606
808.04	20492
808.182	20556
808.324	20526
808.465	20606
808.607	20750
808.749	20842
808.891	20785
809.033	20941
809.174	20895
809.316	20762
809.458	20872
809.6	20739
809.741	20876
809.883	20845
810.025	21024
810.166	21017
810.308	20887
810.45	20944
810.591	20887
810.733	20663
810.875	20640
811.016	20514
811.158	20454
811.299	20640
811.441	20697
811.582	20682
811.724	20644
811.865	20530
812.007	20667
812.148	20552
812.29	20655
812.431	20800
812.573	20868
812.714	21028
812.855	21085
812.997	21123
813.138	21283
813.279	21245
813.421	21154
813.562	21009
813.703	20826
813.845	20682
813.986	20404
814.127	20256
814.268	20164
814.41	20183
814.551	20138
814.692	20183
814.833	20039
814.974	20062
815.115	20126
815.256	20050
815.397	20187
815.539	19940
815.68	19833
815.821	19776
815.962	19799
816.103	19864
816.244	19841
816.385	19586
816.526	19537
816.666	19449
816.807	19308
816.948	19266
817.089	19381
817.23	19308
817.371	19221
817.512	19240
817.653	19327
817.793	19206
817.934	19327
818.075	19297
818.216	19228
818.356	19247
818.497	19114
818.638	18993
818.778	19042
818.919	18993
819.06	19103
819.2	19126
819.341	19145
819.481	19148
819.622	19304
819.762	19510
819.903	19445
820.043	19320
820.184	19369
820.324	19232
820.465	19354
820.605	19301
820.746	19259
820.886	19095
821.026	19221
821.167	19304
821.307	19247
821.447	19148
821.588	19099
821.728	18989
821.868	18768
822.008	18757
822.149	18597
822.289	18498
822.429	18517
822.569	18388
822.709	18372
822.849	18235
822.99	18152
823.13	18205
823.27	18129
823.41	17908
823.55	17923
823.69	17969
823.83	17882
823.97	17878
824.11	17802
824.25	17672
824.389	17771
824.529	17783
824.669	17729
824.809	17809
824.949	17874
825.089	17703
825.228	17638
825.368	17577
825.508	17535
825.648	17524
825.787	17516
825.927	17452
826.067	17452
826.206	17402
826.346	17474
826.485	17543
826.625	17532
826.765	17718
826.904	17589
827.044	17235
827.183	17189
827.323	17208
827.462	17277
827.601	17261
827.741	17117
827.88	17246
828.02	17083
828.159	17193
828.298	17250
828.437	17330
828.577	17109
828.716	17349
828.855	17216
828.994	16946
829.134	16930
829.273	16965
829.412	16831
829.551	16854
829.69	16995
829.829	16991
829.968	17155
830.107	17022
830.246	16965
830.385	16843
830.524	16763
830.663	16786
830.802	16710
830.941	16694
831.08	16634
831.219	16656
831.357	16717
831.496	16820
831.635	16733
831.774	16592
831.913	16577
832.051	16363
832.19	16394
832.329	16466
832.467	16306
832.606	16230
832.744	16291
832.883	16238
833.022	16246
833.16	16226
833.299	16314
833.437	16390
833.576	16295
833.714	16367
833.852	16413
833.991	16360
834.129	16314
834.267	16424
834.406	16341
834.544	16436
834.682	16382
834.821	16341
834.959	16519
835.097	16360
835.235	16417
835.373	16459
835.511	16413
835.65	16246
835.788	16356
835.926	16051
836.064	16036
836.202	16211
836.34	16249
836.478	16333
836.615	16375
836.753	16276
836.891	16329
837.029	16394
837.167	16196
837.305	16166
837.443	16211
837.58	16055
837.718	16230
837.856	16204
837.993	16124
838.131	16166
838.269	16078
838.406	15968
838.544	16021
838.681	15922
838.819	15797
838.956	15743
839.094	15663
839.231	15724
839.369	15865
839.506	16112
839.643	15922
839.781	15736
839.918	15709
840.055	15709
840.193	15667
840.33	15694
840.467	15641
840.604	15720
840.742	16032
840.879	15526
841.016	15625
841.153	15614
841.29	15812
841.427	15873
841.564	15743
841.701	15816
841.838	15660
841.975	15557
842.112	15652
842.249	15599
842.385	15401
842.522	15724
842.659	15545
842.796	15473
842.933	15507
843.069	15374
843.206	15412
843.343	15568
843.479	15599
843.616	15599
843.752	15397
843.889	15294
844.025	15382
844.162	15294
844.298	15313
844.435	15325
844.571	15306
844.708	15275
844.844	15393
844.98	15481
845.117	15325
845.253	15279
845.389	15146
845.525	15237
845.661	15199
845.798	15085
845.934	15070
846.07	15005
846.206	15192
846.342	15256
846.478	15047
846.614	14853
846.75	14842
846.886	14762
847.022	14925
847.158	14857
847.294	14861
847.429	14895
847.565	14800
847.701	15043
847.837	14613
847.972	14571
848.108	14739
848.244	14598
848.379	14514
848.515	14495
848.65	14450
848.786	14446
848.921	14476
849.057	14552
849.192	14590
849.328	14571
849.463	14431
849.598	14442
849.734	14374
849.869	14374
850.004	14233
850.14	14225
850.275	14237
850.41	14115
850.545	14180
850.68	14210
850.815	14183
850.95	14191
851.085	14450
851.22	14328
851.355	14202
851.49	14168
851.625	14183
851.76	14176
851.895	14084
852.03	14092
852.165	14187
852.299	14282
852.434	14317
852.569	14263
852.703	14256
852.838	14278
852.973	14358
853.107	14381
853.242	14183
853.376	14084
853.511	14024
853.645	14069
853.78	14218
853.914	14134
854.048	14050
854.183	14088
854.317	14149
854.451	14161
854.585	14020
854.72	14035
854.854	14077
854.988	14012
855.122	14088
855.256	14020
855.39	13982
855.524	14263
855.658	14138
855.792	14115
855.926	14153
856.06	14081
856.194	14267
856.327	14027
856.461	14035
856.595	14069
856.729	14012
856.862	14183
856.996	14054
857.13	14252
857.263	14195
857.397	14115
857.53	14096
857.664	14195
857.797	14263
857.931	14199
858.064	14062
858.197	14252
858.331	14130
858.464	14062
858.597	13993
858.731	14084
858.864	14130
858.997	14115
859.13	14157
859.263	14233
859.396	14164
859.529	14058
859.662	14035
859.795	14020
859.928	14115
860.061	14263
860.194	14286
860.327	14142
860.46	14172
860.592	14214
860.725	14210
860.858	14206
860.99	14130
861.123	13951
861.256	14077
861.388	14016
861.521	14769
861.653	14027
861.786	13951
861.918	14016
862.05	13974
862.183	14058
862.315	14096
862.447	14180
862.58	13978
862.712	13936
862.844	13830
862.976	13852
863.108	14005
863.24	14332
863.372	13712
863.504	13837
863.636	13864
863.768	13928
863.9	13898
864.032	13845
864.164	13811
864.296	13898
864.428	14012
864.559	13974
864.691	14016
864.823	13963
864.954	13936
865.086	13955
865.217	13944
865.349	13780
865.48	13883
865.612	13894
865.743	14103
865.875	13925
866.006	13833
866.137	13818
866.269	13818
866.4	13807
866.531	13856
866.662	13704
866.793	13887
866.924	13845
867.055	13909
867.186	13841
867.317	13860
867.448	13833
867.579	13849
867.71	13769
867.841	13677
867.972	13807
868.103	13879
868.233	13940
868.364	13925
868.495	13955
868.625	14100
868.756	14126
868.886	13982
869.017	14077
869.147	14218
869.278	14221
869.408	14161
869.539	14134
869.669	14191
869.799	14153
869.929	14157
870.06	14290
870.19	14415
870.32	14328
870.45	14507
870.58	14431
870.71	14682
870.84	14697
870.97	14495
871.1	14549
871.23	14743
871.36	14758
871.489	14571
871.619	14629
871.749	14800
871.879	14750
872.008	14872
872.138	14735
872.267	14636
872.397	14571
872.526	14514
872.656	14632
872.785	14621
872.915	14735
873.044	14781
873.173	14708
873.303	14918
873.432	14823
873.561	14830
873.69	14777
873.819	14765
873.948	14906
874.077	14800
874.206	14773
874.335	14880
874.464	14967
874.593	15036
874.722	14982
874.851	15039
874.979	15093
875.108	15100
875.237	15039
875.365	15009
875.494	15058
875.623	15119
875.751	15112
875.88	15138
876.008	15241
876.136	15245
876.265	15530
876.393	15679
876.521	15504
876.65	15561
876.778	15561
876.906	15485
877.034	15462
877.162	15557
877.29	15507
877.418	15538
877.546	15504
877.674	15485
877.802	15526
877.93	15454
878.058	15355
878.185	15317
878.313	15469
878.441	15519
878.568	15401
878.696	15420
878.824	15458
878.951	15477
879.079	15797
879.206	15861
879.333	15568
879.461	15549
879.588	15576
879.715	15618
879.842	15846
879.97	15553
880.097	15378
880.224	15317
880.351	15393
880.478	15492
880.605	15317
880.732	15386
880.859	15557
880.986	15424
881.112	15310
881.239	15260
881.366	15100
881.493	15036
881.619	15093
881.746	15047
881.872	15039
881.999	15039
882.125	14933
882.252	15013
882.378	15173
882.505	15222
882.631	14979
882.757	14804
882.883	14845
883.01	14811
883.136	14743
883.262	14689
883.388	14644
883.514	14773
883.64	14929
883.766	14765
883.892	14648
884.018	14746
884.143	14826
884.269	14861
884.395	14575
884.52	14632
884.646	14587
884.772	14480
884.897	14408
885.023	14537
885.148	14670
885.274	14655
885.399	14701
885.524	14495
885.65	14552
885.775	14533
885.9	14495
886.025	14587
886.15	14655
886.275	14537
886.4	14396
886.525	14556
886.65	14377
886.775	14492
886.9	14598
887.025	14769
887.149	14522
887.274	14358
887.399	14301
887.523	14412
887.648	14294
887.773	14252
887.897	14484
888.021	14374
888.146	14259
888.27	14587
888.395	14511
888.519	14389
888.643	14419
888.767	14427
888.891	14408
889.015	14161
889.139	14320
889.263	14176
889.387	14446
889.511	14415
889.635	14396
889.759	14286
889.883	14214
890.006	14267
890.13	14400
890.254	14244
890.377	14210
890.501	14062
890.624	14012
890.748	14176
890.871	13955
890.995	13967
891.118	13883
891.241	14043
891.364	13921
891.488	14020
891.611	14008
891.734	13928
891.857	14054
891.98	13986
892.103	14046
892.226	13936
892.349	13887
892.471	13852
892.594	13913
892.717	13932
892.839	14024
892.962	13989
893.085	13921
893.207	13963
893.33	13830
893.452	13894
893.575	13913
893.697	13963
893.819	14031
893.941	14149
894.064	14069
894.186	13951
894.308	13871
894.43	14020
894.552	14142
894.674	14069
894.796	13978
894.918	14001
895.04	13925
895.161	14107
895.283	13989
895.405	14020
895.526	14107
895.648	14039
895.769	14123
895.891	14161
896.012	14145
896.134	14111
896.255	14157
896.376	14065
896.498	14084
896.619	14218
896.74	14058
896.861	14157
896.982	14522
897.103	14571
897.224	14431
897.345	14351
897.466	14218
897.587	14244
897.708	14488
897.828	14358
897.949	14320
898.07	14275
898.19	14324
898.311	14499
898.431	14305
898.552	14457
898.672	14598
898.792	14541
898.913	14568
899.033	14431
899.153	14275
899.273	14275
899.393	14351
899.513	14370
899.633	14309
899.753	14389
899.873	14248
899.993	14320
900.113	14290
900.232	14415
900.352	14339
900.472	14229
900.591	14134
900.711	14149
900.83	14100
900.95	14271
901.069	14351
901.189	14088
901.308	13871
901.427	13875
901.546	13932
901.665	13947
901.784	13856
901.904	13837
902.023	13719
902.141	13548
902.26	13464
902.379	13483
902.498	13392
902.617	13392
902.735	13449
902.854	13464
902.973	13381
903.091	13126
903.21	13152
903.328	13206
903.446	13053
903.565	12981
903.683	12989
903.801	12871
903.919	13080
904.038	13042
904.156	12825
904.274	12916
904.392	12798
904.51	12821
904.627	12859
904.745	12871
904.863	12924
904.981	12597
905.098	12513
905.216	12544
905.334	12471
905.451	12604
905.569	12486
905.686	12563
905.803	12506
905.921	12380
906.038	12479
906.155	12342
906.272	12258
906.389	12258
906.506	12110
906.623	12110
906.74	12152
906.857	12064
906.974	12011
907.091	12182
907.208	12194
907.324	12167
907.441	12114
907.557	11874
907.674	11912
907.79	11824
907.907	11882
908.023	11733
908.139	11912
908.256	11843
908.372	11843
908.488	11790
908.604	11611
908.72	11585
908.836	11661
908.952	11634
909.068	11627
909.184	11745
909.3	11577
909.415	11756
909.531	11695
909.647	11376
909.762	11452
909.878	11356
909.993	11383
910.108	11383
910.224	11372
910.339	11353
910.454	11269
910.57	11356
910.685	11246
910.8	11501
910.915	11398
911.03	11258
911.145	11113
911.259	11083
911.374	11189
911.489	11010
911.604	11071
911.718	10915
911.833	10877
911.947	10793
912.062	10710
912.176	10843
912.291	10923
912.405	10839
912.519	10968
912.633	11060
912.748	10938
912.862	10892
912.976	10683
913.09	10546
913.204	10626
913.318	10691
913.431	10889
913.545	10839
913.659	10923
913.772	10721
913.886	10580
914	10592
914.113	10733
914.226	10752
914.34	10664
914.453	10634
914.566	10626
914.68	10569
914.793	10546
914.906	10413
915.019	10379
915.132	10257
915.245	10356
915.358	10341
915.47	10413
915.583	10424
915.696	10360
915.809	10470
915.921	10626
916.034	10314
916.146	10398
916.259	10337
916.371	10405
916.483	10367
916.595	10261
916.708	10356
916.82	10272
916.932	10265
917.044	10329
917.156	10242
917.268	10154
917.38	10188
917.491	10166
917.603	10223
917.715	10238
917.826	10386
917.938	10207
918.049	10055
918.161	10268
918.272	10394
918.384	10379
918.495	10268
918.606	10036
918.717	9998
918.828	10067
918.939	10093
919.05	10059
919.161	10147
919.272	9865
919.383	9941
919.494	10166
919.604	10211
919.715	10093
919.826	10090
919.936	10044
920.047	10207
920.157	10124
920.267	10223
920.378	10116
920.488	10093
920.598	10386
920.708	10443
920.818	10310
920.928	10303
921.038	10497
921.148	10394
921.258	10173
921.368	10086
921.477	10010
921.587	10036
921.697	9880
921.806	10120
921.916	9907
922.025	9778
922.134	9747
922.244	9644
922.353	9800
922.462	9610
922.571	9526
922.68	9397
922.789	9332
922.898	9511
923.007	9325
923.116	9515
923.224	9370
923.333	9382
923.442	9298
923.55	9302
923.659	9340
923.767	9332
923.876	9298
923.984	9332
924.092	9214
924.201	9317
924.309	9157
924.417	9321
924.525	9218
924.633	9283
924.741	10169
924.849	9028
924.956	9249
925.064	9058
925.172	8967
925.279	9058
925.387	9058
925.494	9058
925.602	9245
925.709	9150
925.816	9020
925.924	9047
926.031	9176
926.138	9157
926.245	9097
926.352	8982
926.459	9203
926.566	9135
926.673	9070
926.779	8975
926.886	8880
926.993	8800
927.099	8804
927.206	8758
927.312	8701
927.419	8804
927.525	8773
927.631	8819
927.737	8735
927.843	8670
927.95	8598
928.056	8617
928.162	8773
928.267	8746
928.373	9348
928.479	8788
928.585	8507
928.69	8663
928.796	8686
928.901	8522
929.007	8507
929.112	8602
929.218	8571
929.323	8522
929.428	8511
929.533	8610
929.638	8476
929.743	8457
929.848	8556
929.953	8480
930.058	8461
930.163	8225
930.267	8263
930.372	8423
930.477	8271
930.581	8446
930.685	8347
930.79	8210
930.894	8191
930.998	8275
931.103	8309
931.207	7978
931.311	8001
931.415	7875
931.519	7788
931.623	7753
