Data from test_V78500241_2576.txt Node
Date: Fri Mar 25 14:51:39 CST 2022
User: usil
Spectrometer: V785-0024
Trigger mode: 0
Integration Time (sec): 4.000000E-1
Scans to average: 1
Nonlinearity correction enabled: false
Boxcar width: 0
Storing dark spectrum: false
XAxis mode: Wavelengths
Number of Pixels in Spectrum: 1024
>>>>>Begin Spectral Data<<<<<
801.071	22055
801.214	21903
801.356	21854
801.499	21603
801.641	21393
801.783	21492
801.926	21435
802.068	21374
802.211	21313
802.353	21184
802.496	20944
802.638	20918
802.78	21024
802.923	20876
803.065	20716
803.208	20644
803.35	20769
803.492	20921
803.635	20872
803.777	20678
803.919	20910
804.061	21062
804.204	20746
804.346	20708
804.488	20663
804.63	20575
804.773	20663
804.915	20659
805.057	20872
805.199	20621
805.341	20689
805.483	20731
805.626	20727
805.768	20564
805.91	20689
806.052	20682
806.194	20632
806.336	20758
806.478	20545
806.62	20522
806.762	20758
806.904	20819
807.046	21146
807.188	20910
807.33	20948
807.472	21039
807.614	20880
807.756	20948
807.898	20765
808.04	20777
808.182	20746
808.324	20758
808.465	20758
808.607	20963
808.749	20914
808.891	21131
809.033	21211
809.174	21218
809.316	21036
809.458	21032
809.6	21062
809.741	21131
809.883	21096
810.025	21252
810.166	21359
810.308	21252
810.45	21043
810.591	21085
810.733	20952
810.875	20750
811.016	20731
811.158	20731
811.299	20853
811.441	20956
811.582	20902
811.724	20819
811.865	20887
812.007	20712
812.148	20842
812.29	20902
812.431	20960
812.573	21039
812.714	21199
812.855	21367
812.997	21412
813.138	21576
813.279	21363
813.421	21306
813.562	21199
813.703	21176
813.845	20921
813.986	20765
814.127	20389
814.268	20317
814.41	20434
814.551	20423
814.692	20415
814.833	20336
814.974	20278
815.115	20412
815.256	20164
815.397	20221
815.539	20301
815.68	20168
815.821	19940
815.962	20100
816.103	20050
816.244	19921
816.385	19757
816.526	19761
816.666	19708
816.807	19445
816.948	19632
817.089	19590
817.23	19563
817.371	19544
817.512	19521
817.653	19422
817.793	19407
817.934	19487
818.075	19544
818.216	19487
818.356	19468
818.497	19400
818.638	19213
818.778	19053
818.919	19164
819.06	19160
819.2	19369
819.341	19213
819.481	19384
819.622	19457
819.762	19689
819.903	19575
820.043	19468
820.184	19365
820.324	19468
820.465	19499
820.605	19537
820.746	19362
820.886	19297
821.026	19426
821.167	19327
821.307	19491
821.447	19335
821.588	19194
821.728	19156
821.868	18985
822.008	18791
822.149	18920
822.289	18867
822.429	18563
822.569	18692
822.709	18566
822.849	18330
822.99	18342
823.13	18281
823.27	18262
823.41	18068
823.55	18087
823.69	18114
823.83	18155
823.97	18053
824.11	17878
824.25	17897
824.389	17961
824.529	17904
824.669	17882
824.809	18053
824.949	17946
825.089	17999
825.228	17851
825.368	17771
825.508	17718
825.648	17760
825.787	17779
825.927	17783
826.067	17733
826.206	17668
826.346	17707
826.485	17672
826.625	17638
826.765	17718
826.904	17710
827.044	17573
827.183	17482
827.323	17353
827.462	17429
827.601	17414
827.741	17448
827.88	17512
828.02	17258
828.159	17474
828.298	17376
828.437	17467
828.577	17372
828.716	17516
828.855	17341
828.994	17124
829.134	17056
829.273	17227
829.412	17200
829.551	17060
829.69	17189
829.829	17147
829.968	17220
830.107	17147
830.246	17185
830.385	17166
830.524	17098
830.663	16984
830.802	16980
830.941	16824
831.08	16694
831.219	16793
831.357	16930
831.496	17083
831.635	16683
831.774	16691
831.913	16649
832.051	16554
832.19	16497
832.329	16634
832.467	16554
832.606	16516
832.744	16512
832.883	16512
833.022	16375
833.16	16500
833.299	16535
833.437	16565
833.576	16599
833.714	16344
833.852	16466
833.991	16607
834.129	16603
834.267	16542
834.406	16535
834.544	16592
834.682	16546
834.821	16447
834.959	16641
835.097	16569
835.235	16573
835.373	16641
835.511	16615
835.65	16413
835.788	16371
835.926	16276
836.064	16200
836.202	16306
836.34	16421
836.478	16527
836.615	16386
836.753	16462
836.891	16531
837.029	16504
837.167	16371
837.305	16322
837.443	16382
837.58	16261
837.718	16318
837.856	16356
837.993	16272
838.131	16428
838.269	16234
838.406	16211
838.544	16303
838.681	16013
838.819	15964
838.956	15838
839.094	15835
839.231	15873
839.369	16093
839.506	16268
839.643	16059
839.781	15892
839.918	15732
840.055	15930
840.193	15861
840.33	15956
840.467	15857
840.604	15823
840.742	16139
840.879	15675
841.016	15751
841.153	15766
841.29	15934
841.427	16029
841.564	15945
841.701	15854
841.838	15732
841.975	15751
842.112	15808
842.249	15591
842.385	15530
842.522	15766
842.659	15705
842.796	15637
842.933	15667
843.069	15599
843.206	15591
843.343	15682
843.479	15606
843.616	15671
843.752	15500
843.889	15523
844.025	15534
844.162	15424
844.298	15477
844.435	15485
844.571	15382
844.708	15496
844.844	15443
844.98	15485
845.117	15466
845.253	15363
845.389	15370
845.525	15340
845.661	15332
845.798	15161
845.934	15279
846.07	15268
846.206	15256
846.342	15302
846.478	15287
846.614	15085
846.75	14929
846.886	14963
847.022	15138
847.158	14979
847.294	14990
847.429	15108
847.565	15005
847.701	15279
847.837	14739
847.972	14765
848.108	14861
848.244	14796
848.379	14636
848.515	14564
848.65	14518
848.786	14587
848.921	14606
849.057	14743
849.192	14697
849.328	14556
849.463	14651
849.598	14552
849.734	14526
849.869	14476
850.004	14393
850.14	14324
850.275	14339
850.41	14305
850.545	14275
850.68	14385
850.815	14324
850.95	14366
851.085	14545
851.22	14438
851.355	14412
851.49	14244
851.625	14385
851.76	14336
851.895	14252
852.03	14305
852.165	14339
852.299	14396
852.434	14385
852.569	14385
852.703	14309
852.838	14385
852.973	14499
853.107	14431
853.242	14286
853.376	14233
853.511	14123
853.645	14183
853.78	14313
853.914	14218
854.048	14138
854.183	14218
854.317	14336
854.451	14423
854.585	14176
854.72	14221
854.854	14206
854.988	14088
855.122	14183
855.256	14168
855.39	14225
855.524	14381
855.658	14404
855.792	14377
855.926	14309
856.06	14339
856.194	14275
856.327	14233
856.461	14161
856.595	14149
856.729	14237
856.862	14324
856.996	14317
857.13	14294
857.263	14263
857.397	14454
857.53	14248
857.664	14263
857.797	14305
857.931	14385
858.064	14290
858.197	14301
858.331	14180
858.464	14233
858.597	14115
858.731	14149
858.864	14263
858.997	14195
859.13	14252
859.263	14263
859.396	14404
859.529	14218
859.662	14195
859.795	14168
859.928	14282
860.061	14351
860.194	14427
860.327	14320
860.46	14191
860.592	14358
860.725	14351
860.858	14377
860.99	14263
861.123	14210
861.256	14168
861.388	14347
861.521	14880
861.653	14088
861.786	14100
861.918	14084
862.05	14218
862.183	14180
862.315	14195
862.447	14256
862.58	14305
862.712	14046
862.844	13978
862.976	14031
863.108	14027
863.24	14434
863.372	13887
863.504	14088
863.636	14043
863.768	13963
863.9	13989
864.032	13883
864.164	13959
864.296	14142
864.428	14130
864.559	14088
864.691	14096
864.823	14111
864.954	14043
865.086	14100
865.217	14065
865.349	13909
865.48	14126
865.612	13974
865.743	14138
865.875	14050
866.006	14043
866.137	14020
866.269	13951
866.4	14054
866.531	14016
866.662	13963
866.793	13951
866.924	13982
867.055	14027
867.186	13997
867.317	13871
867.448	13970
867.579	13913
867.71	13852
867.841	13970
867.972	14043
868.103	13967
868.233	14081
868.364	13932
868.495	14001
868.625	14183
868.756	14309
868.886	14142
869.017	14313
869.147	14313
869.278	14404
869.408	14305
869.539	14244
869.669	14358
869.799	14313
869.929	14442
870.06	14366
870.19	14552
870.32	14564
870.45	14579
870.58	14644
870.71	14720
870.84	14830
870.97	14625
871.1	14617
871.23	14792
871.36	14883
871.489	14686
871.619	14906
871.749	14842
871.879	14906
872.008	14880
872.138	14853
872.267	14853
872.397	14697
872.526	14712
872.656	14743
872.785	14697
872.915	14849
873.044	14994
873.173	14941
873.303	14857
873.432	14956
873.561	14986
873.69	14902
873.819	14899
873.948	15047
874.077	14937
874.206	14796
874.335	14853
874.464	15138
874.593	15131
874.722	15142
874.851	15188
874.979	15241
875.108	15283
875.237	15192
875.365	15207
875.494	15245
875.623	15218
875.751	15188
875.88	15313
876.008	15428
876.136	15523
876.265	15652
876.393	15743
876.521	15732
876.65	15606
876.778	15587
876.906	15564
877.034	15663
877.162	15694
877.29	15629
877.418	15614
877.546	15671
877.674	15614
877.802	15656
877.93	15679
878.058	15622
878.185	15534
878.313	15633
878.441	15648
878.568	15580
878.696	15511
878.824	15584
878.951	15648
879.079	15854
879.206	15934
879.333	15774
879.461	15713
879.588	15717
879.715	15876
879.842	15857
879.97	15713
880.097	15564
880.224	15572
880.351	15511
880.478	15416
880.605	15488
880.732	15568
880.859	15789
880.986	15542
881.112	15610
881.239	15416
881.366	15291
881.493	15127
881.619	15154
881.746	15211
881.872	15100
881.999	15256
882.125	15203
882.252	15222
882.378	15188
882.505	15230
882.631	15085
882.757	14956
882.883	14986
883.01	15055
883.136	14975
883.262	14838
883.388	14861
883.514	15051
883.64	15058
883.766	14937
883.892	14804
884.018	14777
884.143	14971
884.269	14982
884.395	14750
884.52	14708
884.646	14750
884.772	14552
884.897	14488
885.023	14743
885.148	14781
885.274	14788
885.399	14754
885.524	14644
885.65	14785
885.775	14724
885.9	14682
886.025	14796
886.15	14716
886.275	14648
886.4	14514
886.525	14663
886.65	14568
886.775	14632
886.9	14781
887.025	14918
887.149	14720
887.274	14492
887.399	14461
887.523	14434
887.648	14408
887.773	14469
887.897	14663
888.021	14575
888.146	14446
888.27	14670
888.395	14644
888.519	14522
888.643	14571
888.767	14484
888.891	14370
889.015	14358
889.139	14457
889.263	14408
889.387	14480
889.511	14518
889.635	14522
889.759	14336
889.883	14347
890.006	14377
890.13	14412
890.254	14320
890.377	14286
890.501	14172
890.624	14176
890.748	14267
890.871	14153
890.995	14020
891.118	14031
891.241	14062
891.364	14069
891.488	14214
891.611	14065
891.734	14077
891.857	14111
891.98	14088
892.103	14202
892.226	14058
892.349	14073
892.471	13974
892.594	14035
892.717	14069
892.839	14024
892.962	14138
893.085	14103
893.207	14084
893.33	13959
893.452	13967
893.575	14221
893.697	14126
893.819	14248
893.941	14267
894.064	14290
894.186	13955
894.308	14092
894.43	14145
894.552	14233
894.674	14256
894.796	14050
894.918	14111
895.04	14134
895.161	14126
895.283	14229
895.405	14153
895.526	14202
895.648	14145
895.769	14202
895.891	14259
896.012	14278
896.134	14240
896.255	14267
896.376	14103
896.498	14286
896.619	14309
896.74	14206
896.861	14431
896.982	14602
897.103	14708
897.224	14594
897.345	14442
897.466	14446
897.587	14404
897.708	14579
897.828	14568
897.949	14438
898.07	14282
898.19	14522
898.311	14674
898.431	14522
898.552	14651
898.672	14777
898.792	14659
898.913	14686
899.033	14454
899.153	14374
899.273	14328
899.393	14377
899.513	14495
899.633	14480
899.753	14446
899.873	14431
899.993	14450
900.113	14374
900.232	14412
900.352	14351
900.472	14313
900.591	14305
900.711	14339
900.83	14237
900.95	14446
901.069	14457
901.189	14267
901.308	14157
901.427	13921
901.546	13913
901.665	13982
901.784	13959
901.904	13902
902.023	13772
902.141	13548
902.26	13525
902.379	13594
902.498	13590
902.617	13419
902.735	13476
902.854	13521
902.973	13548
903.091	13221
903.21	13213
903.328	13278
903.446	13244
903.565	13000
903.683	13107
903.801	13000
903.919	13088
904.038	13156
904.156	12928
904.274	13080
904.392	12958
904.51	12943
904.627	12939
904.745	12996
904.863	12973
904.981	12814
905.098	12646
905.216	12677
905.334	12582
905.451	12662
905.569	12654
905.686	12631
905.803	12677
905.921	12544
906.038	12532
906.155	12517
906.272	12380
906.389	12372
906.506	12243
906.623	12251
906.74	12194
906.857	12140
906.974	12178
907.091	12273
907.208	12323
907.324	12300
907.441	12220
907.557	11961
907.674	11950
907.79	11954
907.907	11923
908.023	12007
908.139	12045
908.256	11927
908.372	11935
908.488	11889
908.604	11783
908.72	11707
908.836	11691
908.952	11783
909.068	11729
909.184	11767
909.3	11710
909.415	11707
909.531	11733
909.647	11505
909.762	11543
909.878	11615
909.993	11471
910.108	11478
910.224	11387
910.339	11539
910.454	11417
910.57	11417
910.685	11292
910.8	11528
910.915	11482
911.03	11356
911.145	11204
911.259	11239
911.374	11113
911.489	11067
911.604	11102
911.718	10934
911.833	10961
911.947	10835
912.062	10793
912.176	11060
912.291	10949
912.405	10968
912.519	11147
912.633	11254
912.748	10984
912.862	11067
912.976	10847
913.09	10725
913.204	10790
913.318	10790
913.431	10987
913.545	10866
913.659	10980
913.772	10793
913.886	10786
914	10759
914.113	10881
914.226	10858
914.34	10790
914.453	10691
914.566	10847
914.68	10672
914.793	10694
914.906	10436
915.019	10409
915.132	10348
915.245	10432
915.358	10493
915.47	10497
915.583	10512
915.696	10561
915.809	10630
915.921	10630
916.034	10466
916.146	10451
916.259	10386
916.371	10512
916.483	10409
916.595	10394
916.708	10390
916.82	10462
916.932	10390
917.044	10379
917.156	10375
917.268	10272
917.38	10337
917.491	10265
917.603	10227
917.715	10333
917.826	10375
917.938	10238
918.049	10162
918.161	10318
918.272	10382
918.384	10428
918.495	10394
918.606	10173
918.717	10086
918.828	10207
918.939	10211
919.05	10109
919.161	10169
919.272	9979
919.383	10021
919.494	10268
919.604	10367
919.715	10101
919.826	10120
919.936	10200
920.047	10329
920.157	10257
920.267	10413
920.378	10249
920.488	10166
920.598	10390
920.708	10569
920.818	10459
920.928	10386
921.038	10615
921.148	10462
921.258	10200
921.368	10169
921.477	10063
921.587	9998
921.697	9888
921.806	9998
921.916	9884
922.025	9816
922.134	9827
922.244	9667
922.353	9850
922.462	9656
922.571	9538
922.68	9443
922.789	9481
922.898	9412
923.007	9351
923.116	9504
923.224	9386
923.333	9477
923.442	9313
923.55	9298
923.659	9367
923.767	9428
923.876	9336
923.984	9401
924.092	9214
924.201	9317
924.309	9374
924.417	9336
924.525	9253
924.633	9207
924.741	10002
924.849	9097
924.956	9237
925.064	9131
925.172	8982
925.279	9119
925.387	9169
925.494	9108
925.602	9203
925.709	9241
925.816	9032
925.924	9230
926.031	9233
926.138	9165
926.245	9123
926.352	9001
926.459	9138
926.566	9192
926.673	9055
926.779	8979
926.886	8899
926.993	8758
927.099	8864
927.206	8853
927.312	8777
927.419	8811
927.525	8842
927.631	8842
927.737	8796
927.843	8579
927.95	8549
928.056	8674
928.162	8659
928.267	8792
928.373	9443
928.479	8864
928.585	8598
928.69	8712
928.796	8644
928.901	8667
929.007	8507
929.112	8598
929.218	8590
929.323	8552
929.428	8552
929.533	8705
929.638	8473
929.743	8526
929.848	8564
929.953	8469
930.058	8389
930.163	8324
930.267	8294
930.372	8488
930.477	8248
930.581	8446
930.685	8377
930.79	8252
930.894	8286
930.998	8214
931.103	8362
931.207	8012
931.311	7940
931.415	7909
931.519	7799
931.623	7792
