Data from test_V78500241_2087.txt Node
Date: Fri Mar 25 14:48:14 CST 2022
User: usil
Spectrometer: V785-0024
Trigger mode: 0
Integration Time (sec): 4.000000E-1
Scans to average: 1
Nonlinearity correction enabled: false
Boxcar width: 0
Storing dark spectrum: false
XAxis mode: Wavelengths
Number of Pixels in Spectrum: 1024
>>>>>Begin Spectral Data<<<<<
801.071	22207
801.214	21987
801.356	21808
801.499	21606
801.641	21492
801.783	21458
801.926	21603
802.068	21462
802.211	21408
802.353	21249
802.496	21077
802.638	21039
802.78	21032
802.923	20868
803.065	20785
803.208	20777
803.35	20746
803.492	20872
803.635	21017
803.777	20781
803.919	20830
804.061	21112
804.204	20864
804.346	20769
804.488	20716
804.63	20849
804.773	20796
804.915	20781
805.057	20823
805.199	20659
805.341	20830
805.483	20887
805.626	20796
805.768	20773
805.91	20826
806.052	20724
806.194	20609
806.336	20769
806.478	20663
806.62	20823
806.762	20750
806.904	21013
807.046	21146
807.188	21077
807.33	21043
807.472	21100
807.614	20975
807.756	21013
807.898	20971
808.04	20823
808.182	20887
808.324	20902
808.465	20891
808.607	21051
808.749	21184
808.891	21173
809.033	21310
809.174	21256
809.316	21157
809.458	21207
809.6	21119
809.741	21188
809.883	21173
810.025	21313
810.166	21252
810.308	21275
810.45	21077
810.591	21081
810.733	21009
810.875	20937
811.016	20902
811.158	20864
811.299	21009
811.441	21096
811.582	20914
811.724	20963
811.865	20975
812.007	20830
812.148	20887
812.29	20994
812.431	21093
812.573	21222
812.714	21264
812.855	21325
812.997	21530
813.138	21526
813.279	21485
813.421	21291
813.562	21291
813.703	21218
813.845	21039
813.986	20663
814.127	20659
814.268	20492
814.41	20434
814.551	20511
814.692	20560
814.833	20355
814.974	20396
815.115	20446
815.256	20351
815.397	20267
815.539	20298
815.68	20183
815.821	20100
815.962	20237
816.103	20172
816.244	19978
816.385	19928
816.526	19803
816.666	19723
816.807	19552
816.948	19605
817.089	19594
817.23	19544
817.371	19506
817.512	19548
817.653	19483
817.793	19514
817.934	19491
818.075	19502
818.216	19567
818.356	19480
818.497	19430
818.638	19152
818.778	19202
818.919	19232
819.06	19331
819.2	19339
819.341	19495
819.481	19483
819.622	19567
819.762	19708
819.903	19799
820.043	19635
820.184	19613
820.324	19548
820.465	19674
820.605	19597
820.746	19491
820.886	19407
821.026	19491
821.167	19533
821.307	19571
821.447	19495
821.588	19392
821.728	19110
821.868	19122
822.008	18863
822.149	18943
822.289	18993
822.429	18791
822.569	18604
822.709	18654
822.849	18521
822.99	18441
823.13	18456
823.27	18410
823.41	18270
823.55	18254
823.69	18315
823.83	18334
823.97	18292
824.11	18060
824.25	18011
824.389	17958
824.529	18003
824.669	17954
824.809	18121
824.949	17973
825.089	18114
825.228	18030
825.368	17741
825.508	17745
825.648	17920
825.787	17874
825.927	17802
826.067	17767
826.206	17790
826.346	17855
826.485	17855
826.625	17783
826.765	17824
826.904	17840
827.044	17554
827.183	17490
827.323	17570
827.462	17570
827.601	17478
827.741	17368
827.88	17455
828.02	17467
828.159	17406
828.298	17478
828.437	17611
828.577	17497
828.716	17684
828.855	17425
828.994	17273
829.134	17227
829.273	17280
829.412	17311
829.551	17231
829.69	17280
829.829	17299
829.968	17337
830.107	17395
830.246	17330
830.385	17117
830.524	17090
830.663	17041
830.802	16995
830.941	16828
831.08	16850
831.219	17067
831.357	16946
831.496	17006
831.635	16927
831.774	16774
831.913	16809
832.051	16698
832.19	16664
832.329	16736
832.467	16565
832.606	16542
832.744	16634
832.883	16527
833.022	16470
833.16	16569
833.299	16588
833.437	16660
833.576	16497
833.714	16653
833.852	16592
833.991	16512
834.129	16596
834.267	16717
834.406	16546
834.544	16645
834.682	16660
834.821	16580
834.959	16694
835.097	16531
835.235	16744
835.373	16660
835.511	16649
835.65	16462
835.788	16531
835.926	16398
836.064	16341
836.202	16394
836.34	16409
836.478	16546
836.615	16478
836.753	16565
836.891	16622
837.029	16554
837.167	16432
837.305	16512
837.443	16512
837.58	16299
837.718	16440
837.856	16348
837.993	16428
838.131	16344
838.269	16299
838.406	16287
838.544	16234
838.681	16131
838.819	16090
838.956	15953
839.094	16036
839.231	15983
839.369	16116
839.506	16356
839.643	16154
839.781	15873
839.918	15778
840.055	15972
840.193	15968
840.33	15846
840.467	15903
840.604	15987
840.742	16215
840.879	15823
841.016	15835
841.153	15892
841.29	16071
841.427	15968
841.564	15968
841.701	16017
841.838	15979
841.975	15892
842.112	15831
842.249	15781
842.385	15690
842.522	15873
842.659	15747
842.796	15622
842.933	15686
843.069	15572
843.206	15656
843.343	15762
843.479	15793
843.616	15762
843.752	15568
843.889	15443
844.025	15614
844.162	15466
844.298	15656
844.435	15469
844.571	15450
844.708	15557
844.844	15736
844.98	15591
845.117	15618
845.253	15473
845.389	15405
845.525	15496
845.661	15507
845.798	15291
845.934	15374
846.07	15310
846.206	15401
846.342	15561
846.478	15321
846.614	15195
846.75	15062
846.886	15051
847.022	15127
847.158	15085
847.294	15157
847.429	15176
847.565	15032
847.701	15230
847.837	14887
847.972	14788
848.108	14861
848.244	14899
848.379	14788
848.515	14651
848.65	14613
848.786	14800
848.921	14697
849.057	14720
849.192	14746
849.328	14617
849.463	14701
849.598	14697
849.734	14632
849.869	14564
850.004	14518
850.14	14552
850.275	14461
850.41	14415
850.545	14347
850.68	14396
850.815	14419
850.95	14282
851.085	14678
851.22	14396
851.355	14499
851.49	14423
851.625	14427
851.76	14393
851.895	14248
852.03	14286
852.165	14393
852.299	14393
852.434	14492
852.569	14457
852.703	14446
852.838	14526
852.973	14663
853.107	14530
853.242	14450
853.376	14313
853.511	14237
853.645	14271
853.78	14393
853.914	14366
854.048	14240
854.183	14275
854.317	14336
854.451	14541
854.585	14298
854.72	14267
854.854	14404
854.988	14271
855.122	14187
855.256	14195
855.39	14301
855.524	14404
855.658	14320
855.792	14290
855.926	14324
856.06	14294
856.194	14400
856.327	14332
856.461	14218
856.595	14221
856.729	14298
856.862	14457
856.996	14362
857.13	14423
857.263	14400
857.397	14389
857.53	14339
857.664	14351
857.797	14438
857.931	14412
858.064	14374
858.197	14404
858.331	14317
858.464	14377
858.597	14202
858.731	14286
858.864	14336
858.997	14317
859.13	14328
859.263	14339
859.396	14400
859.529	14294
859.662	14298
859.795	14301
859.928	14301
860.061	14412
860.194	14419
860.327	14389
860.46	14237
860.592	14465
860.725	14415
860.858	14366
860.99	14290
861.123	14343
861.256	14229
861.388	14320
861.521	14823
861.653	14233
861.786	14134
861.918	14126
862.05	14347
862.183	14324
862.315	14374
862.447	14301
862.58	14298
862.712	14092
862.844	14096
862.976	14130
863.108	14168
863.24	14461
863.372	14096
863.504	14046
863.636	14096
863.768	14096
863.9	14142
864.032	14069
864.164	14130
864.296	14157
864.428	14183
864.559	14271
864.691	14183
864.823	14176
864.954	14210
865.086	14062
865.217	14126
865.349	14058
865.48	14073
865.612	14058
865.743	14282
865.875	14039
866.006	14069
866.137	14084
866.269	14069
866.4	14092
866.531	13986
866.662	13993
866.793	14008
866.924	14069
867.055	14058
867.186	14069
867.317	13963
867.448	13925
867.579	13993
867.71	13982
867.841	13913
867.972	14107
868.103	14020
868.233	14092
868.364	14081
868.495	14145
868.625	14298
868.756	14370
868.886	14271
869.017	14301
869.147	14457
869.278	14469
869.408	14415
869.539	14366
869.669	14336
869.799	14343
869.929	14446
870.06	14412
870.19	14587
870.32	14678
870.45	14678
870.58	14670
870.71	14834
870.84	14823
870.97	14686
871.1	14667
871.23	14823
871.36	14830
871.489	14861
871.619	14864
871.749	14979
871.879	14899
872.008	15017
872.138	14952
872.267	14902
872.397	14857
872.526	14743
872.656	14682
872.785	14804
872.915	14933
873.044	15047
873.173	14906
873.303	14982
873.432	14963
873.561	15013
873.69	14921
873.819	14956
873.948	15047
874.077	14948
874.206	14906
874.335	14963
874.464	15131
874.593	15252
874.722	15161
874.851	15207
874.979	15378
875.108	15283
875.237	15203
875.365	15249
875.494	15317
875.623	15363
875.751	15268
875.88	15317
876.008	15443
876.136	15416
876.265	15686
876.393	15838
876.521	15819
876.65	15812
876.778	15781
876.906	15644
877.034	15660
877.162	15698
877.29	15496
877.418	15618
877.546	15698
877.674	15766
877.802	15625
877.93	15671
878.058	15663
878.185	15599
878.313	15610
878.441	15686
878.568	15496
878.696	15694
878.824	15690
878.951	15785
879.079	15823
879.206	16036
879.333	15892
879.461	15686
879.588	15785
879.715	15854
879.842	15915
879.97	15778
880.097	15595
880.224	15481
880.351	15584
880.478	15610
880.605	15526
880.732	15545
880.859	15789
880.986	15534
881.112	15595
881.239	15401
881.366	15298
881.493	15207
881.619	15252
881.746	15222
881.872	15184
881.999	15222
882.125	15195
882.252	15252
882.378	15291
882.505	15401
882.631	15207
882.757	15074
882.883	15051
883.01	15070
883.136	14944
883.262	14994
883.388	14769
883.514	15074
883.64	15047
883.766	15051
883.892	14853
884.018	14864
884.143	15024
884.269	15062
884.395	14727
884.52	14712
884.646	14762
884.772	14606
884.897	14632
885.023	14655
885.148	14785
885.274	14910
885.399	14800
885.524	14670
885.65	14746
885.775	14735
885.9	14708
886.025	14887
886.15	14777
886.275	14773
886.4	14606
886.525	14686
886.65	14667
886.775	14689
886.9	14750
887.025	14994
887.149	14765
887.274	14492
887.399	14507
887.523	14480
887.648	14499
887.773	14412
887.897	14632
888.021	14758
888.146	14545
888.27	14682
888.395	14746
888.519	14602
888.643	14693
888.767	14594
888.891	14423
889.015	14339
889.139	14522
889.263	14537
889.387	14610
889.511	14545
889.635	14522
889.759	14461
889.883	14351
890.006	14484
890.13	14503
890.254	14305
890.377	14317
890.501	14267
890.624	14180
890.748	14301
890.871	14149
890.995	14130
891.118	14054
891.241	14145
891.364	14043
891.488	14191
891.611	14058
891.734	14069
891.857	14176
891.98	14088
892.103	14309
892.226	14176
892.349	14073
892.471	13932
892.594	14111
892.717	14237
892.839	14164
892.962	14187
893.085	14168
893.207	14096
893.33	13970
893.452	14031
893.575	14237
893.697	14111
893.819	14286
893.941	14343
894.064	14313
894.186	14142
894.308	14142
894.43	14259
894.552	14305
894.674	14248
894.796	14043
894.918	14180
895.04	14187
895.161	14149
895.283	14248
895.405	14206
895.526	14161
895.648	14271
895.769	14267
895.891	14290
896.012	14362
896.134	14252
896.255	14286
896.376	14256
896.498	14229
896.619	14336
896.74	14237
896.861	14305
896.982	14571
897.103	14823
897.224	14583
897.345	14541
897.466	14541
897.587	14484
897.708	14712
897.828	14701
897.949	14549
898.07	14480
898.19	14495
898.311	14610
898.431	14610
898.552	14610
898.672	14686
898.792	14758
898.913	14701
899.033	14644
899.153	14404
899.273	14503
899.393	14419
899.513	14473
899.633	14503
899.753	14495
899.873	14454
899.993	14454
900.113	14499
900.232	14636
900.352	14419
900.472	14484
900.591	14324
900.711	14438
900.83	14355
900.95	14480
901.069	14450
901.189	14278
901.308	14039
901.427	13974
901.546	14081
901.665	14092
901.784	14088
901.904	13970
902.023	13837
902.141	13575
902.26	13636
902.379	13666
902.498	13567
902.617	13521
902.735	13586
902.854	13548
902.973	13518
903.091	13339
903.21	13282
903.328	13362
903.446	13293
903.565	13099
903.683	13202
903.801	13084
903.919	13225
904.038	13141
904.156	13053
904.274	13057
904.392	12951
904.51	12924
904.627	12947
904.745	13034
904.863	12981
904.981	12757
905.098	12772
905.216	12623
905.334	12719
905.451	12719
905.569	12597
905.686	12703
905.803	12696
905.921	12460
906.038	12658
906.155	12525
906.272	12350
906.389	12418
906.506	12296
906.623	12391
906.74	12247
906.857	12182
906.974	12098
907.091	12327
907.208	12410
907.324	12247
907.441	12114
907.557	11958
907.674	11973
907.79	11923
907.907	11969
908.023	12098
908.139	12114
908.256	11992
908.372	11908
908.488	11920
908.604	11783
908.72	11699
908.836	11821
908.952	11741
909.068	11771
909.184	11939
909.3	11786
909.415	11805
909.531	11809
909.647	11547
909.762	11543
909.878	11467
909.993	11566
910.108	11493
910.224	11539
910.339	11543
910.454	11459
910.57	11360
910.685	11307
910.8	11665
910.915	11520
911.03	11421
911.145	11288
911.259	11250
911.374	11334
911.489	11136
911.604	11117
911.718	10946
911.833	10972
911.947	10896
912.062	10862
912.176	10946
912.291	11022
912.405	11022
912.519	11185
912.633	11193
912.748	11022
912.862	10995
912.976	10881
913.09	10790
913.204	10774
913.318	10934
913.431	10923
913.545	11006
913.659	10987
913.772	10843
913.886	10831
914	10744
914.113	10847
914.226	10866
914.34	10824
914.453	10679
914.566	10824
914.68	10672
914.793	10694
914.906	10523
915.019	10382
915.132	10394
915.245	10497
915.358	10500
915.47	10561
915.583	10497
915.696	10573
915.809	10611
915.921	10672
916.034	10462
916.146	10424
916.259	10481
916.371	10565
916.483	10592
916.595	10424
916.708	10516
916.82	10405
916.932	10360
917.044	10428
917.156	10402
917.268	10356
917.38	10394
917.491	10242
917.603	10348
917.715	10402
917.826	10428
917.938	10276
918.049	10272
918.161	10291
918.272	10485
918.384	10504
918.495	10382
918.606	10268
918.717	10143
918.828	10272
918.939	10230
919.05	10120
919.161	10211
919.272	10002
919.383	10051
919.494	10219
919.604	10409
919.715	10272
919.826	10173
919.936	10246
920.047	10299
920.157	10265
920.267	10409
920.378	10306
920.488	10215
920.598	10363
920.708	10653
920.818	10409
920.928	10466
921.038	10558
921.148	10569
921.258	10325
921.368	10211
921.477	10074
921.587	9979
921.697	9979
921.806	10181
921.916	9987
922.025	9781
922.134	9740
922.244	9732
922.353	9827
922.462	9652
922.571	9622
922.68	9515
922.789	9473
922.898	9530
923.007	9462
923.116	9526
923.224	9488
923.333	9424
923.442	9382
923.55	9412
923.659	9405
923.767	9386
923.876	9313
923.984	9359
924.092	9294
924.201	9355
924.309	9359
924.417	9359
924.525	9279
924.633	9268
924.741	10211
924.849	9131
924.956	9249
925.064	9089
925.172	9081
925.279	9070
925.387	9169
925.494	9150
925.602	9325
925.709	9230
925.816	9100
925.924	9131
926.031	9218
926.138	9108
926.245	9199
926.352	9058
926.459	9195
926.566	9256
926.673	9077
926.779	8960
926.886	9009
926.993	8887
927.099	8902
927.206	8804
927.312	8819
927.419	8849
927.525	8842
927.631	8979
927.737	8811
927.843	8735
927.95	8648
928.056	8697
928.162	8754
928.267	8758
928.373	9370
928.479	8845
928.585	8602
928.69	8766
928.796	8743
928.901	8659
929.007	8526
929.112	8629
929.218	8667
929.323	8579
929.428	8560
929.533	8693
929.638	8454
929.743	8564
929.848	8594
929.953	8564
930.058	8461
930.163	8290
930.267	8317
930.372	8476
930.477	8332
930.581	8579
930.685	8385
930.79	8286
930.894	8332
930.998	8294
931.103	8343
931.207	8077
931.311	8039
931.415	7967
931.519	7776
931.623	7734
