Data from test_V78500241_3561.txt Node
Date: Fri Mar 25 14:58:30 CST 2022
User: usil
Spectrometer: V785-0024
Trigger mode: 0
Integration Time (sec): 4.000000E-1
Scans to average: 1
Nonlinearity correction enabled: false
Boxcar width: 0
Storing dark spectrum: false
XAxis mode: Wavelengths
Number of Pixels in Spectrum: 1024
>>>>>Begin Spectral Data<<<<<
801.071	21926
801.214	21816
801.356	21462
801.499	21511
801.641	21264
801.783	21264
801.926	21264
802.068	21230
802.211	21127
802.353	21013
802.496	20845
802.638	20830
802.78	20708
802.923	20598
803.065	20514
803.208	20514
803.35	20629
803.492	20701
803.635	20754
803.777	20621
803.919	20663
804.061	20918
804.204	20537
804.346	20522
804.488	20374
804.63	20503
804.773	20419
804.915	20541
805.057	20613
805.199	20541
805.341	20552
805.483	20609
805.626	20629
805.768	20446
805.91	20434
806.052	20617
806.194	20457
806.336	20644
806.478	20556
806.62	20461
806.762	20537
806.904	20632
807.046	20906
807.188	20880
807.33	20834
807.472	20815
807.614	20819
807.756	20880
807.898	20507
808.04	20621
808.182	20533
808.324	20674
808.465	20541
808.607	20746
808.749	20876
808.891	21009
809.033	21055
809.174	20883
809.316	20670
809.458	20937
809.6	20838
809.741	20960
809.883	20956
810.025	21032
810.166	21036
810.308	20986
810.45	20876
810.591	20811
810.733	20682
810.875	20636
811.016	20511
811.158	20602
811.299	20697
811.441	20750
811.582	20712
811.724	20537
811.865	20609
812.007	20533
812.148	20587
812.29	20545
812.431	20800
812.573	20960
812.714	20941
812.855	21142
812.997	21237
813.138	21218
813.279	21192
813.421	21146
813.562	21142
813.703	20830
813.845	20739
813.986	20427
814.127	20366
814.268	20240
814.41	20294
814.551	20195
814.692	20225
814.833	20103
814.974	20020
815.115	20218
815.256	19951
815.397	19936
815.539	20020
815.68	19833
815.821	19875
815.962	19936
816.103	19837
816.244	19647
816.385	19685
816.526	19567
816.666	19457
816.807	19422
816.948	19369
817.089	19392
817.23	19339
817.371	19304
817.512	19270
817.653	19304
817.793	19217
817.934	19304
818.075	19270
818.216	19346
818.356	19187
818.497	19168
818.638	18981
818.778	19061
818.919	18958
819.06	18932
819.2	19080
819.341	19278
819.481	19148
819.622	19198
819.762	19476
819.903	19460
820.043	19316
820.184	19168
820.324	19362
820.465	19377
820.605	19335
820.746	19202
820.886	19160
821.026	19293
821.167	19247
821.307	19251
821.447	19114
821.588	19061
821.728	19023
821.868	18837
822.008	18639
822.149	18654
822.289	18673
822.429	18342
822.569	18448
822.709	18418
822.849	18266
822.99	18228
823.13	18159
823.27	18129
823.41	18030
823.55	17882
823.69	18095
823.83	17889
823.97	17988
824.11	17722
824.25	17687
824.389	17813
824.529	17729
824.669	17695
824.809	17893
824.949	17863
825.089	17828
825.228	17836
825.368	17433
825.508	17512
825.648	17623
825.787	17589
825.927	17482
826.067	17501
826.206	17528
826.346	17501
826.485	17543
826.625	17566
826.765	17684
826.904	17596
827.044	17391
827.183	17269
827.323	17140
827.462	17353
827.601	17143
827.741	17273
827.88	17299
828.02	17060
828.159	17280
828.298	17231
828.437	17292
828.577	17239
828.716	17315
828.855	17261
828.994	17048
829.134	17006
829.273	16987
829.412	16885
829.551	16889
829.69	16984
829.829	17064
829.968	17083
830.107	17048
830.246	17006
830.385	16946
830.524	16953
830.663	16809
830.802	16679
830.941	16558
831.08	16603
831.219	16592
831.357	16618
831.496	16793
831.635	16607
831.774	16550
831.913	16459
832.051	16402
832.19	16580
832.329	16508
832.467	16276
832.606	16253
832.744	16272
832.883	16386
833.022	16268
833.16	16371
833.299	16348
833.437	16428
833.576	16382
833.714	16402
833.852	16466
833.991	16432
834.129	16455
834.267	16459
834.406	16299
834.544	16394
834.682	16360
834.821	16409
834.959	16519
835.097	16295
835.235	16550
835.373	16382
835.511	16421
835.65	16310
835.788	16306
835.926	16124
836.064	16101
836.202	16166
836.34	16352
836.478	16268
836.615	16295
836.753	16344
836.891	16344
837.029	16310
837.167	16257
837.305	16185
837.443	16169
837.58	16078
837.718	16325
837.856	16154
837.993	16135
838.131	16109
838.269	16211
838.406	16158
838.544	16090
838.681	15937
838.819	15857
838.956	15728
839.094	15701
839.231	15759
839.369	15899
839.506	16082
839.643	15964
839.781	15785
839.918	15732
840.055	15701
840.193	15770
840.33	15686
840.467	15732
840.604	15709
840.742	15983
840.879	15591
841.016	15610
841.153	15606
841.29	15827
841.427	15682
841.564	15694
841.701	15785
841.838	15603
841.975	15743
842.112	15690
842.249	15591
842.385	15542
842.522	15694
842.659	15519
842.796	15473
842.933	15523
843.069	15488
843.206	15412
843.343	15633
843.479	15526
843.616	15431
843.752	15329
843.889	15264
844.025	15378
844.162	15245
844.298	15564
844.435	15363
844.571	15268
844.708	15416
844.844	15458
844.98	15367
845.117	15416
845.253	15245
845.389	15127
845.525	15310
845.661	15245
845.798	15001
845.934	15058
846.07	15131
846.206	15081
846.342	15154
846.478	15013
846.614	14902
846.75	14796
846.886	14811
847.022	14918
847.158	14804
847.294	14914
847.429	14891
847.565	14868
847.701	15066
847.837	14705
847.972	14621
848.108	14701
848.244	14617
848.379	14480
848.515	14473
848.65	14473
848.786	14469
848.921	14492
849.057	14514
849.192	14530
849.328	14499
849.463	14499
849.598	14389
849.734	14366
849.869	14290
850.004	14290
850.14	14256
850.275	14328
850.41	14191
850.545	14259
850.68	14248
850.815	14233
850.95	14210
851.085	14465
851.22	14412
851.355	14153
851.49	14225
851.625	14221
851.76	14180
851.895	14054
852.03	14183
852.165	14317
852.299	14256
852.434	14267
852.569	14298
852.703	14145
852.838	14286
852.973	14404
853.107	14408
853.242	14278
853.376	14050
853.511	13986
853.645	14073
853.78	14237
853.914	14096
854.048	14176
854.183	14081
854.317	14149
854.451	14309
854.585	14069
854.72	14054
854.854	14107
854.988	13993
855.122	14008
855.256	13906
855.39	14062
855.524	14142
855.658	14145
855.792	14130
855.926	14164
856.06	14088
856.194	14164
856.327	14195
856.461	14115
856.595	14107
856.729	14062
856.862	14142
856.996	14100
857.13	14191
857.263	14240
857.397	14301
857.53	14077
857.664	14210
857.797	14134
857.931	14324
858.064	14221
858.197	14180
858.331	14134
858.464	14103
858.597	13913
858.731	14084
858.864	14115
858.997	14119
859.13	14134
859.263	14008
859.396	14115
859.529	14100
859.662	14149
859.795	14134
859.928	14107
860.061	14301
860.194	14381
860.327	14130
860.46	14161
860.592	14343
860.725	14263
860.858	14126
860.99	14039
861.123	14058
861.256	14107
861.388	14096
861.521	14830
861.653	14005
861.786	13871
861.918	14008
862.05	14077
862.183	14024
862.315	14123
862.447	14172
862.58	14103
862.712	13868
862.844	13811
862.976	13955
863.108	13906
863.24	14202
863.372	13784
863.504	14001
863.636	13902
863.768	13940
863.9	13894
864.032	13780
864.164	13791
864.296	13902
864.428	14035
864.559	14081
864.691	13944
864.823	13940
864.954	13940
865.086	13951
865.217	13928
865.349	13833
865.48	13936
865.612	13765
865.743	14031
865.875	13959
866.006	13811
866.137	13856
866.269	13940
866.4	13856
866.531	13852
866.662	13951
866.793	13803
866.924	13814
867.055	13845
867.186	13890
867.317	13776
867.448	13883
867.579	13871
867.71	13833
867.841	13807
867.972	13925
868.103	13822
868.233	13917
868.364	13887
868.495	13989
868.625	14126
868.756	14214
868.886	14138
869.017	14092
869.147	14187
869.278	14263
869.408	14164
869.539	14149
869.669	14282
869.799	14202
869.929	14267
870.06	14237
870.19	14518
870.32	14473
870.45	14446
870.58	14503
870.71	14579
870.84	14613
870.97	14587
871.1	14396
871.23	14651
871.36	14746
871.489	14720
871.619	14708
871.749	14716
871.879	14785
872.008	14872
872.138	14777
872.267	14720
872.397	14594
872.526	14659
872.656	14552
872.785	14640
872.915	14777
873.044	14883
873.173	14705
873.303	14834
873.432	14857
873.561	14800
873.69	14804
873.819	14769
873.948	14864
874.077	14823
874.206	14765
874.335	14819
874.464	14990
874.593	15047
874.722	15001
874.851	15039
874.979	15298
875.108	15169
875.237	15097
875.365	15013
875.494	15043
875.623	15207
875.751	15062
875.88	15203
876.008	15306
876.136	15199
876.265	15466
876.393	15709
876.521	15496
876.65	15614
876.778	15534
876.906	15542
877.034	15469
877.162	15485
877.29	15454
877.418	15500
877.546	15519
877.674	15496
877.802	15428
877.93	15564
878.058	15534
878.185	15466
878.313	15473
878.441	15500
878.568	15317
878.696	15564
878.824	15511
878.951	15587
879.079	15717
879.206	15785
879.333	15644
879.461	15519
879.588	15713
879.715	15698
879.842	15747
879.97	15618
880.097	15431
880.224	15355
880.351	15431
880.478	15393
880.605	15397
880.732	15416
880.859	15572
880.986	15424
881.112	15450
881.239	15245
881.366	15123
881.493	15150
881.619	15058
881.746	15165
881.872	15043
881.999	14986
882.125	14975
882.252	15108
882.378	15169
882.505	15176
882.631	14994
882.757	14743
882.883	15047
883.01	14929
883.136	14868
883.262	14792
883.388	14758
883.514	14845
883.64	14967
883.766	14868
883.892	14636
884.018	14693
884.143	15001
884.269	14902
884.395	14746
884.52	14564
884.646	14537
884.772	14606
884.897	14495
885.023	14537
885.148	14762
885.274	14834
885.399	14693
885.524	14590
885.65	14579
885.775	14640
885.9	14613
886.025	14750
886.15	14689
886.275	14613
886.4	14511
886.525	14530
886.65	14431
886.775	14545
886.9	14689
887.025	14864
887.149	14575
887.274	14469
887.399	14400
887.523	14461
887.648	14343
887.773	14313
887.897	14499
888.021	14465
888.146	14305
888.27	14488
888.395	14526
888.519	14492
888.643	14511
888.767	14427
888.891	14377
889.015	14240
889.139	14362
889.263	14324
889.387	14389
889.511	14507
889.635	14423
889.759	14366
889.883	14328
890.006	14355
890.13	14396
890.254	14271
890.377	14221
890.501	14012
890.624	14024
890.748	14233
890.871	14145
890.995	13963
891.118	13917
891.241	14016
891.364	14039
891.488	14100
891.611	14027
891.734	14020
891.857	14043
891.98	13970
892.103	14111
892.226	14088
892.349	13928
892.471	13822
892.594	13959
892.717	14039
892.839	13982
892.962	14092
893.085	14100
893.207	14001
893.33	13833
893.452	13845
893.575	14145
893.697	13978
893.819	14252
893.941	14229
894.064	14176
894.186	13936
894.308	13894
894.43	14100
894.552	14225
894.674	14107
894.796	14020
894.918	14058
895.04	14024
895.161	14081
895.283	14084
895.405	14069
895.526	14088
895.648	14130
895.769	14206
895.891	14138
896.012	14138
896.134	14199
896.255	14126
896.376	14206
896.498	14119
896.619	14248
896.74	14233
896.861	14164
896.982	14549
897.103	14613
897.224	14518
897.345	14511
897.466	14366
897.587	14419
897.708	14606
897.828	14594
897.949	14400
898.07	14275
898.19	14454
898.311	14533
898.431	14393
898.552	14579
898.672	14667
898.792	14484
898.913	14575
899.033	14507
899.153	14396
899.273	14286
899.393	14282
899.513	14442
899.633	14370
899.753	14423
899.873	14358
899.993	14473
900.113	14412
900.232	14377
900.352	14343
900.472	14294
900.591	14176
900.711	14237
900.83	14119
900.95	14370
901.069	14362
901.189	14221
901.308	13989
901.427	13921
901.546	13906
901.665	14024
901.784	13913
901.904	13746
902.023	13784
902.141	13441
902.26	13464
902.379	13575
902.498	13480
902.617	13381
902.735	13521
902.854	13499
902.973	13438
903.091	13194
903.21	13175
903.328	13209
903.446	13103
903.565	13000
903.683	13122
903.801	12970
903.919	13038
904.038	13004
904.156	12913
904.274	12924
904.392	12840
904.51	12954
904.627	12840
904.745	12954
904.863	12943
904.981	12719
905.098	12563
905.216	12593
905.334	12658
905.451	12642
905.569	12551
905.686	12597
905.803	12559
905.921	12441
906.038	12525
906.155	12380
906.272	12266
906.389	12384
906.506	12216
906.623	12281
906.74	12213
906.857	12038
906.974	12091
907.091	12243
907.208	12273
907.324	12186
907.441	12091
907.557	11866
907.674	11920
907.79	11855
907.907	11901
908.023	11855
908.139	11935
908.256	11893
908.372	11882
908.488	11790
908.604	11798
908.72	11630
908.836	11752
908.952	11665
909.068	11661
909.184	11767
909.3	11699
909.415	11802
909.531	11623
909.647	11452
909.762	11497
909.878	11433
909.993	11467
910.108	11482
910.224	11459
910.339	11444
910.454	11334
910.57	11288
910.685	11296
910.8	11547
910.915	11448
911.03	11334
911.145	11166
911.259	11178
911.374	11109
911.489	11147
911.604	11083
911.718	10930
911.833	10854
911.947	10771
912.062	10736
912.176	10942
912.291	10930
912.405	10908
912.519	11006
912.633	11083
912.748	11037
912.862	10957
912.976	10862
913.09	10577
913.204	10748
913.318	10774
913.431	10889
913.545	10839
913.659	10911
913.772	10797
913.886	10721
914	10694
914.113	10721
914.226	10710
914.34	10752
914.453	10634
914.566	10710
914.68	10622
914.793	10588
914.906	10474
915.019	10363
915.132	10382
915.245	10390
915.358	10451
915.47	10386
915.583	10497
915.696	10561
915.809	10504
915.921	10580
916.034	10405
916.146	10341
916.259	10299
916.371	10531
916.483	10443
916.595	10348
916.708	10462
916.82	10421
916.932	10344
917.044	10348
917.156	10318
917.268	10139
917.38	10230
917.491	10230
917.603	10246
917.715	10424
917.826	10379
917.938	10219
918.049	10139
918.161	10287
918.272	10402
918.384	10428
918.495	10257
918.606	10154
918.717	10139
918.828	10128
918.939	10109
919.05	10147
919.161	10021
919.272	9991
919.383	9994
919.494	10207
919.604	10348
919.715	10185
919.826	10074
919.936	10071
920.047	10227
920.157	10169
920.267	10367
920.378	10177
920.488	10116
920.598	10337
920.708	10443
920.818	10371
920.928	10382
921.038	10508
921.148	10436
921.258	10230
921.368	10131
921.477	10021
921.587	10013
921.697	9907
921.806	10032
921.916	9922
922.025	9751
922.134	9648
922.244	9724
922.353	9686
922.462	9591
922.571	9610
922.68	9428
922.789	9378
922.898	9367
923.007	9382
923.116	9500
923.224	9477
923.333	9420
923.442	9336
923.55	9313
923.659	9226
923.767	9355
923.876	9245
923.984	9321
924.092	9253
924.201	9287
924.309	9211
924.417	9279
924.525	9211
924.633	9195
924.741	9987
924.849	9104
924.956	9218
925.064	9081
925.172	8979
925.279	9001
925.387	9089
925.494	9131
925.602	9222
925.709	9116
925.816	9039
925.924	9070
926.031	9093
926.138	9001
926.245	9154
926.352	9005
926.459	9036
926.566	9192
926.673	9009
926.779	8963
926.886	8872
926.993	8766
927.099	8796
927.206	8743
927.312	8750
927.419	8876
927.525	8788
927.631	8769
927.737	8708
927.843	8712
927.95	8579
928.056	8708
928.162	8727
928.267	8811
928.373	9378
928.479	8743
928.585	8476
928.69	8708
928.796	8750
928.901	8545
929.007	8476
929.112	8610
929.218	8602
929.323	8564
929.428	8476
929.533	8579
929.638	8450
929.743	8545
929.848	8549
929.953	8465
930.058	8404
930.163	8252
930.267	8294
930.372	8393
930.477	8233
930.581	8476
930.685	8275
930.79	8233
930.894	8221
930.998	8195
931.103	8343
931.207	8065
931.311	7940
931.415	7875
931.519	7738
931.623	7727
