Data from test_V78500241_686.txt Node
Date: Fri Mar 25 14:38:29 CST 2022
User: usil
Spectrometer: V785-0024
Trigger mode: 0
Integration Time (sec): 4.000000E-1
Scans to average: 1
Nonlinearity correction enabled: false
Boxcar width: 0
Storing dark spectrum: false
XAxis mode: Wavelengths
Number of Pixels in Spectrum: 1024
>>>>>Begin Spectral Data<<<<<
801.071	28013
801.214	27873
801.356	27701
801.499	27595
801.641	27519
801.783	27389
801.926	27561
802.068	27443
802.211	27302
802.353	27241
802.496	26979
802.638	27066
802.78	27066
802.923	26906
803.065	26925
803.208	26880
803.35	27047
803.492	26998
803.635	27157
803.777	27154
803.919	27085
804.061	27561
804.204	27214
804.346	27119
804.488	27131
804.63	27245
804.773	27230
804.915	27374
805.057	27477
805.199	27359
805.341	27652
805.483	27701
805.626	27705
805.768	27576
805.91	27827
806.052	28044
806.194	27930
806.336	28390
806.478	28352
806.62	28634
806.762	29044
806.904	29444
807.046	29889
807.188	30060
807.33	30639
807.472	31354
807.614	31810
807.756	32754
807.898	33968
808.04	35417
808.182	37407
808.324	40067
808.465	43122
808.607	46405
808.749	49396
808.891	51279
809.033	51378
809.174	49525
809.316	46793
809.458	43392
809.6	39766
809.741	37190
809.883	34999
810.025	33466
810.166	32290
810.308	31502
810.45	30719
810.591	30327
810.733	29680
810.875	29303
811.016	29090
811.158	28706
811.299	28603
811.441	28694
811.582	28527
811.724	28276
811.865	28150
812.007	28002
812.148	27979
812.29	28040
812.431	28040
812.573	28147
812.714	28070
812.855	28135
812.997	28116
813.138	28329
813.279	28097
813.421	28032
813.562	27835
813.703	27759
813.845	27663
813.986	27192
814.127	26914
814.268	26929
814.41	26925
814.551	26693
814.692	26838
814.833	26651
814.974	26640
815.115	26697
815.256	26469
815.397	26583
815.539	26495
815.68	26336
815.821	26237
815.962	26259
816.103	26191
816.244	26191
816.385	26001
816.526	25913
816.666	25708
816.807	25704
816.948	25597
817.089	25795
817.23	25597
817.371	25552
817.512	25556
817.653	25434
817.793	25457
817.934	25590
818.075	25388
818.216	25594
818.356	25369
818.497	25301
818.638	25198
818.778	25198
818.919	25129
819.06	25263
819.2	25369
819.341	25396
819.481	25476
819.622	25483
819.762	25597
819.903	25563
820.043	25529
820.184	25468
820.324	25362
820.465	25518
820.605	25354
820.746	25400
820.886	25247
821.026	25251
821.167	25339
821.307	25331
821.447	25270
821.588	25034
821.728	24863
821.868	24776
822.008	24829
822.149	24604
822.289	24490
822.429	24407
822.569	24213
822.709	24285
822.849	24003
822.99	24015
823.13	23996
823.27	23828
823.41	23885
823.55	23684
823.69	23882
823.83	23798
823.97	23745
824.11	23474
824.25	23490
824.389	23600
824.529	23646
824.669	23596
824.809	23691
824.949	23592
825.089	23539
825.228	23566
825.368	23368
825.508	23452
825.648	23360
825.787	23474
825.927	23429
826.067	23391
826.206	23471
826.346	23337
826.485	23395
826.625	23368
826.765	23406
826.904	23421
827.044	23132
827.183	23029
827.323	22942
827.462	22984
827.601	22995
827.741	22953
827.88	22961
828.02	22881
828.159	22984
828.298	22900
828.437	23105
828.577	22885
828.716	23094
828.855	22778
828.994	22569
829.134	22729
829.273	22637
829.412	22634
829.551	22622
829.69	22596
829.829	22740
829.968	22668
830.107	22717
830.246	22577
830.385	22554
830.524	22466
830.663	22535
830.802	22287
830.941	22261
831.08	22226
831.219	22360
831.357	22314
831.496	22398
831.635	22386
831.774	22192
831.913	22181
832.051	22234
832.19	21975
832.329	22177
832.467	22051
832.606	21960
832.744	22074
832.883	22158
833.022	22462
833.16	22379
833.299	22382
833.437	22637
833.576	22748
833.714	22889
833.852	23098
833.991	23159
834.129	23341
834.267	23383
834.406	23193
834.544	23147
834.682	23025
834.821	22953
834.959	22889
835.097	22622
835.235	22615
835.373	22322
835.511	22367
835.65	22223
835.788	22025
835.926	21876
836.064	21781
836.202	21804
836.34	21884
836.478	21884
836.615	21876
836.753	21922
836.891	21926
837.029	21835
837.167	21694
837.305	21755
837.443	21648
837.58	21538
837.718	21705
837.856	21625
837.993	21488
838.131	21561
838.269	21431
838.406	21408
838.544	21359
838.681	21085
838.819	21146
838.956	20979
839.094	21074
839.231	21058
839.369	20986
839.506	21435
839.643	21154
839.781	20933
839.918	21005
840.055	21074
840.193	20906
840.33	21032
840.467	21013
840.604	20956
840.742	21252
840.879	20891
841.016	20785
841.153	20796
841.29	21108
841.427	20891
841.564	21036
841.701	20941
841.838	20937
841.975	20933
842.112	20880
842.249	20823
842.385	20853
842.522	21020
842.659	20872
842.796	20872
842.933	20914
843.069	20758
843.206	20727
843.343	20967
843.479	20819
843.616	20845
843.752	20796
843.889	20925
844.025	20944
844.162	20944
844.298	21150
844.435	21169
844.571	21466
844.708	21789
844.844	22154
844.98	22546
845.117	23181
845.253	24049
845.389	26115
845.525	29836
845.661	35859
845.798	42738
845.934	47706
846.07	49799
846.206	48216
846.342	43304
846.478	36460
846.614	30517
846.75	26602
846.886	24334
847.022	22991
847.158	22082
847.294	21629
847.429	21165
847.565	20842
847.701	21005
847.837	20305
847.972	20142
848.108	20073
848.244	20214
848.379	19925
848.515	19883
848.65	19784
848.786	19727
848.921	19708
849.057	19784
849.192	19769
849.328	19677
849.463	19708
849.598	19578
849.734	19552
849.869	19556
850.004	19362
850.14	19468
850.275	19263
850.41	19289
850.545	19373
850.68	19293
850.815	19384
850.95	19274
851.085	19502
851.22	19502
851.355	19240
851.49	19354
851.625	19274
851.76	19373
851.895	19301
852.03	19365
852.165	19476
852.299	19453
852.434	19464
852.569	19384
852.703	19445
852.838	19491
852.973	19487
853.107	19632
853.242	19597
853.376	19407
853.511	19331
853.645	19468
853.78	19571
853.914	19655
854.048	19514
854.183	19525
854.317	19712
854.451	19845
854.585	19693
854.72	19605
854.854	19601
854.988	19499
855.122	19552
855.256	19362
855.39	19525
855.524	19396
855.658	19350
855.792	19403
855.926	19187
856.06	19365
856.194	19350
856.327	19160
856.461	19141
856.595	19232
856.729	19247
856.862	19244
856.996	19209
857.13	19221
857.263	19259
857.397	19247
857.53	19168
857.664	19179
857.797	19255
857.931	19145
858.064	19198
858.197	19346
858.331	19164
858.464	19019
858.597	19008
858.731	19164
858.864	19171
858.997	19004
859.13	19107
859.263	19069
859.396	19110
859.529	19095
859.662	18966
859.795	19053
859.928	19031
860.061	19110
860.194	19202
860.327	18970
860.46	18837
860.592	19065
860.725	19164
860.858	18970
860.99	19015
861.123	18985
861.256	18920
861.388	18947
861.521	19563
861.653	18901
861.786	18650
861.918	18875
862.05	18867
862.183	18928
862.315	18863
862.447	19072
862.58	18916
862.712	18749
862.844	18730
862.976	18814
863.108	18741
863.24	19095
863.372	18631
863.504	18585
863.636	18669
863.768	18700
863.9	18726
864.032	18563
864.164	18582
864.296	18673
864.428	18768
864.559	18692
864.691	18688
864.823	18669
864.954	18601
865.086	18631
865.217	18635
865.349	18509
865.48	18642
865.612	18532
865.743	18688
865.875	18585
866.006	18608
866.137	18601
866.269	18559
866.4	18475
866.531	18544
866.662	18433
866.793	18563
866.924	18509
867.055	18483
867.186	18544
867.317	18536
867.448	18437
867.579	18448
867.71	18483
867.841	18498
867.972	18566
868.103	18582
868.233	18608
868.364	18684
868.495	18677
868.625	18837
868.756	18875
868.886	18658
869.017	18779
869.147	18909
869.278	18882
869.408	18833
869.539	18783
869.669	18897
869.799	18844
869.929	18897
870.06	19015
870.19	19171
870.32	19042
870.45	19209
870.58	19198
870.71	19206
870.84	19403
870.97	19297
871.1	19324
871.23	19373
871.36	19552
871.489	19369
871.619	19392
871.749	19476
871.879	19529
872.008	19632
872.138	19529
872.267	19597
872.397	19544
872.526	19449
872.656	19388
872.785	19544
872.915	19624
873.044	19666
873.173	19696
873.303	19750
873.432	19799
873.561	19890
873.69	19712
873.819	19738
873.948	19925
874.077	19845
874.206	19871
874.335	19803
874.464	20084
874.593	20233
874.722	20237
874.851	20271
874.979	20267
875.108	20434
875.237	20396
875.365	20278
875.494	20461
875.623	20530
875.751	20541
875.88	20530
876.008	20712
876.136	20762
876.265	21017
876.393	21245
876.521	21135
876.65	21355
876.778	21294
876.906	21287
877.034	21321
877.162	21412
877.29	21389
877.418	21644
877.546	21720
877.674	21857
877.802	21941
877.93	22128
878.058	22246
878.185	22421
878.313	22664
878.441	23128
878.568	23326
878.696	24041
878.824	24787
878.951	25913
879.079	27644
879.206	29615
879.333	31742
879.461	33317
879.588	34577
879.715	34573
879.842	33739
879.97	31830
880.097	29672
880.224	27972
880.351	26678
880.478	25776
880.605	25350
880.732	24897
880.859	24871
880.986	24410
881.112	24296
881.239	24129
881.366	23912
881.493	23958
881.619	23870
881.746	24003
881.872	23977
881.999	23882
882.125	23980
882.252	24098
882.378	24072
882.505	24182
882.631	24136
882.757	23942
882.883	24102
883.01	23863
883.136	24015
883.262	23798
883.388	23737
883.514	23927
883.64	23874
883.766	23817
883.892	23737
884.018	23771
884.143	23843
884.269	23992
884.395	23786
884.52	23558
884.646	23661
884.772	23455
884.897	23608
885.023	23714
885.148	23691
885.274	23680
885.399	23630
885.524	23463
885.65	23303
885.775	23094
885.9	23025
886.025	23010
886.15	22938
886.275	22622
886.4	22280
886.525	22253
886.65	22112
886.775	22048
886.9	22017
887.025	22162
887.149	21762
887.274	21443
887.399	21313
887.523	21279
887.648	21028
887.773	20998
887.897	21085
888.021	21009
888.146	20823
888.27	20960
888.395	20872
888.519	20727
888.643	20724
888.767	20564
888.891	20431
889.015	20480
889.139	20434
889.263	20309
889.387	20431
889.511	20476
889.635	20324
889.759	20115
889.883	20134
890.006	20054
890.13	20111
890.254	20024
890.377	19997
890.501	19769
890.624	19651
890.748	19753
890.871	19628
890.995	19567
891.118	19384
891.241	19449
891.364	19518
891.488	19339
891.611	19324
891.734	19343
891.857	19289
891.98	19251
892.103	19339
892.226	19297
892.349	19145
892.471	18878
892.594	19095
892.717	19084
892.839	19042
892.962	18886
893.085	19069
893.207	18932
893.33	18821
893.452	18760
893.575	18859
893.697	18810
893.819	18856
893.941	18852
894.064	18920
894.186	18707
894.308	18661
894.43	18749
894.552	18734
894.674	18764
894.796	18658
894.918	18612
895.04	18528
895.161	18703
895.283	18509
895.405	18456
895.526	18479
895.648	18513
895.769	18445
895.891	18429
896.012	18506
896.134	18448
896.255	18433
896.376	18410
896.498	18563
896.619	18464
896.74	18521
896.861	18544
896.982	18741
897.103	18886
897.224	18677
897.345	18677
897.466	18627
897.587	18559
897.708	18730
897.828	18677
897.949	18479
898.07	18502
898.19	18467
898.311	18623
898.431	18604
898.552	18593
898.672	18661
898.792	18669
898.913	18616
899.033	18475
899.153	18407
899.273	18300
899.393	18410
899.513	18399
899.633	18346
899.753	18323
899.873	18273
899.993	18391
900.113	18384
900.232	18429
900.352	18281
900.472	18281
900.591	18068
900.711	18224
900.83	18186
900.95	18213
901.069	18239
901.189	18007
901.308	17817
901.427	17646
901.546	17726
901.665	17703
901.784	17855
901.904	17684
902.023	17505
902.141	17303
902.26	17220
902.379	17261
902.498	17208
902.617	17170
902.735	17227
902.854	17102
902.973	17071
903.091	16767
903.21	16835
903.328	16797
903.446	16729
903.565	16618
903.683	16691
903.801	16497
903.919	16447
904.038	16538
904.156	16398
904.274	16413
904.392	16242
904.51	16249
904.627	16306
904.745	16398
904.863	16356
904.981	16200
905.098	15960
905.216	15945
905.334	16071
905.451	16101
905.569	15838
905.686	16002
905.803	15800
905.921	15766
906.038	15842
906.155	15728
906.272	15644
906.389	15618
906.506	15492
906.623	15530
906.74	15420
906.857	15412
906.974	15370
907.091	15462
907.208	15587
907.324	15454
907.441	15447
907.557	15203
907.674	15192
907.79	15077
907.907	15169
908.023	15214
908.139	15119
908.256	15135
908.372	15028
908.488	14975
908.604	14899
908.72	14902
908.836	14902
908.952	14918
909.068	14948
909.184	14975
909.3	14830
909.415	15009
909.531	14910
909.647	14693
909.762	14617
909.878	14461
909.993	14636
910.108	14610
910.224	14545
910.339	14682
910.454	14511
910.57	14396
910.685	14339
910.8	14579
910.915	14568
911.03	14434
911.145	14259
911.259	14225
911.374	14278
911.489	14153
911.604	14020
911.718	13947
911.833	14008
911.947	13849
912.062	13841
912.176	14001
912.291	13970
912.405	14027
912.519	14142
912.633	14100
912.748	14138
912.862	14050
912.976	13746
913.09	13674
913.204	13765
913.318	13852
913.431	13921
913.545	13871
913.659	13913
913.772	13894
913.886	13731
914	13620
914.113	13795
914.226	13822
914.34	13700
914.453	13670
914.566	13742
914.68	13544
914.793	13571
914.906	13453
915.019	13263
915.132	13244
915.245	13362
915.358	13453
915.47	13369
915.583	13381
915.696	13403
915.809	13521
915.921	13537
916.034	13384
916.146	13240
916.259	13301
916.371	13441
916.483	13339
916.595	13320
916.708	13327
916.82	13327
916.932	13301
917.044	13304
917.156	13217
917.268	13221
917.38	13080
917.491	12996
917.603	13206
917.715	13149
917.826	13149
917.938	13015
918.049	12875
918.161	13069
918.272	13206
918.384	13099
918.495	12996
918.606	12924
918.717	12875
918.828	12901
918.939	12897
919.05	12798
919.161	12844
919.272	12654
919.383	12616
919.494	12897
919.604	12958
919.715	12844
919.826	12852
919.936	12703
920.047	12962
920.157	12821
920.267	12916
920.378	12806
920.488	12817
920.598	12954
920.708	13103
920.818	12973
920.928	12977
921.038	13179
921.148	13091
921.258	12825
921.368	12654
921.477	12635
921.587	12585
921.697	12490
921.806	12616
921.916	12464
922.025	12300
922.134	12308
922.244	12300
922.353	12296
922.462	12144
922.571	12045
922.68	11912
922.789	11908
922.898	11904
923.007	11824
923.116	11866
923.224	11950
923.333	11904
923.442	11737
923.55	11733
923.659	11775
923.767	11779
923.876	11722
923.984	11786
924.092	11688
924.201	11688
924.309	11733
924.417	11760
924.525	11661
924.633	11604
924.741	12547
924.849	11505
924.956	11592
925.064	11406
925.172	11387
925.279	11376
925.387	11425
925.494	11501
925.602	11512
925.709	11455
925.816	11372
925.924	11421
926.031	11497
926.138	11417
926.245	11505
926.352	11296
926.459	11497
926.566	11493
926.673	11246
926.779	11235
926.886	11185
926.993	10991
927.099	11064
927.206	11025
927.312	10900
927.419	11090
927.525	10991
927.631	11033
927.737	10946
927.843	10908
927.95	10824
928.056	10949
928.162	10987
928.267	10976
928.373	11463
928.479	10991
928.585	10793
928.69	10877
928.796	10889
928.901	10797
929.007	10656
929.112	10828
929.218	10687
929.323	10634
929.428	10649
929.533	10740
929.638	10577
929.743	10656
929.848	10626
929.953	10569
930.058	10481
930.163	10405
930.267	10375
930.372	10535
930.477	10284
930.581	10561
930.685	10440
930.79	10181
930.894	10375
930.998	10200
931.103	10405
931.207	10067
931.311	9964
931.415	9903
931.519	9713
931.623	9606
