Data from test_V78500241_2192.txt Node
Date: Fri Mar 25 14:48:58 CST 2022
User: usil
Spectrometer: V785-0024
Trigger mode: 0
Integration Time (sec): 4.000000E-1
Scans to average: 1
Nonlinearity correction enabled: false
Boxcar width: 0
Storing dark spectrum: false
XAxis mode: Wavelengths
Number of Pixels in Spectrum: 1024
>>>>>Begin Spectral Data<<<<<
801.071	22097
801.214	21907
801.356	21774
801.499	21679
801.641	21485
801.783	21545
801.926	21526
802.068	21428
802.211	21370
802.353	21245
802.496	21047
802.638	21123
802.78	20986
802.923	20910
803.065	20838
803.208	20857
803.35	20876
803.492	20864
803.635	21093
803.777	20804
803.919	20887
804.061	21218
804.204	20990
804.346	20788
804.488	20815
804.63	20842
804.773	20689
804.915	20735
805.057	20834
805.199	20697
805.341	20739
805.483	20979
805.626	20883
805.768	20750
805.91	20689
806.052	20899
806.194	20667
806.336	20857
806.478	20773
806.62	20758
806.762	20785
806.904	20891
807.046	21161
807.188	21188
807.33	20990
807.472	21055
807.614	20963
807.756	21043
807.898	20876
808.04	20902
808.182	20792
808.324	20895
808.465	20823
808.607	21093
808.749	21039
808.891	21154
809.033	21321
809.174	21218
809.316	21001
809.458	21028
809.6	21214
809.741	21241
809.883	21199
810.025	21367
810.166	21344
810.308	21184
810.45	21214
810.591	21203
810.733	21017
810.875	21077
811.016	20849
811.158	20918
811.299	20785
811.441	21085
811.582	21218
811.724	20845
811.865	20739
812.007	20891
812.148	20899
812.29	20864
812.431	21039
812.573	21287
812.714	21348
812.855	21428
812.997	21523
813.138	21587
813.279	21538
813.421	21378
813.562	21374
813.703	21150
813.845	20998
813.986	20826
814.127	20537
814.268	20438
814.41	20530
814.551	20396
814.692	20473
814.833	20408
814.974	20556
815.115	20469
815.256	20286
815.397	20259
815.539	20244
815.68	20199
815.821	20172
815.962	20332
816.103	20180
816.244	20020
816.385	19830
816.526	19993
816.666	19731
816.807	19624
816.948	19807
817.089	19674
817.23	19655
817.371	19590
817.512	19582
817.653	19544
817.793	19419
817.934	19677
818.075	19639
818.216	19658
818.356	19537
818.497	19320
818.638	19301
818.778	19240
818.919	19297
819.06	19312
819.2	19491
819.341	19499
819.481	19487
819.622	19499
819.762	19799
819.903	19708
820.043	19597
820.184	19582
820.324	19632
820.465	19620
820.605	19632
820.746	19537
820.886	19438
821.026	19578
821.167	19559
821.307	19449
821.447	19499
821.588	19441
821.728	19308
821.868	19145
822.008	19015
822.149	18867
822.289	18973
822.429	18696
822.569	18635
822.709	18730
822.849	18475
822.99	18414
823.13	18437
823.27	18441
823.41	18213
823.55	18163
823.69	18292
823.83	18224
823.97	18155
824.11	17980
824.25	18064
824.389	17980
824.529	18163
824.669	17999
824.809	18232
824.949	18159
825.089	18026
825.228	18083
825.368	17904
825.508	17771
825.648	17756
825.787	17771
825.927	17828
826.067	17760
826.206	17695
826.346	17870
826.485	17935
826.625	17790
826.765	17984
826.904	17843
827.044	17482
827.183	17554
827.323	17585
827.462	17581
827.601	17490
827.741	17532
827.88	17452
828.02	17417
828.159	17452
828.298	17490
828.437	17585
828.577	17512
828.716	17585
828.855	17570
828.994	17421
829.134	17303
829.273	17307
829.412	17181
829.551	17124
829.69	17273
829.829	17307
829.968	17296
830.107	17288
830.246	17330
830.385	17185
830.524	17140
830.663	17041
830.802	17075
830.941	16812
831.08	16896
831.219	16835
831.357	16885
831.496	17185
831.635	16839
831.774	16843
831.913	16774
832.051	16660
832.19	16698
832.329	16767
832.467	16561
832.606	16523
832.744	16523
832.883	16641
833.022	16455
833.16	16596
833.299	16710
833.437	16611
833.576	16603
833.714	16637
833.852	16584
833.991	16618
834.129	16710
834.267	16577
834.406	16599
834.544	16580
834.682	16603
834.821	16588
834.959	16717
835.097	16542
835.235	16744
835.373	16603
835.511	16668
835.65	16531
835.788	16516
835.926	16367
836.064	16314
836.202	16402
836.34	16481
836.478	16592
836.615	16481
836.753	16573
836.891	16561
837.029	16573
837.167	16462
837.305	16500
837.443	16386
837.58	16344
837.718	16485
837.856	16295
837.993	16329
838.131	16417
838.269	16352
838.406	16299
838.544	16295
838.681	16207
838.819	16044
838.956	15949
839.094	15983
839.231	15987
839.369	16025
839.506	16272
839.643	16120
839.781	16040
839.918	15873
840.055	15899
840.193	15854
840.33	15895
840.467	15941
840.604	15956
840.742	16158
840.879	15819
841.016	15778
841.153	15793
841.29	16021
841.427	16044
841.564	15975
841.701	15956
841.838	15987
841.975	15789
842.112	15850
842.249	15713
842.385	15603
842.522	15907
842.659	15778
842.796	15717
842.933	15682
843.069	15755
843.206	15679
843.343	15789
843.479	15701
843.616	15831
843.752	15515
843.889	15363
844.025	15625
844.162	15469
844.298	15644
844.435	15507
844.571	15450
844.708	15557
844.844	15610
844.98	15728
845.117	15561
845.253	15412
845.389	15298
845.525	15355
845.661	15294
845.798	15260
845.934	15279
846.07	15340
846.206	15405
846.342	15443
846.478	15313
846.614	15180
846.75	15085
846.886	15066
847.022	15169
847.158	15024
847.294	15127
847.429	15119
847.565	15013
847.701	15344
847.837	14902
847.972	14895
848.108	14853
848.244	14864
848.379	14762
848.515	14640
848.65	14655
848.786	14686
848.921	14610
849.057	14773
849.192	14735
849.328	14659
849.463	14640
849.598	14708
849.734	14568
849.869	14484
850.004	14522
850.14	14503
850.275	14427
850.41	14305
850.545	14355
850.68	14427
850.815	14400
850.95	14442
851.085	14518
851.22	14431
851.355	14473
851.49	14454
851.625	14431
851.76	14400
851.895	14282
852.03	14366
852.165	14366
852.299	14461
852.434	14492
852.569	14492
852.703	14415
852.838	14522
852.973	14594
853.107	14571
853.242	14366
853.376	14389
853.511	14183
853.645	14351
853.78	14526
853.914	14381
854.048	14187
854.183	14202
854.317	14298
854.451	14446
854.585	14275
854.72	14259
854.854	14377
854.988	14172
855.122	14259
855.256	14180
855.39	14282
855.524	14343
855.658	14339
855.792	14271
855.926	14347
856.06	14393
856.194	14415
856.327	14275
856.461	14199
856.595	14282
856.729	14286
856.862	14381
856.996	14370
857.13	14343
857.263	14419
857.397	14377
857.53	14298
857.664	14377
857.797	14263
857.931	14366
858.064	14400
858.197	14385
858.331	14271
858.464	14214
858.597	14187
858.731	14278
858.864	14351
858.997	14252
859.13	14240
859.263	14317
859.396	14278
859.529	14225
859.662	14248
859.795	14214
859.928	14313
860.061	14469
860.194	14434
860.327	14358
860.46	14278
860.592	14480
860.725	14537
860.858	14434
860.99	14336
861.123	14206
861.256	14229
861.388	14313
861.521	14921
861.653	14259
861.786	14221
861.918	14191
862.05	14180
862.183	14286
862.315	14301
862.447	14358
862.58	14286
862.712	13978
862.844	14005
862.976	14123
863.108	14058
863.24	14442
863.372	14027
863.504	14130
863.636	14081
863.768	14081
863.9	14096
864.032	13989
864.164	14077
864.296	14039
864.428	14130
864.559	14119
864.691	14168
864.823	14202
864.954	14100
865.086	14199
865.217	14100
865.349	14065
865.48	14176
865.612	14081
865.743	14183
865.875	14054
866.006	14103
866.137	14088
866.269	14024
866.4	14096
866.531	14069
866.662	13947
866.793	13947
866.924	14035
867.055	14054
867.186	13993
867.317	14050
867.448	13940
867.579	14031
867.71	14016
867.841	13978
867.972	14111
868.103	14046
868.233	14103
868.364	14031
868.495	14164
868.625	14267
868.756	14377
868.886	14180
869.017	14366
869.147	14355
869.278	14385
869.408	14324
869.539	14240
869.669	14408
869.799	14271
869.929	14476
870.06	14454
870.19	14682
870.32	14575
870.45	14583
870.58	14674
870.71	14769
870.84	14834
870.97	14743
871.1	14693
871.23	14933
871.36	14956
871.489	14788
871.619	14815
871.749	14842
871.879	14906
872.008	15013
872.138	14853
872.267	14857
872.397	14781
872.526	14678
872.656	14705
872.785	14686
872.915	14963
873.044	14986
873.173	14975
873.303	15020
873.432	14998
873.561	15089
873.69	14994
873.819	15036
873.948	14979
874.077	15024
874.206	15013
874.335	14914
874.464	15184
874.593	15138
874.722	15199
874.851	15291
874.979	15272
875.108	15313
875.237	15260
875.365	15146
875.494	15207
875.623	15370
875.751	15332
875.88	15359
876.008	15431
876.136	15488
876.265	15781
876.393	15785
876.521	15759
876.65	15720
876.778	15690
876.906	15641
877.034	15576
877.162	15663
877.29	15625
877.418	15603
877.546	15606
877.674	15679
877.802	15709
877.93	15728
878.058	15610
878.185	15580
878.313	15667
878.441	15641
878.568	15599
878.696	15652
878.824	15713
878.951	15835
879.079	15873
879.206	15945
879.333	15888
879.461	15808
879.588	15816
879.715	15949
879.842	15994
879.97	15804
880.097	15488
880.224	15496
880.351	15507
880.478	15526
880.605	15526
880.732	15439
880.859	15614
880.986	15530
881.112	15462
881.239	15416
881.366	15370
881.493	15150
881.619	15116
881.746	15176
881.872	15119
881.999	15157
882.125	15127
882.252	15283
882.378	15157
882.505	15340
882.631	15104
882.757	15070
882.883	15024
883.01	14975
883.136	14963
883.262	14849
883.388	14906
883.514	15036
883.64	14990
883.766	14963
883.892	14842
884.018	14819
884.143	14956
884.269	15066
884.395	14735
884.52	14640
884.646	14762
884.772	14670
884.897	14606
885.023	14716
885.148	14800
885.274	14895
885.399	14834
885.524	14727
885.65	14693
885.775	14746
885.9	14727
886.025	14830
886.15	14815
886.275	14765
886.4	14560
886.525	14648
886.65	14625
886.775	14743
886.9	14823
887.025	14941
887.149	14716
887.274	14522
887.399	14526
887.523	14571
887.648	14537
887.773	14393
887.897	14602
888.021	14632
888.146	14533
888.27	14610
888.395	14552
888.519	14594
888.643	14617
888.767	14667
888.891	14385
889.015	14396
889.139	14446
889.263	14404
889.387	14526
889.511	14476
889.635	14552
889.759	14438
889.883	14446
890.006	14366
890.13	14514
890.254	14313
890.377	14374
890.501	14183
890.624	14111
890.748	14301
890.871	14123
890.995	14084
891.118	14077
891.241	14214
891.364	14073
891.488	14187
891.611	14043
891.734	14134
891.857	14183
891.98	14168
892.103	14149
892.226	14153
892.349	14024
892.471	13928
892.594	14081
892.717	14069
892.839	14031
892.962	14103
893.085	14142
893.207	14123
893.33	14035
893.452	14073
893.575	14176
893.697	14077
893.819	14244
893.941	14347
894.064	14290
894.186	14100
894.308	14065
894.43	14164
894.552	14290
894.674	14172
894.796	14065
894.918	14206
895.04	14149
895.161	14237
895.283	14145
895.405	14035
895.526	14233
895.648	14240
895.769	14294
895.891	14267
896.012	14404
896.134	14225
896.255	14229
896.376	14248
896.498	14278
896.619	14290
896.74	14339
896.861	14355
896.982	14568
897.103	14807
897.224	14682
897.345	14556
897.466	14454
897.587	14514
897.708	14632
897.828	14571
897.949	14450
898.07	14488
898.19	14507
898.311	14629
898.431	14488
898.552	14583
898.672	14705
898.792	14636
898.913	14530
899.033	14632
899.153	14518
899.273	14434
899.393	14480
899.513	14400
899.633	14511
899.753	14526
899.873	14484
899.993	14415
900.113	14484
900.232	14503
900.352	14385
900.472	14412
900.591	14278
900.711	14298
900.83	14294
900.95	14552
901.069	14438
901.189	14290
901.308	14111
901.427	13963
901.546	14077
901.665	14065
901.784	13974
901.904	13879
902.023	13837
902.141	13624
902.26	13609
902.379	13761
902.498	13685
902.617	13510
902.735	13620
902.854	13597
902.973	13548
903.091	13263
903.21	13293
903.328	13251
903.446	13213
903.565	13183
903.683	13168
903.801	13042
903.919	13160
904.038	13095
904.156	13004
904.274	13069
904.392	12909
904.51	13069
904.627	12951
904.745	13053
904.863	12993
904.981	12867
905.098	12703
905.216	12719
905.334	12688
905.451	12597
905.569	12623
905.686	12741
905.803	12715
905.921	12559
906.038	12597
906.155	12479
906.272	12361
906.389	12452
906.506	12251
906.623	12285
906.74	12251
906.857	12155
906.974	12220
907.091	12365
907.208	12315
907.324	12258
907.441	12190
907.557	12026
907.674	12026
907.79	11950
907.907	11958
908.023	12060
908.139	12038
908.256	11946
908.372	11931
908.488	11882
908.604	11809
908.72	11707
908.836	11748
908.952	11684
909.068	11794
909.184	11821
909.3	11676
909.415	11817
909.531	11794
909.647	11570
909.762	11493
909.878	11376
909.993	11570
910.108	11490
910.224	11516
910.339	11478
910.454	11425
910.57	11349
910.685	11379
910.8	11509
910.915	11573
911.03	11341
911.145	11258
911.259	11246
911.374	11189
911.489	11155
911.604	11121
911.718	11025
911.833	10961
911.947	10866
912.062	10854
912.176	10980
912.291	10946
912.405	10984
912.519	11117
912.633	11212
912.748	11041
912.862	11033
912.976	10869
913.09	10752
913.204	10793
913.318	10873
913.431	11033
913.545	10934
913.659	10934
913.772	10862
913.886	10733
914	10733
914.113	10858
914.226	10889
914.34	10854
914.453	10687
914.566	10847
914.68	10660
914.793	10782
914.906	10531
915.019	10527
915.132	10348
915.245	10466
915.358	10474
915.47	10512
915.583	10493
915.696	10599
915.809	10717
915.921	10622
916.034	10538
916.146	10474
916.259	10462
916.371	10489
916.483	10523
916.595	10386
916.708	10459
916.82	10447
916.932	10325
917.044	10382
917.156	10360
917.268	10223
917.38	10344
917.491	10329
917.603	10322
917.715	10402
917.826	10443
917.938	10314
918.049	10246
918.161	10295
918.272	10466
918.384	10474
918.495	10443
918.606	10291
918.717	10135
918.828	10154
918.939	10246
919.05	10154
919.161	10185
919.272	10002
919.383	10055
919.494	10257
919.604	10417
919.715	10253
919.826	10139
919.936	10166
920.047	10265
920.157	10276
920.267	10481
920.378	10276
920.488	10207
920.598	10405
920.708	10542
920.818	10459
920.928	10436
921.038	10432
921.148	10535
921.258	10265
921.368	10173
921.477	10097
921.587	10032
921.697	9994
921.806	10120
921.916	10025
922.025	9838
922.134	9766
922.244	9720
922.353	9816
922.462	9622
922.571	9641
922.68	9500
922.789	9386
922.898	9469
923.007	9431
923.116	9534
923.224	9378
923.333	9431
923.442	9389
923.55	9344
923.659	9351
923.767	9431
923.876	9374
923.984	9382
924.092	9317
924.201	9378
924.309	9302
924.417	9294
924.525	9272
924.633	9405
924.741	10276
924.849	9104
924.956	9321
925.064	9116
925.172	9100
925.279	9116
925.387	9165
925.494	9135
925.602	9245
925.709	9287
925.816	9138
925.924	9180
926.031	9283
926.138	9176
926.245	9226
926.352	9039
926.459	9233
926.566	9214
926.673	9093
926.779	9043
926.886	9055
926.993	8868
927.099	8842
927.206	8883
927.312	8830
927.419	8933
927.525	8880
927.631	8952
927.737	8754
927.843	8777
927.95	8712
928.056	8720
928.162	8800
928.267	8834
928.373	9420
928.479	8842
928.585	8667
928.69	8792
928.796	8811
928.901	8712
929.007	8606
929.112	8701
929.218	8682
929.323	8590
929.428	8587
929.533	8746
929.638	8518
929.743	8583
929.848	8606
929.953	8587
930.058	8457
930.163	8389
930.267	8351
930.372	8556
930.477	8412
930.581	8640
930.685	8362
930.79	8332
930.894	8305
930.998	8256
931.103	8488
931.207	8046
931.311	8069
931.415	8005
931.519	7826
931.623	7776
