Data from test_V78500241_3330.txt Node
Date: Fri Mar 25 14:56:54 CST 2022
User: usil
Spectrometer: V785-0024
Trigger mode: 0
Integration Time (sec): 4.000000E-1
Scans to average: 1
Nonlinearity correction enabled: false
Boxcar width: 0
Storing dark spectrum: false
XAxis mode: Wavelengths
Number of Pixels in Spectrum: 1024
>>>>>Begin Spectral Data<<<<<
801.071	21960
801.214	21884
801.356	21557
801.499	21389
801.641	21378
801.783	21214
801.926	21237
802.068	21321
802.211	21195
802.353	21169
802.496	20941
802.638	20937
802.78	20697
802.923	20670
803.065	20606
803.208	20609
803.35	20667
803.492	20720
803.635	20731
803.777	20606
803.919	20743
804.061	21043
804.204	20674
804.346	20644
804.488	20549
804.63	20583
804.773	20564
804.915	20488
805.057	20670
805.199	20579
805.341	20625
805.483	20602
805.626	20640
805.768	20446
805.91	20636
806.052	20579
806.194	20495
806.336	20590
806.478	20457
806.62	20503
806.762	20659
806.904	20750
807.046	21081
807.188	20853
807.33	20861
807.472	20883
807.614	20712
807.756	20872
807.898	20708
808.04	20602
808.182	20617
808.324	20541
808.465	20670
808.607	20838
808.749	20864
808.891	21055
809.033	21116
809.174	20982
809.316	20971
809.458	20853
809.6	20838
809.741	20956
809.883	20948
810.025	21001
810.166	21116
810.308	21131
810.45	20975
810.591	20921
810.733	20754
810.875	20697
811.016	20545
811.158	20564
811.299	20727
811.441	20765
811.582	20724
811.724	20800
811.865	20606
812.007	20583
812.148	20686
812.29	20701
812.431	20807
812.573	20971
812.714	21127
812.855	21100
812.997	21283
813.138	21382
813.279	21176
813.421	21188
813.562	21058
813.703	20937
813.845	20735
813.986	20518
814.127	20377
814.268	20324
814.41	20157
814.551	20256
814.692	20248
814.833	20138
814.974	20084
815.115	20298
815.256	20043
815.397	20096
815.539	20005
815.68	19978
815.821	19955
815.962	19868
816.103	19928
816.244	19784
816.385	19776
816.526	19635
816.666	19430
816.807	19335
816.948	19476
817.089	19510
817.23	19301
817.371	19373
817.512	19297
817.653	19392
817.793	19316
817.934	19327
818.075	19316
818.216	19297
818.356	19293
818.497	19099
818.638	19038
818.778	19065
818.919	19061
819.06	19080
819.2	19156
819.341	19183
819.481	19346
819.622	19362
819.762	19578
819.903	19559
820.043	19438
820.184	19285
820.324	19251
820.465	19388
820.605	19270
820.746	19270
820.886	19213
821.026	19202
821.167	19381
821.307	19335
821.447	19244
821.588	19183
821.728	19023
821.868	18973
822.008	18772
822.149	18783
822.289	18741
822.429	18429
822.569	18338
822.709	18407
822.849	18296
822.99	18304
823.13	18159
823.27	18224
823.41	18136
823.55	17908
823.69	18034
823.83	18003
823.97	17920
824.11	17916
824.25	17821
824.389	17760
824.529	17958
824.669	17684
824.809	17889
824.949	17980
825.089	17870
825.228	17889
825.368	17634
825.508	17623
825.648	17745
825.787	17615
825.927	17657
826.067	17482
826.206	17505
826.346	17646
826.485	17627
826.625	17630
826.765	17718
826.904	17604
827.044	17402
827.183	17406
827.323	17269
827.462	17433
827.601	17349
827.741	17261
827.88	17364
828.02	17212
828.159	17269
828.298	17349
828.437	17402
828.577	17258
828.716	17452
828.855	17231
828.994	17056
829.134	17159
829.273	17060
829.412	17018
829.551	17006
829.69	17022
829.829	17094
829.968	17136
830.107	17193
830.246	17022
830.385	17025
830.524	16908
830.663	16911
830.802	16805
830.941	16679
831.08	16717
831.219	16786
831.357	16809
831.496	16919
831.635	16645
831.774	16748
831.913	16626
832.051	16527
832.19	16478
832.329	16428
832.467	16424
832.606	16382
832.744	16379
832.883	16390
833.022	16325
833.16	16352
833.299	16424
833.437	16409
833.576	16466
833.714	16413
833.852	16451
833.991	16478
834.129	16512
834.267	16558
834.406	16428
834.544	16443
834.682	16447
834.821	16402
834.959	16596
835.097	16497
835.235	16561
835.373	16516
835.511	16504
835.65	16291
835.788	16306
835.926	16226
836.064	16109
836.202	16200
836.34	16318
836.478	16394
836.615	16367
836.753	16329
836.891	16474
837.029	16413
837.167	16337
837.305	16417
837.443	16154
837.58	16226
837.718	16314
837.856	16322
837.993	16112
838.131	16314
838.269	16128
838.406	16120
838.544	16135
838.681	15983
838.819	15934
838.956	15789
839.094	15835
839.231	15785
839.369	15956
839.506	16150
839.643	16071
839.781	15774
839.918	15739
840.055	15823
840.193	15812
840.33	15709
840.467	15671
840.604	15831
840.742	16086
840.879	15774
841.016	15717
841.153	15667
841.29	15911
841.427	15850
841.564	15873
841.701	15797
841.838	15747
841.975	15618
842.112	15713
842.249	15553
842.385	15485
842.522	15808
842.659	15561
842.796	15610
842.933	15523
843.069	15534
843.206	15485
843.343	15656
843.479	15469
843.616	15686
843.752	15378
843.889	15298
844.025	15530
844.162	15386
844.298	15431
844.435	15344
844.571	15256
844.708	15458
844.844	15530
844.98	15431
845.117	15466
845.253	15370
845.389	15138
845.525	15298
845.661	15233
845.798	15116
845.934	15150
846.07	15116
846.206	15188
846.342	15298
846.478	15135
846.614	15020
846.75	14876
846.886	14948
847.022	15112
847.158	14895
847.294	14925
847.429	14914
847.565	14914
847.701	15161
847.837	14667
847.972	14602
848.108	14712
848.244	14823
848.379	14552
848.515	14495
848.65	14492
848.786	14518
848.921	14636
849.057	14571
849.192	14613
849.328	14560
849.463	14484
849.598	14522
849.734	14583
849.869	14366
850.004	14362
850.14	14377
850.275	14328
850.41	14229
850.545	14248
850.68	14290
850.815	14294
850.95	14275
851.085	14423
851.22	14419
851.355	14267
851.49	14298
851.625	14256
851.76	14244
851.895	14259
852.03	14134
852.165	14355
852.299	14252
852.434	14434
852.569	14370
852.703	14366
852.838	14442
852.973	14492
853.107	14476
853.242	14332
853.376	14130
853.511	14054
853.645	14180
853.78	14305
853.914	14225
854.048	14126
854.183	14164
854.317	14225
854.451	14351
854.585	14244
854.72	14191
854.854	14275
854.988	14103
855.122	14084
855.256	14008
855.39	14134
855.524	14267
855.658	14210
855.792	14210
855.926	14161
856.06	14145
856.194	14309
856.327	14206
856.461	14164
856.595	14142
856.729	14130
856.862	14229
856.996	14157
857.13	14313
857.263	14377
857.397	14275
857.53	14168
857.664	14244
857.797	14126
857.931	14317
858.064	14191
858.197	14298
858.331	14168
858.464	14142
858.597	14100
858.731	14187
858.864	14130
858.997	14183
859.13	14180
859.263	14252
859.396	14240
859.529	14149
859.662	14183
859.795	14088
859.928	14221
860.061	14202
860.194	14332
860.327	14183
860.46	14157
860.592	14240
860.725	14290
860.858	14206
860.99	14172
861.123	14164
861.256	14081
861.388	14172
861.521	14944
861.653	14126
861.786	13868
861.918	14050
862.05	14138
862.183	14123
862.315	14126
862.447	14214
862.58	13986
862.712	13906
862.844	13925
862.976	13932
863.108	13932
863.24	14305
863.372	13909
863.504	13909
863.636	14069
863.768	14016
863.9	14001
864.032	13921
864.164	13917
864.296	13940
864.428	14065
864.559	14123
864.691	14024
864.823	13955
864.954	14031
865.086	14008
865.217	13906
865.349	13845
865.48	13883
865.612	13974
865.743	14119
865.875	13947
866.006	13864
866.137	13928
866.269	13963
866.4	13925
866.531	13997
866.662	13902
866.793	13898
866.924	13898
867.055	13944
867.186	14008
867.317	13925
867.448	13780
867.579	13894
867.71	13784
867.841	13864
867.972	13986
868.103	13849
868.233	13879
868.364	13986
868.495	13974
868.625	14107
868.756	14248
868.886	14016
869.017	14221
869.147	14267
869.278	14328
869.408	14229
869.539	14172
869.669	14317
869.799	14092
869.929	14393
870.06	14301
870.19	14533
870.32	14454
870.45	14526
870.58	14610
870.71	14686
870.84	14663
870.97	14564
871.1	14663
871.23	14731
871.36	14731
871.489	14610
871.619	14758
871.749	14716
871.879	14861
872.008	14883
872.138	14910
872.267	14777
872.397	14632
872.526	14575
872.656	14579
872.785	14674
872.915	14796
873.044	14910
873.173	14842
873.303	14895
873.432	14811
873.561	14921
873.69	14804
873.819	14769
873.948	14853
874.077	14857
874.206	14804
874.335	14811
874.464	15017
874.593	15112
874.722	14998
874.851	15188
874.979	15150
875.108	15154
875.237	15154
875.365	15043
875.494	15180
875.623	15268
875.751	15241
875.88	15188
876.008	15279
876.136	15439
876.265	15580
876.393	15709
876.521	15686
876.65	15747
876.778	15568
876.906	15526
877.034	15485
877.162	15629
877.29	15542
877.418	15675
877.546	15641
877.674	15507
877.802	15538
877.93	15572
878.058	15568
878.185	15439
878.313	15477
878.441	15545
878.568	15397
878.696	15450
878.824	15553
878.951	15690
879.079	15671
879.206	15892
879.333	15686
879.461	15641
879.588	15739
879.715	15827
879.842	15876
879.97	15622
880.097	15408
880.224	15393
880.351	15458
880.478	15538
880.605	15393
880.732	15393
880.859	15625
880.986	15416
881.112	15374
881.239	15241
881.366	15195
881.493	15195
881.619	15058
881.746	15131
881.872	15165
881.999	15047
882.125	15066
882.252	15116
882.378	15020
882.505	15241
882.631	15039
882.757	14902
882.883	14937
883.01	14899
883.136	14849
883.262	14758
883.388	14777
883.514	14899
883.64	15058
883.766	14887
883.892	14697
884.018	14823
884.143	14861
884.269	15055
884.395	14716
884.52	14602
884.646	14545
884.772	14541
884.897	14461
885.023	14522
885.148	14735
885.274	14781
885.399	14746
885.524	14518
885.65	14602
885.775	14655
885.9	14590
886.025	14769
886.15	14655
886.275	14621
886.4	14423
886.525	14617
886.65	14499
886.775	14518
886.9	14781
887.025	14769
887.149	14667
887.274	14374
887.399	14454
887.523	14450
887.648	14366
887.773	14294
887.897	14503
888.021	14507
888.146	14381
888.27	14541
888.395	14560
888.519	14533
888.643	14480
888.767	14446
888.891	14267
889.015	14313
889.139	14351
889.263	14248
889.387	14385
889.511	14511
889.635	14358
889.759	14320
889.883	14191
890.006	14385
890.13	14431
890.254	14237
890.377	14267
890.501	14005
890.624	14069
890.748	14100
890.871	14024
890.995	13947
891.118	13959
891.241	13989
891.364	14001
891.488	14123
891.611	13989
891.734	13906
891.857	14043
891.98	14020
892.103	14172
892.226	14001
892.349	13989
892.471	13826
892.594	14035
892.717	13974
892.839	14073
892.962	14088
893.085	14081
893.207	13986
893.33	13849
893.452	13955
893.575	14077
893.697	13936
893.819	14107
893.941	14206
894.064	14225
894.186	14005
894.308	13921
894.43	14126
894.552	14142
894.674	14115
894.796	13974
894.918	14111
895.04	14130
895.161	14058
895.283	14084
895.405	14058
895.526	14043
895.648	14107
895.769	14100
895.891	14161
896.012	14214
896.134	14271
896.255	14145
896.376	14202
896.498	14157
896.619	14164
896.74	14164
896.861	14263
896.982	14579
897.103	14629
897.224	14457
897.345	14412
897.466	14434
897.587	14438
897.708	14590
897.828	14499
897.949	14336
898.07	14278
898.19	14419
898.311	14503
898.431	14484
898.552	14503
898.672	14583
898.792	14617
898.913	14602
899.033	14408
899.153	14374
899.273	14301
899.393	14252
899.513	14423
899.633	14385
899.753	14347
899.873	14400
899.993	14484
900.113	14389
900.232	14438
900.352	14381
900.472	14358
900.591	14134
900.711	14244
900.83	14157
900.95	14271
901.069	14396
901.189	14176
901.308	13963
901.427	13940
901.546	13932
901.665	13951
901.784	13986
901.904	13765
902.023	13814
902.141	13571
902.26	13434
902.379	13537
902.498	13514
902.617	13460
902.735	13575
902.854	13495
902.973	13415
903.091	13179
903.21	13183
903.328	13297
903.446	13164
903.565	13069
903.683	13137
903.801	12981
903.919	13046
904.038	13015
904.156	12878
904.274	12989
904.392	12829
904.51	12852
904.627	12844
904.745	12882
904.863	12951
904.981	12700
905.098	12582
905.216	12620
905.334	12608
905.451	12547
905.569	12475
905.686	12540
905.803	12452
905.921	12372
906.038	12525
906.155	12365
906.272	12292
906.389	12277
906.506	12178
906.623	12232
906.74	12205
906.857	12007
906.974	12038
907.091	12262
907.208	12304
907.324	12175
907.441	12133
907.557	11961
907.674	11866
907.79	11790
907.907	11908
908.023	11920
908.139	11942
908.256	11824
908.372	11828
908.488	11790
908.604	11707
908.72	11619
908.836	11646
908.952	11745
909.068	11668
909.184	11802
909.3	11764
909.415	11764
909.531	11703
909.647	11448
909.762	11501
909.878	11410
909.993	11486
910.108	11379
910.224	11299
910.339	11395
910.454	11296
910.57	11242
910.685	11170
910.8	11570
910.915	11478
911.03	11288
911.145	11189
911.259	11140
911.374	11147
911.489	11094
911.604	11048
911.718	10961
911.833	10911
911.947	10812
912.062	10793
912.176	10896
912.291	10896
912.405	10965
912.519	11071
912.633	11117
912.748	11003
912.862	10911
912.976	10843
913.09	10618
913.204	10683
913.318	10828
913.431	10930
913.545	10839
913.659	10915
913.772	10774
913.886	10683
914	10611
914.113	10714
914.226	10736
914.34	10725
914.453	10580
914.566	10778
914.68	10618
914.793	10542
914.906	10481
915.019	10402
915.132	10280
915.245	10375
915.358	10531
915.47	10466
915.583	10432
915.696	10428
915.809	10554
915.921	10546
916.034	10436
916.146	10337
916.259	10329
916.371	10500
916.483	10432
916.595	10284
916.708	10291
916.82	10363
916.932	10341
917.044	10360
917.156	10291
917.268	10109
917.38	10230
917.491	10287
917.603	10291
917.715	10341
917.826	10322
917.938	10234
918.049	10177
918.161	10234
918.272	10348
918.384	10451
918.495	10276
918.606	10139
918.717	10048
918.828	10105
918.939	10188
919.05	10048
919.161	10169
919.272	9880
919.383	10021
919.494	10230
919.604	10303
919.715	10169
919.826	10124
919.936	10139
920.047	10234
920.157	10192
920.267	10398
920.378	10196
920.488	10169
920.598	10405
920.708	10504
920.818	10322
920.928	10299
921.038	10447
921.148	10436
921.258	10246
921.368	10131
921.477	9975
921.587	10025
921.697	9854
921.806	10048
921.916	9842
922.025	9789
922.134	9732
922.244	9667
922.353	9671
922.462	9591
922.571	9534
922.68	9443
922.789	9382
922.898	9412
923.007	9348
923.116	9416
923.224	9386
923.333	9325
923.442	9310
923.55	9279
923.659	9302
923.767	9397
923.876	9268
923.984	9359
924.092	9150
924.201	9256
924.309	9287
924.417	9313
924.525	9157
924.633	9218
924.741	10162
924.849	9020
924.956	9222
925.064	9055
925.172	8967
925.279	9013
925.387	9058
925.494	9013
925.602	9169
925.709	9192
925.816	9013
925.924	9077
926.031	9165
926.138	9039
926.245	9146
926.352	8956
926.459	9192
926.566	9176
926.673	9077
926.779	8948
926.886	8872
926.993	8819
927.099	8735
927.206	8754
927.312	8777
927.419	8838
927.525	8811
927.631	8857
927.737	8686
927.843	8636
927.95	8583
928.056	8659
928.162	8594
928.267	8766
928.373	9317
928.479	8811
928.585	8571
928.69	8575
928.796	8667
928.901	8648
929.007	8450
929.112	8492
929.218	8583
929.323	8530
929.428	8511
929.533	8667
929.638	8400
929.743	8503
929.848	8507
929.953	8503
930.058	8347
930.163	8244
930.267	8259
930.372	8419
930.477	8252
930.581	8434
930.685	8332
930.79	8172
930.894	8199
930.998	8176
931.103	8324
931.207	7932
931.311	7993
931.415	7894
931.519	7742
931.623	7670
