Data from test_V78500241_3051.txt Node
Date: Fri Mar 25 14:54:57 CST 2022
User: usil
Spectrometer: V785-0024
Trigger mode: 0
Integration Time (sec): 4.000000E-1
Scans to average: 1
Nonlinearity correction enabled: false
Boxcar width: 0
Storing dark spectrum: false
XAxis mode: Wavelengths
Number of Pixels in Spectrum: 1024
>>>>>Begin Spectral Data<<<<<
801.071	22029
801.214	21918
801.356	21785
801.499	21545
801.641	21549
801.783	21389
801.926	21420
802.068	21317
802.211	21469
802.353	21184
802.496	21062
802.638	21024
802.78	20857
802.923	20773
803.065	20834
803.208	20811
803.35	20800
803.492	20792
803.635	20899
803.777	20708
803.919	20918
804.061	21085
804.204	20796
804.346	20731
804.488	20602
804.63	20697
804.773	20815
804.915	20750
805.057	20895
805.199	20640
805.341	20758
805.483	20693
805.626	20701
805.768	20602
805.91	20667
806.052	20731
806.194	20636
806.336	20807
806.478	20765
806.62	20598
806.762	20701
806.904	20937
807.046	21146
807.188	21127
807.33	21058
807.472	21104
807.614	21028
807.756	21020
807.898	20769
808.04	20807
808.182	20842
808.324	20773
808.465	20899
808.607	20956
808.749	21043
808.891	21230
809.033	21302
809.174	21142
809.316	20998
809.458	21176
809.6	21066
809.741	21173
809.883	21161
810.025	21146
810.166	21161
810.308	21157
810.45	21138
810.591	21176
810.733	20933
810.875	20834
811.016	20735
811.158	20853
811.299	20956
811.441	21100
811.582	21005
811.724	20853
811.865	20769
812.007	20804
812.148	20807
812.29	20807
812.431	21108
812.573	21119
812.714	21336
812.855	21367
812.997	21443
813.138	21603
813.279	21431
813.421	21424
813.562	21260
813.703	21157
813.845	21024
813.986	20807
814.127	20533
814.268	20442
814.41	20419
814.551	20377
814.692	20377
814.833	20381
814.974	20385
815.115	20400
815.256	20278
815.397	20305
815.539	20195
815.68	20107
815.821	20043
815.962	20035
816.103	20107
816.244	20012
816.385	19826
816.526	19868
816.666	19601
816.807	19483
816.948	19590
817.089	19742
817.23	19510
817.371	19609
817.512	19460
817.653	19464
817.793	19422
817.934	19411
818.075	19510
818.216	19624
818.356	19392
818.497	19358
818.638	19095
818.778	19194
818.919	19244
819.06	19236
819.2	19407
819.341	19335
819.481	19415
819.622	19537
819.762	19772
819.903	19544
820.043	19734
820.184	19415
820.324	19525
820.465	19643
820.605	19620
820.746	19430
820.886	19293
821.026	19354
821.167	19426
821.307	19548
821.447	19426
821.588	19240
821.728	19187
821.868	19164
822.008	18882
822.149	18863
822.289	18928
822.429	18711
822.569	18563
822.709	18563
822.849	18388
822.99	18391
823.13	18327
823.27	18361
823.41	18262
823.55	18152
823.69	18273
823.83	18323
823.97	18117
824.11	17805
824.25	17870
824.389	17889
824.529	18003
824.669	17950
824.809	18098
824.949	18026
825.089	17973
825.228	18034
825.368	17756
825.508	17687
825.648	17786
825.787	17722
825.927	17756
826.067	17748
826.206	17630
826.346	17802
826.485	17813
826.625	17745
826.765	17779
826.904	17752
827.044	17478
827.183	17414
827.323	17372
827.462	17478
827.601	17516
827.741	17421
827.88	17429
828.02	17299
828.159	17398
828.298	17398
828.437	17501
828.577	17288
828.716	17463
828.855	17307
828.994	17212
829.134	17250
829.273	17128
829.412	17113
829.551	17006
829.69	17121
829.829	17288
829.968	17299
830.107	17254
830.246	17197
830.385	17109
830.524	17102
830.663	16995
830.802	16980
830.941	16824
831.08	16748
831.219	16854
831.357	16930
831.496	17037
831.635	16809
831.774	16702
831.913	16733
832.051	16546
832.19	16550
832.329	16607
832.467	16481
832.606	16405
832.744	16493
832.883	16512
833.022	16375
833.16	16493
833.299	16440
833.437	16440
833.576	16436
833.714	16466
833.852	16558
833.991	16500
834.129	16569
834.267	16489
834.406	16500
834.544	16550
834.682	16554
834.821	16466
834.959	16637
835.097	16474
835.235	16603
835.373	16542
835.511	16531
835.65	16481
835.788	16443
835.926	16276
836.064	16120
836.202	16253
836.34	16443
836.478	16474
836.615	16424
836.753	16322
836.891	16607
837.029	16516
837.167	16375
837.305	16318
837.443	16265
837.58	16303
837.718	16390
837.856	16276
837.993	16253
838.131	16249
838.269	16192
838.406	16226
838.544	16078
838.681	16025
838.819	15956
838.956	15861
839.094	15838
839.231	15812
839.369	15937
839.506	16185
839.643	16032
839.781	15789
839.918	15797
840.055	15778
840.193	15854
840.33	15732
840.467	15785
840.604	15827
840.742	16010
840.879	15724
841.016	15701
841.153	15690
841.29	15895
841.427	15819
841.564	15774
841.701	15800
841.838	15709
841.975	15625
842.112	15823
842.249	15682
842.385	15568
842.522	15751
842.659	15561
842.796	15488
842.933	15705
843.069	15511
843.206	15584
843.343	15599
843.479	15553
843.616	15534
843.752	15294
843.889	15351
844.025	15519
844.162	15340
844.298	15450
844.435	15469
844.571	15241
844.708	15405
844.844	15549
844.98	15443
845.117	15496
845.253	15370
845.389	15321
845.525	15332
845.661	15351
845.798	15104
845.934	15302
846.07	15169
846.206	15283
846.342	15389
846.478	15245
846.614	14982
846.75	14967
846.886	14842
847.022	15142
847.158	15051
847.294	14963
847.429	14948
847.565	14914
847.701	15199
847.837	14705
847.972	14571
848.108	14815
848.244	14773
848.379	14613
848.515	14629
848.65	14594
848.786	14476
848.921	14667
849.057	14629
849.192	14727
849.328	14564
849.463	14545
849.598	14492
849.734	14377
849.869	14396
850.004	14305
850.14	14370
850.275	14271
850.41	14263
850.545	14286
850.68	14244
850.815	14347
850.95	14309
851.085	14518
851.22	14366
851.355	14339
851.49	14301
851.625	14320
851.76	14309
851.895	14267
852.03	14130
852.165	14229
852.299	14339
852.434	14404
852.569	14393
852.703	14286
852.838	14336
852.973	14423
853.107	14522
853.242	14385
853.376	14202
853.511	14050
853.645	14191
853.78	14237
853.914	14271
854.048	14183
854.183	14168
854.317	14183
854.451	14336
854.585	14191
854.72	14077
854.854	14183
854.988	14119
855.122	14153
855.256	14069
855.39	14202
855.524	14214
855.658	14210
855.792	14210
855.926	14210
856.06	14294
856.194	14290
856.327	14191
856.461	14134
856.595	14100
856.729	14134
856.862	14233
856.996	14180
857.13	14142
857.263	14328
857.397	14214
857.53	14256
857.664	14218
857.797	14259
857.931	14298
858.064	14252
858.197	14278
858.331	14107
858.464	14206
858.597	13955
858.731	14145
858.864	14062
858.997	14180
859.13	14134
859.263	14237
859.396	14362
859.529	14126
859.662	14206
859.795	14149
859.928	14187
860.061	14248
860.194	14374
860.327	14206
860.46	14187
860.592	14275
860.725	14282
860.858	14290
860.99	14168
861.123	14103
861.256	14161
861.388	14206
861.521	14861
861.653	14020
861.786	14024
861.918	13970
862.05	14111
862.183	14153
862.315	14024
862.447	14164
862.58	14138
862.712	13917
862.844	14031
862.976	13993
863.108	13993
863.24	14393
863.372	13841
863.504	13909
863.636	13913
863.768	14039
863.9	14035
864.032	13875
864.164	13921
864.296	14027
864.428	14027
864.559	14065
864.691	14077
864.823	14008
864.954	14043
865.086	13959
865.217	13909
865.349	13898
865.48	13947
865.612	13993
865.743	14199
865.875	14024
866.006	13917
866.137	13978
866.269	13902
866.4	13909
866.531	13909
866.662	13887
866.793	13951
866.924	13928
867.055	13959
867.186	13936
867.317	13974
867.448	13845
867.579	13868
867.71	13871
867.841	13822
867.972	13997
868.103	13955
868.233	13898
868.364	13989
868.495	14008
868.625	14157
868.756	14191
868.886	14111
869.017	14263
869.147	14282
869.278	14320
869.408	14187
869.539	14221
869.669	14275
869.799	14278
869.929	14366
870.06	14374
870.19	14484
870.32	14564
870.45	14564
870.58	14598
870.71	14689
870.84	14625
870.97	14632
871.1	14606
871.23	14792
871.36	14880
871.489	14682
871.619	14800
871.749	14739
871.879	14823
872.008	14838
872.138	14849
872.267	14800
872.397	14590
872.526	14549
872.656	14552
872.785	14602
872.915	14792
873.044	14861
873.173	14887
873.303	14899
873.432	14876
873.561	14975
873.69	14891
873.819	14819
873.948	14925
874.077	14796
874.206	14887
874.335	14823
874.464	14982
874.593	15116
874.722	15123
874.851	15260
874.979	15116
875.108	15275
875.237	15233
875.365	15123
875.494	15074
875.623	15123
875.751	15146
875.88	15150
876.008	15294
876.136	15386
876.265	15622
876.393	15648
876.521	15625
876.65	15667
876.778	15511
876.906	15633
877.034	15553
877.162	15663
877.29	15473
877.418	15599
877.546	15641
877.674	15584
877.802	15580
877.93	15603
878.058	15542
878.185	15481
878.313	15542
878.441	15523
878.568	15386
878.696	15443
878.824	15614
878.951	15576
879.079	15709
879.206	15945
879.333	15778
879.461	15580
879.588	15637
879.715	15793
879.842	15838
879.97	15656
880.097	15462
880.224	15367
880.351	15370
880.478	15568
880.605	15416
880.732	15435
880.859	15610
880.986	15530
881.112	15557
881.239	15260
881.366	15317
881.493	15077
881.619	15085
881.746	15077
881.872	15039
881.999	14921
882.125	15055
882.252	14979
882.378	15100
882.505	15138
882.631	15024
882.757	14902
882.883	14933
883.01	14876
883.136	14834
883.262	14693
883.388	14697
883.514	14956
883.64	14998
883.766	14845
883.892	14705
884.018	14636
884.143	14819
884.269	14994
884.395	14648
884.52	14526
884.646	14579
884.772	14617
884.897	14518
885.023	14590
885.148	14724
885.274	14720
885.399	14788
885.524	14644
885.65	14579
885.775	14667
885.9	14648
886.025	14769
886.15	14682
886.275	14522
886.4	14499
886.525	14541
886.65	14507
886.775	14552
886.9	14815
887.025	14842
887.149	14632
887.274	14499
887.399	14370
887.523	14438
887.648	14343
887.773	14366
887.897	14461
888.021	14503
888.146	14457
888.27	14511
888.395	14568
888.519	14511
888.643	14450
888.767	14499
888.891	14461
889.015	14393
889.139	14305
889.263	14313
889.387	14347
889.511	14438
889.635	14400
889.759	14317
889.883	14275
890.006	14336
890.13	14415
890.254	14317
890.377	14240
890.501	14035
890.624	14001
890.748	14214
890.871	14020
890.995	14012
891.118	13887
891.241	13890
891.364	13982
891.488	14134
891.611	13986
891.734	14035
891.857	14027
891.98	13955
892.103	14130
892.226	13970
892.349	13978
892.471	13826
892.594	13993
892.717	13944
892.839	13993
892.962	13997
893.085	14134
893.207	13909
893.33	13845
893.452	13898
893.575	14134
893.697	13875
893.819	14298
893.941	14225
894.064	14134
894.186	13955
894.308	13997
894.43	14134
894.552	14210
894.674	14134
894.796	13947
894.918	14069
895.04	14043
895.161	14187
895.283	14134
895.405	14088
895.526	14164
895.648	14210
895.769	14100
895.891	14119
896.012	14176
896.134	14153
896.255	14149
896.376	14191
896.498	14183
896.619	14252
896.74	14221
896.861	14271
896.982	14568
897.103	14644
897.224	14461
897.345	14419
897.466	14347
897.587	14488
897.708	14674
897.828	14511
897.949	14412
898.07	14278
898.19	14457
898.311	14579
898.431	14412
898.552	14503
898.672	14644
898.792	14670
898.913	14594
899.033	14533
899.153	14366
899.273	14267
899.393	14370
899.513	14454
899.633	14396
899.753	14450
899.873	14400
899.993	14511
900.113	14366
900.232	14404
900.352	14393
900.472	14313
900.591	14214
900.711	14332
900.83	14077
900.95	14309
901.069	14450
901.189	14187
901.308	14016
901.427	13959
901.546	13902
901.665	13974
901.784	14005
901.904	13784
902.023	13879
902.141	13556
902.26	13476
902.379	13563
902.498	13521
902.617	13419
902.735	13548
902.854	13441
902.973	13514
903.091	13179
903.21	13251
903.328	13228
903.446	13187
903.565	13019
903.683	13251
903.801	13012
903.919	13057
904.038	13027
904.156	12981
904.274	12977
904.392	12920
904.51	12848
904.627	12909
904.745	13000
904.863	12966
904.981	12700
905.098	12585
905.216	12677
905.334	12601
905.451	12627
905.569	12547
905.686	12555
905.803	12620
905.921	12369
906.038	12483
906.155	12410
906.272	12388
906.389	12327
906.506	12110
906.623	12258
906.74	12186
906.857	12015
906.974	12045
907.091	12220
907.208	12330
907.324	12285
907.441	12098
907.557	11961
907.674	11878
907.79	11843
907.907	11897
908.023	11961
908.139	11916
908.256	11885
908.372	11866
908.488	11863
908.604	11733
908.72	11604
908.836	11718
908.952	11653
909.068	11718
909.184	11863
909.3	11619
909.415	11722
909.531	11729
909.647	11417
909.762	11482
909.878	11490
909.993	11425
910.108	11455
910.224	11463
910.339	11528
910.454	11421
910.57	11326
910.685	11220
910.8	11516
910.915	11474
911.03	11334
911.145	11254
911.259	11105
911.374	11147
911.489	11094
911.604	10995
911.718	10889
911.833	10953
911.947	10820
912.062	10755
912.176	10877
912.291	10896
912.405	10896
912.519	11056
912.633	11143
912.748	10984
912.862	10961
912.976	10816
913.09	10691
913.204	10698
913.318	10782
913.431	10877
913.545	10824
913.659	10915
913.772	10847
913.886	10679
914	10736
914.113	10710
914.226	10778
914.34	10729
914.453	10516
914.566	10774
914.68	10641
914.793	10649
914.906	10489
915.019	10466
915.132	10299
915.245	10394
915.358	10489
915.47	10447
915.583	10424
915.696	10493
915.809	10603
915.921	10512
916.034	10421
916.146	10333
916.259	10318
916.371	10523
916.483	10481
916.595	10356
916.708	10375
916.82	10337
916.932	10360
917.044	10257
917.156	10314
917.268	10242
917.38	10265
917.491	10128
917.603	10306
917.715	10325
917.826	10295
917.938	10253
918.049	10177
918.161	10238
918.272	10417
918.384	10371
918.495	10253
918.606	10090
918.717	10109
918.828	10196
918.939	10143
919.05	10097
919.161	10128
919.272	9907
919.383	9964
919.494	10128
919.604	10367
919.715	10147
919.826	10067
919.936	10067
920.047	10166
920.157	10105
920.267	10379
920.378	10192
920.488	10177
920.598	10367
920.708	10504
920.818	10287
920.928	10333
921.038	10512
921.148	10489
921.258	10143
921.368	10128
921.477	10044
921.587	10040
921.697	9911
921.806	9994
921.916	9972
922.025	9751
922.134	9698
922.244	9698
922.353	9781
922.462	9641
922.571	9549
922.68	9367
922.789	9450
922.898	9473
923.007	9325
923.116	9466
923.224	9424
923.333	9450
923.442	9359
923.55	9272
923.659	9389
923.767	9332
923.876	9329
923.984	9355
924.092	9245
924.201	9374
924.309	9325
924.417	9325
924.525	9241
924.633	9310
924.741	10230
924.849	9074
924.956	9241
925.064	9154
925.172	9028
925.279	9074
925.387	9157
925.494	9146
925.602	9241
925.709	9176
925.816	9032
925.924	9108
926.031	9207
926.138	9127
926.245	9154
926.352	9066
926.459	9184
926.566	9218
926.673	9119
926.779	8952
926.886	9013
926.993	8868
927.099	8743
927.206	8716
927.312	8743
927.419	8864
927.525	8819
927.631	8857
927.737	8750
927.843	8746
927.95	8655
928.056	8701
928.162	8754
928.267	8800
928.373	9351
928.479	8910
928.585	8617
928.69	8708
928.796	8743
928.901	8644
929.007	8503
929.112	8746
929.218	8594
929.323	8629
929.428	8511
929.533	8594
929.638	8499
929.743	8465
929.848	8583
929.953	8484
930.058	8396
930.163	8263
930.267	8301
930.372	8454
930.477	8263
930.581	8507
930.685	8374
930.79	8286
930.894	8259
930.998	8267
931.103	8328
931.207	8069
931.311	8012
931.415	7970
931.519	7784
931.623	7731
