Data from test_V78500241_3370.txt Node
Date: Fri Mar 25 14:57:10 CST 2022
User: usil
Spectrometer: V785-0024
Trigger mode: 0
Integration Time (sec): 4.000000E-1
Scans to average: 1
Nonlinearity correction enabled: false
Boxcar width: 0
Storing dark spectrum: false
XAxis mode: Wavelengths
Number of Pixels in Spectrum: 1024
>>>>>Begin Spectral Data<<<<<
801.071	22097
801.214	21804
801.356	21561
801.499	21515
801.641	21435
801.783	21237
801.926	21291
802.068	21283
802.211	21154
802.353	20998
802.496	20910
802.638	20906
802.78	20769
802.923	20667
803.065	20503
803.208	20587
803.35	20625
803.492	20823
803.635	20792
803.777	20693
803.919	20743
804.061	21009
804.204	20788
804.346	20530
804.488	20560
804.63	20499
804.773	20404
804.915	20495
805.057	20705
805.199	20511
805.341	20568
805.483	20670
805.626	20545
805.768	20492
805.91	20564
806.052	20434
806.194	20511
806.336	20632
806.478	20602
806.62	20583
806.762	20621
806.904	20724
807.046	20925
807.188	20861
807.33	20872
807.472	20944
807.614	20720
807.756	20754
807.898	20697
808.04	20583
808.182	20541
808.324	20613
808.465	20682
808.607	20918
808.749	20815
808.891	20952
809.033	21070
809.174	20902
809.316	20826
809.458	20880
809.6	20994
809.741	20921
809.883	20952
810.025	20933
810.166	20979
810.308	21123
810.45	21055
810.591	20857
810.733	20864
810.875	20674
811.016	20640
811.158	20587
811.299	20659
811.441	20724
811.582	20758
811.724	20579
811.865	20708
812.007	20541
812.148	20613
812.29	20625
812.431	20811
812.573	21005
812.714	21017
812.855	21161
812.997	21363
813.138	21374
813.279	21237
813.421	21154
813.562	21009
813.703	20899
813.845	20811
813.986	20587
814.127	20309
814.268	20282
814.41	20324
814.551	20210
814.692	20298
814.833	20206
814.974	20233
815.115	20073
815.256	20115
815.397	20096
815.539	20050
815.68	19826
815.821	19830
815.962	19970
816.103	19837
816.244	19917
816.385	19594
816.526	19525
816.666	19567
816.807	19377
816.948	19392
817.089	19464
817.23	19270
817.371	19396
817.512	19362
817.653	19331
817.793	19228
817.934	19343
818.075	19304
818.216	19384
818.356	19221
818.497	19206
818.638	18867
818.778	19080
818.919	18943
819.06	19046
819.2	19164
819.341	19122
819.481	19198
819.622	19362
819.762	19510
819.903	19377
820.043	19274
820.184	19282
820.324	19285
820.465	19259
820.605	19373
820.746	19190
820.886	19274
821.026	19236
821.167	19179
821.307	19369
821.447	19225
821.588	19148
821.728	18943
821.868	18840
822.008	18753
822.149	18715
822.289	18665
822.429	18521
822.569	18391
822.709	18330
822.849	18224
822.99	18308
823.13	18194
823.27	18148
823.41	18030
823.55	17908
823.69	17980
823.83	17992
823.97	17950
824.11	17752
824.25	17786
824.389	17783
824.529	17950
824.669	17942
824.809	17840
824.949	17931
825.089	17931
825.228	17691
825.368	17684
825.508	17577
825.648	17570
825.787	17615
825.927	17672
826.067	17558
826.206	17501
826.346	17665
826.485	17528
826.625	17554
826.765	17661
826.904	17589
827.044	17330
827.183	17178
827.323	17273
827.462	17337
827.601	17265
827.741	17193
827.88	17307
828.02	17143
828.159	17181
828.298	17265
828.437	17360
828.577	17178
828.716	17391
828.855	17181
828.994	17056
829.134	17018
829.273	17079
829.412	16946
829.551	16911
829.69	17037
829.829	17060
829.968	17048
830.107	17006
830.246	17022
830.385	16923
830.524	16949
830.663	16820
830.802	16702
830.941	16554
831.08	16618
831.219	16706
831.357	16694
831.496	16869
831.635	16641
831.774	16459
831.913	16542
832.051	16447
832.19	16474
832.329	16436
832.467	16299
832.606	16242
832.744	16329
832.883	16253
833.022	16360
833.16	16287
833.299	16428
833.437	16382
833.576	16497
833.714	16485
833.852	16337
833.991	16386
834.129	16481
834.267	16352
834.406	16413
834.544	16447
834.682	16493
834.821	16523
834.959	16421
835.097	16329
835.235	16424
835.373	16367
835.511	16440
835.65	16409
835.788	16284
835.926	16211
836.064	16086
836.202	16223
836.34	16268
836.478	16386
836.615	16322
836.753	16276
836.891	16360
837.029	16367
837.167	16204
837.305	16219
837.443	16223
837.58	16169
837.718	16173
837.856	16314
837.993	16169
838.131	16268
838.269	16162
838.406	16131
838.544	16002
838.681	15937
838.819	15911
838.956	15698
839.094	15724
839.231	15819
839.369	15869
839.506	16207
839.643	15972
839.781	15717
839.918	15739
840.055	15713
840.193	15728
840.33	15747
840.467	15770
840.604	15739
840.742	16017
840.879	15591
841.016	15591
841.153	15682
841.29	15926
841.427	15739
841.564	15850
841.701	15675
841.838	15686
841.975	15663
842.112	15652
842.249	15557
842.385	15603
842.522	15663
842.659	15477
842.796	15500
842.933	15519
843.069	15458
843.206	15450
843.343	15656
843.479	15549
843.616	15526
843.752	15351
843.889	15382
844.025	15416
844.162	15268
844.298	15355
844.435	15298
844.571	15214
844.708	15310
844.844	15431
844.98	15428
845.117	15424
845.253	15313
845.389	15180
845.525	15302
845.661	15211
845.798	15176
845.934	15146
846.07	15097
846.206	15275
846.342	15123
846.478	15150
846.614	14941
846.75	14929
846.886	14823
847.022	14990
847.158	14914
847.294	14887
847.429	14929
847.565	14804
847.701	15077
847.837	14632
847.972	14541
848.108	14701
848.244	14724
848.379	14503
848.515	14495
848.65	14419
848.786	14427
848.921	14583
849.057	14629
849.192	14640
849.328	14514
849.463	14499
849.598	14465
849.734	14419
849.869	14317
850.004	14320
850.14	14282
850.275	14313
850.41	14290
850.545	14183
850.68	14176
850.815	14206
850.95	14332
851.085	14374
851.22	14298
851.355	14301
851.49	14168
851.625	14187
851.76	14191
851.895	14130
852.03	14088
852.165	14256
852.299	14252
852.434	14301
852.569	14233
852.703	14328
852.838	14313
852.973	14366
853.107	14431
853.242	14225
853.376	14145
853.511	13978
853.645	14130
853.78	14298
853.914	14202
854.048	14092
854.183	14077
854.317	14123
854.451	14313
854.585	14073
854.72	14069
854.854	14187
854.988	14043
855.122	14084
855.256	13921
855.39	14027
855.524	14180
855.658	14233
855.792	14157
855.926	14065
856.06	14157
856.194	14240
856.327	14103
856.461	14145
856.595	14012
856.729	14142
856.862	14210
856.996	14138
857.13	14259
857.263	14195
857.397	14214
857.53	14069
857.664	14263
857.797	14244
857.931	14290
858.064	14157
858.197	14229
858.331	14187
858.464	14039
858.597	14065
858.731	14069
858.864	14126
858.997	14092
859.13	14149
859.263	14153
859.396	14191
859.529	14096
859.662	14123
859.795	14092
859.928	14161
860.061	14320
860.194	14290
860.327	14157
860.46	14206
860.592	14229
860.725	14244
860.858	14282
860.99	14142
861.123	14050
861.256	14100
861.388	14218
861.521	14971
861.653	14069
861.786	13940
861.918	14046
862.05	14050
862.183	14039
862.315	14271
862.447	14084
862.58	14149
862.712	13928
862.844	13833
862.976	13970
863.108	13989
863.24	14465
863.372	13993
863.504	13906
863.636	14027
863.768	13947
863.9	13936
864.032	13955
864.164	13890
864.296	13997
864.428	14088
864.559	13967
864.691	14107
864.823	13982
864.954	13967
865.086	13978
865.217	13932
865.349	13898
865.48	13917
865.612	14020
865.743	14092
865.875	14050
866.006	13894
866.137	14020
866.269	13940
866.4	13967
866.531	13928
866.662	13833
866.793	13852
866.924	13989
867.055	13959
867.186	13932
867.317	13879
867.448	13890
867.579	13894
867.71	13868
867.841	13894
867.972	13997
868.103	13898
868.233	13944
868.364	13982
868.495	13997
868.625	14149
868.756	14290
868.886	14096
869.017	14202
869.147	14278
869.278	14317
869.408	14183
869.539	14199
869.669	14202
869.799	14298
869.929	14324
870.06	14263
870.19	14480
870.32	14484
870.45	14549
870.58	14590
870.71	14621
870.84	14781
870.97	14503
871.1	14632
871.23	14807
871.36	14731
871.489	14689
871.619	14746
871.749	14705
871.879	14845
872.008	14937
872.138	14849
872.267	14743
872.397	14632
872.526	14606
872.656	14518
872.785	14670
872.915	14762
873.044	14880
873.173	14769
873.303	14868
873.432	14891
873.561	14842
873.69	14765
873.819	14807
873.948	14853
874.077	14899
874.206	14796
874.335	14880
874.464	15024
874.593	15199
874.722	15043
874.851	15142
874.979	15176
875.108	15230
875.237	15233
875.365	14975
875.494	15108
875.623	15237
875.751	15287
875.88	15241
876.008	15386
876.136	15313
876.265	15610
876.393	15698
876.521	15690
876.65	15720
876.778	15644
876.906	15538
877.034	15572
877.162	15576
877.29	15519
877.418	15530
877.546	15667
877.674	15549
877.802	15568
877.93	15511
878.058	15538
878.185	15473
878.313	15454
878.441	15557
878.568	15344
878.696	15545
878.824	15663
878.951	15610
879.079	15728
879.206	15854
879.333	15682
879.461	15625
879.588	15694
879.715	15724
879.842	15831
879.97	15637
880.097	15306
880.224	15386
880.351	15473
880.478	15447
880.605	15519
880.732	15416
880.859	15652
880.986	15386
881.112	15500
881.239	15321
881.366	15173
881.493	15104
881.619	15150
881.746	15104
881.872	15100
881.999	15058
882.125	14998
882.252	15116
882.378	15195
882.505	15222
882.631	15062
882.757	14925
882.883	14979
883.01	14899
883.136	14811
883.262	14754
883.388	14701
883.514	14826
883.64	14895
883.766	14830
883.892	14792
884.018	14781
884.143	14826
884.269	15032
884.395	14731
884.52	14625
884.646	14545
884.772	14560
884.897	14427
885.023	14648
885.148	14636
885.274	14769
885.399	14727
885.524	14644
885.65	14564
885.775	14629
885.9	14587
886.025	14735
886.15	14632
886.275	14590
886.4	14579
886.525	14583
886.65	14465
886.775	14514
886.9	14796
887.025	14823
887.149	14556
887.274	14423
887.399	14393
887.523	14465
887.648	14233
887.773	14229
887.897	14438
888.021	14526
888.146	14377
888.27	14511
888.395	14541
888.519	14492
888.643	14465
888.767	14518
888.891	14267
889.015	14343
889.139	14336
889.263	14286
889.387	14336
889.511	14503
889.635	14412
889.759	14294
889.883	14259
890.006	14385
890.13	14537
890.254	14187
890.377	14271
890.501	14073
890.624	14130
890.748	14244
890.871	14043
890.995	13986
891.118	13913
891.241	14088
891.364	14039
891.488	14130
891.611	13963
891.734	14039
891.857	14027
891.98	14027
892.103	14027
892.226	14065
892.349	14043
892.471	13837
892.594	13959
892.717	14126
892.839	14043
892.962	13978
893.085	14084
893.207	13967
893.33	13837
893.452	14103
893.575	14046
893.697	14005
893.819	14206
893.941	14271
894.064	14126
894.186	14046
894.308	13974
894.43	14123
894.552	14225
894.674	14142
894.796	14016
894.918	14062
895.04	14039
895.161	14229
895.283	14107
895.405	14050
895.526	14103
895.648	14100
895.769	14202
895.891	14138
896.012	14248
896.134	14206
896.255	14138
896.376	14073
896.498	14183
896.619	14229
896.74	14161
896.861	14244
896.982	14568
897.103	14708
897.224	14518
897.345	14484
897.466	14366
897.587	14469
897.708	14594
897.828	14541
897.949	14427
898.07	14298
898.19	14518
898.311	14636
898.431	14503
898.552	14648
898.672	14526
898.792	14575
898.913	14438
899.033	14442
899.153	14339
899.273	14282
899.393	14313
899.513	14495
899.633	14343
899.753	14377
899.873	14339
899.993	14431
900.113	14396
900.232	14358
900.352	14328
900.472	14244
900.591	14240
900.711	14336
900.83	14244
900.95	14324
901.069	14339
901.189	14180
901.308	13917
901.427	13875
901.546	13894
901.665	13879
901.784	13993
901.904	13894
902.023	13616
902.141	13552
902.26	13480
902.379	13628
902.498	13472
902.617	13411
902.735	13537
902.854	13544
902.973	13449
903.091	13171
903.21	13168
903.328	13247
903.446	13217
903.565	13034
903.683	13198
903.801	13008
903.919	13061
904.038	13023
904.156	12852
904.274	12958
904.392	12863
904.51	12856
904.627	12871
904.745	12939
904.863	12943
904.981	12665
905.098	12597
905.216	12544
905.334	12585
905.451	12536
905.569	12631
905.686	12582
905.803	12597
905.921	12384
906.038	12490
906.155	12460
906.272	12304
906.389	12395
906.506	12159
906.623	12087
906.74	12235
906.857	12148
906.974	12098
907.091	12125
907.208	12273
907.324	12224
907.441	12068
907.557	11999
907.674	11908
907.79	11779
907.907	11939
908.023	11939
908.139	11920
908.256	11855
908.372	11912
908.488	11843
908.604	11718
908.72	11646
908.836	11691
908.952	11718
909.068	11714
909.184	11729
909.3	11695
909.415	11821
909.531	11748
909.647	11459
909.762	11429
909.878	11543
909.993	11455
910.108	11482
910.224	11379
910.339	11444
910.454	11482
910.57	11254
910.685	11223
910.8	11554
910.915	11448
911.03	11391
911.145	11201
911.259	11189
911.374	11132
911.489	11109
911.604	11071
911.718	10953
911.833	10953
911.947	10824
912.062	10714
912.176	10812
912.291	10915
912.405	10934
912.519	11037
912.633	11117
912.748	10915
912.862	10904
912.976	10733
913.09	10717
913.204	10744
913.318	10771
913.431	10923
913.545	10908
913.659	10915
913.772	10767
913.886	10698
914	10683
914.113	10748
914.226	10744
914.34	10797
914.453	10637
914.566	10774
914.68	10683
914.793	10618
914.906	10474
915.019	10398
915.132	10329
915.245	10310
915.358	10432
915.47	10466
915.583	10519
915.696	10504
915.809	10508
915.921	10580
916.034	10341
916.146	10337
916.259	10363
916.371	10489
916.483	10436
916.595	10386
916.708	10344
916.82	10337
916.932	10322
917.044	10367
917.156	10284
917.268	10196
917.38	10196
917.491	10211
917.603	10230
917.715	10348
917.826	10280
917.938	10257
918.049	10185
918.161	10318
918.272	10352
918.384	10424
918.495	10287
918.606	10147
918.717	10013
918.828	10188
918.939	10120
919.05	9994
919.161	10124
919.272	9975
919.383	9968
919.494	10287
919.604	10375
919.715	10101
919.826	10055
919.936	10071
920.047	10265
920.157	10150
920.267	10318
920.378	10211
920.488	10135
920.598	10363
920.708	10443
920.818	10284
920.928	10303
921.038	10523
921.148	10485
921.258	10238
921.368	10101
921.477	10029
921.587	10032
921.697	9934
921.806	10071
921.916	9937
922.025	9724
922.134	9740
922.244	9698
922.353	9793
922.462	9606
922.571	9504
922.68	9469
922.789	9367
922.898	9393
923.007	9386
923.116	9420
923.224	9351
923.333	9401
923.442	9298
923.55	9245
923.659	9367
923.767	9401
923.876	9241
923.984	9294
924.092	9199
924.201	9165
924.309	9355
924.417	9192
924.525	9188
924.633	9226
924.741	10120
924.849	9081
924.956	9184
925.064	9077
925.172	8998
925.279	8986
925.387	9070
925.494	9043
925.602	9253
925.709	9192
925.816	9013
925.924	9047
926.031	9161
926.138	9058
926.245	9062
926.352	9020
926.459	9146
926.566	9081
926.673	9051
926.779	8880
926.886	8918
926.993	8830
927.099	8731
927.206	8697
927.312	8667
927.419	8769
927.525	8777
927.631	8876
927.737	8697
927.843	8758
927.95	8579
928.056	8644
928.162	8636
928.267	8720
928.373	9363
928.479	8769
928.585	8625
928.69	8644
928.796	8663
928.901	8606
929.007	8419
929.112	8610
929.218	8575
929.323	8545
929.428	8495
929.533	8659
929.638	8476
929.743	8473
929.848	8564
929.953	8594
930.058	8461
930.163	8248
930.267	8286
930.372	8389
930.477	8279
930.581	8514
930.685	8362
930.79	8240
930.894	8237
930.998	8225
931.103	8396
931.207	8058
931.311	8016
931.415	7967
931.519	7776
931.623	7799
