Data from test_V78500241_1386.txt Node
Date: Fri Mar 25 14:43:21 CST 2022
User: usil
Spectrometer: V785-0024
Trigger mode: 0
Integration Time (sec): 4.000000E-1
Scans to average: 1
Nonlinearity correction enabled: false
Boxcar width: 0
Storing dark spectrum: false
XAxis mode: Wavelengths
Number of Pixels in Spectrum: 1024
>>>>>Begin Spectral Data<<<<<
801.071	22409
801.214	22451
801.356	22078
801.499	21998
801.641	21804
801.783	21838
801.926	21819
802.068	21614
802.211	21667
802.353	21759
802.496	21382
802.638	21359
802.78	21321
802.923	21123
803.065	21142
803.208	21112
803.35	21093
803.492	21241
803.635	21279
803.777	21058
803.919	21256
804.061	21515
804.204	21195
804.346	21058
804.488	21028
804.63	21104
804.773	20998
804.915	21142
805.057	21112
805.199	21055
805.341	21055
805.483	21180
805.626	21116
805.768	20971
805.91	21039
806.052	21066
806.194	20960
806.336	21062
806.478	20994
806.62	21108
806.762	21188
806.904	21264
807.046	21481
807.188	21416
807.33	21458
807.472	21511
807.614	21439
807.756	21519
807.898	21260
808.04	21237
808.182	21207
808.324	21150
808.465	21416
808.607	21603
808.749	21564
808.891	21857
809.033	21953
809.174	21812
809.316	21523
809.458	21694
809.6	21553
809.741	21637
809.883	21637
810.025	21679
810.166	21618
810.308	21671
810.45	21652
810.591	21534
810.733	21488
810.875	21298
811.016	21165
811.158	21207
811.299	21218
811.441	21367
811.582	21332
811.724	21332
811.865	21192
812.007	21184
812.148	21317
812.29	21298
812.431	21401
812.573	21519
812.714	21557
812.855	21869
812.997	21869
813.138	21937
813.279	21975
813.421	21797
813.562	21587
813.703	21412
813.845	21374
813.986	21119
814.127	20785
814.268	20864
814.41	20887
814.551	20811
814.692	20785
814.833	20845
814.974	20724
815.115	20746
815.256	20644
815.397	20609
815.539	20617
815.68	20442
815.821	20480
815.962	20492
816.103	20556
816.244	20389
816.385	20180
816.526	20164
816.666	20054
816.807	19906
816.948	19917
817.089	20054
817.23	19963
817.371	19997
817.512	19947
817.653	19860
817.793	19852
817.934	20043
818.075	20008
818.216	19951
818.356	19902
818.497	19788
818.638	19571
818.778	19586
818.919	19597
819.06	19727
819.2	19791
819.341	19723
819.481	19780
819.622	19951
819.762	20172
819.903	20172
820.043	19955
820.184	19864
820.324	19864
820.465	20020
820.605	19936
820.746	19947
820.886	19658
821.026	19902
821.167	19982
821.307	19932
821.447	19860
821.588	19826
821.728	19624
821.868	19457
822.008	19343
822.149	19346
822.289	19202
822.429	19183
822.569	19061
822.709	19088
822.849	18829
822.99	18783
823.13	18840
823.27	18829
823.41	18608
823.55	18555
823.69	18627
823.83	18654
823.97	18528
824.11	18418
824.25	18372
824.389	18388
824.529	18464
824.669	18266
824.809	18498
824.949	18471
825.089	18414
825.228	18418
825.368	18338
825.508	18178
825.648	18247
825.787	18197
825.927	18114
826.067	18159
826.206	18129
826.346	18174
826.485	18262
826.625	18155
826.765	18205
826.904	18266
827.044	18053
827.183	17904
827.323	17676
827.462	17984
827.601	17836
827.741	17866
827.88	17901
828.02	17790
828.159	17729
828.298	17920
828.437	17969
828.577	17798
828.716	17920
828.855	17821
828.994	17695
829.134	17619
829.273	17634
829.412	17554
829.551	17486
829.69	17615
829.829	17604
829.968	17710
830.107	17585
830.246	17596
830.385	17532
830.524	17486
830.663	17372
830.802	17368
830.941	17303
831.08	17208
831.219	17326
831.357	17284
831.496	17383
831.635	17261
831.774	17140
831.913	17098
832.051	17029
832.19	16923
832.329	17098
832.467	17003
832.606	16889
832.744	16930
832.883	16908
833.022	16782
833.16	16927
833.299	17041
833.437	16866
833.576	17018
833.714	17041
833.852	16930
833.991	17060
834.129	16949
834.267	17121
834.406	16942
834.544	17102
834.682	16889
834.821	16965
834.959	17025
835.097	16930
835.235	17041
835.373	16976
835.511	16934
835.65	16873
835.788	16854
835.926	16767
836.064	16797
836.202	16733
836.34	16949
836.478	16873
836.615	16805
836.753	16889
836.891	16953
837.029	16896
837.167	16824
837.305	16824
837.443	16790
837.58	16664
837.718	16755
837.856	16740
837.993	16774
838.131	16759
838.269	16577
838.406	16687
838.544	16641
838.681	16375
838.819	16417
838.956	16382
839.094	16280
839.231	16303
839.369	16478
839.506	16733
839.643	16550
839.781	16287
839.918	16223
840.055	16363
840.193	16280
840.33	16310
840.467	16363
840.604	16303
840.742	16546
840.879	16131
841.016	16112
841.153	16154
841.29	16474
841.427	16246
841.564	16344
841.701	16272
841.838	16169
841.975	16181
842.112	16226
842.249	16112
842.385	16044
842.522	16242
842.659	16147
842.796	16059
842.933	16032
843.069	16010
843.206	16036
843.343	16074
843.479	15975
843.616	16143
843.752	15922
843.889	15888
844.025	15979
844.162	15892
844.298	15964
844.435	15816
844.571	15850
844.708	15956
844.844	16078
844.98	16017
845.117	16029
845.253	15892
845.389	15736
845.525	15789
845.661	15838
845.798	15854
845.934	16029
846.07	15972
846.206	16010
846.342	15991
846.478	15808
846.614	15526
846.75	15515
846.886	15469
847.022	15462
847.158	15397
847.294	15435
847.429	15408
847.565	15359
847.701	15641
847.837	15077
847.972	15116
848.108	15218
848.244	15138
848.379	15024
848.515	14986
848.65	14963
848.786	14910
848.921	15028
849.057	15017
849.192	15013
849.328	15085
849.463	14979
849.598	14937
849.734	14868
849.869	14857
850.004	14868
850.14	14830
850.275	14796
850.41	14659
850.545	14739
850.68	14712
850.815	14914
850.95	14750
851.085	14956
851.22	14861
851.355	14815
851.49	14727
851.625	14746
851.76	14693
851.895	14610
852.03	14610
852.165	14739
852.299	14765
852.434	14902
852.569	14819
852.703	14823
852.838	14880
852.973	14876
853.107	14880
853.242	14788
853.376	14705
853.511	14526
853.645	14613
853.78	14724
853.914	14743
854.048	14655
854.183	14667
854.317	14693
854.451	14838
854.585	14720
854.72	14667
854.854	14644
854.988	14590
855.122	14587
855.256	14568
855.39	14674
855.524	14670
855.658	14746
855.792	14667
855.926	14686
856.06	14762
856.194	14842
856.327	14705
856.461	14663
856.595	14606
856.729	14648
856.862	14754
856.996	14670
857.13	14769
857.263	14826
857.397	14800
857.53	14724
857.664	14712
857.797	14682
857.931	14773
858.064	14739
858.197	14815
858.331	14705
858.464	14648
858.597	14655
858.731	14651
858.864	14640
858.997	14640
859.13	14590
859.263	14701
859.396	14746
859.529	14678
859.662	14583
859.795	14678
859.928	14686
860.061	14887
860.194	14857
860.327	14689
860.46	14674
860.592	14693
860.725	14750
860.858	14838
860.99	14667
861.123	14632
861.256	14560
861.388	14788
861.521	15485
861.653	14526
861.786	14415
861.918	14545
862.05	14632
862.183	14663
862.315	14655
862.447	14655
862.58	14518
862.712	14419
862.844	14370
862.976	14564
863.108	14488
863.24	14826
863.372	14290
863.504	14473
863.636	14450
863.768	14568
863.9	14564
864.032	14393
864.164	14408
864.296	14541
864.428	14556
864.559	14507
864.691	14526
864.823	14461
864.954	14476
865.086	14434
865.217	14469
865.349	14419
865.48	14336
865.612	14442
865.743	14625
865.875	14480
866.006	14385
866.137	14450
866.269	14476
866.4	14484
866.531	14313
866.662	14427
866.793	14427
866.924	14381
867.055	14396
867.186	14351
867.317	14396
867.448	14366
867.579	14362
867.71	14252
867.841	14290
867.972	14370
868.103	14396
868.233	14366
868.364	14396
868.495	14552
868.625	14587
868.756	14727
868.886	14602
869.017	14644
869.147	14823
869.278	14708
869.408	14651
869.539	14705
869.669	14632
869.799	14735
869.929	14788
870.06	14804
870.19	14994
870.32	15009
870.45	14971
870.58	15097
870.71	15127
870.84	15146
870.97	15116
871.1	15009
871.23	15207
871.36	15268
871.489	15241
871.619	15211
871.749	15218
871.879	15272
872.008	15344
872.138	15195
872.267	15233
872.397	15150
872.526	15104
872.656	15005
872.785	15154
872.915	15268
873.044	15272
873.173	15279
873.303	15424
873.432	15359
873.561	15310
873.69	15291
873.819	15302
873.948	15439
874.077	15344
874.206	15306
874.335	15294
874.464	15424
874.593	15584
874.722	15557
874.851	15625
874.979	15568
875.108	15656
875.237	15580
875.365	15526
875.494	15618
875.623	15728
875.751	15610
875.88	15686
876.008	15766
876.136	15865
876.265	15941
876.393	16143
876.521	16059
876.65	16124
876.778	16074
876.906	15922
877.034	15968
877.162	15926
877.29	15926
877.418	16063
877.546	16051
877.674	16017
877.802	15934
877.93	16040
878.058	16010
878.185	16032
878.313	16017
878.441	15960
878.568	15960
878.696	15892
878.824	16074
878.951	16200
879.079	16291
879.206	16398
879.333	16215
879.461	16109
879.588	16242
879.715	16394
879.842	16474
879.97	16150
880.097	15945
880.224	15987
880.351	15979
880.478	16006
880.605	15937
880.732	15846
880.859	16192
880.986	15956
881.112	15865
881.239	15751
881.366	15698
881.493	15549
881.619	15572
881.746	15572
881.872	15580
881.999	15625
882.125	15549
882.252	15580
882.378	15542
882.505	15637
882.631	15576
882.757	15443
882.883	15500
883.01	15412
883.136	15348
883.262	15264
883.388	15233
883.514	15408
883.64	15450
883.766	15283
883.892	15169
884.018	15222
884.143	15287
884.269	15492
884.395	15203
884.52	15043
884.646	15157
884.772	14899
884.897	14952
885.023	15203
885.148	15214
885.274	15146
885.399	15245
885.524	14990
885.65	15081
885.775	15070
885.9	15097
886.025	15211
886.15	15211
886.275	15074
886.4	14918
886.525	15097
886.65	15085
886.775	15100
886.9	15157
887.025	15230
887.149	15123
887.274	14785
887.399	14941
887.523	14910
887.648	14807
887.773	14735
887.897	14975
888.021	15009
888.146	14815
888.27	14998
888.395	14986
888.519	14948
888.643	15001
888.767	14998
888.891	14861
889.015	14716
889.139	14785
889.263	14678
889.387	14807
889.511	14944
889.635	14826
889.759	14716
889.883	14720
890.006	14743
890.13	14834
890.254	14701
890.377	14602
890.501	14530
890.624	14629
890.748	14587
890.871	14495
890.995	14454
891.118	14355
891.241	14457
891.364	14423
891.488	14617
891.611	14351
891.734	14404
891.857	14549
891.98	14457
892.103	14545
892.226	14454
892.349	14408
892.471	14259
892.594	14438
892.717	14423
892.839	14389
892.962	14370
893.085	14408
893.207	14476
893.33	14309
893.452	14252
893.575	14431
893.697	14377
893.819	14575
893.941	14674
894.064	14518
894.186	14408
894.308	14351
894.43	14484
894.552	14667
894.674	14541
894.796	14431
894.918	14423
895.04	14438
895.161	14488
895.283	14423
895.405	14347
895.526	14461
895.648	14495
895.769	14545
895.891	14606
896.012	14560
896.134	14667
896.255	14682
896.376	14522
896.498	14640
896.619	14590
896.74	14617
896.861	14648
896.982	14982
897.103	14990
897.224	14895
897.345	14716
897.466	14842
897.587	14804
897.708	14994
897.828	14910
897.949	14781
898.07	14651
898.19	14804
898.311	15009
898.431	14838
898.552	14899
898.672	15058
898.792	15058
898.913	14876
899.033	14853
899.153	14663
899.273	14667
899.393	14777
899.513	14762
899.633	14796
899.753	14845
899.873	14720
899.993	14853
900.113	14842
900.232	14765
900.352	14724
900.472	14625
900.591	14579
900.711	14598
900.83	14632
900.95	14735
901.069	14746
901.189	14674
901.308	14415
901.427	14248
901.546	14305
901.665	14381
901.784	14298
901.904	14199
902.023	14172
902.141	13879
902.26	13799
902.379	13982
902.498	13890
902.617	13887
902.735	13909
902.854	13894
902.973	13871
903.091	13620
903.21	13666
903.328	13540
903.446	13464
903.565	13464
903.683	13476
903.801	13331
903.919	13316
904.038	13480
904.156	13266
904.274	13266
904.392	13278
904.51	13164
904.627	13202
904.745	13289
904.863	13301
904.981	13084
905.098	12837
905.216	12844
905.334	13004
905.451	13046
905.569	12935
905.686	12993
905.803	12973
905.921	12798
906.038	12859
906.155	12844
906.272	12642
906.389	12623
906.506	12528
906.623	12513
906.74	12559
906.857	12388
906.974	12380
907.091	12582
907.208	12631
907.324	12525
907.441	12464
907.557	12361
907.674	12254
907.79	12194
907.907	12110
908.023	12342
908.139	12327
908.256	12220
908.372	12243
908.488	12205
908.604	11988
908.72	12057
908.836	11999
908.952	11916
909.068	11977
909.184	12159
909.3	11969
909.415	12041
909.531	12121
909.647	11904
909.762	11828
909.878	11767
909.993	11851
910.108	11786
910.224	11737
910.339	11794
910.454	11630
910.57	11585
910.685	11581
910.8	11813
910.915	11832
911.03	11642
911.145	11478
911.259	11364
911.374	11467
911.489	11402
911.604	11349
911.718	11208
911.833	11288
911.947	11132
912.062	10987
912.176	11231
912.291	11216
912.405	11208
912.519	11444
912.633	11414
912.748	11341
912.862	11311
912.976	11174
913.09	10999
913.204	10995
913.318	11166
913.431	11201
913.545	11140
913.659	11170
913.772	11162
913.886	11067
914	10942
914.113	11094
914.226	11121
914.34	11075
914.453	10919
914.566	11018
914.68	10911
914.793	10908
914.906	10736
915.019	10748
915.132	10634
915.245	10725
915.358	10694
915.47	10706
915.583	10733
915.696	10729
915.809	10858
915.921	10896
916.034	10778
916.146	10706
916.259	10577
916.371	10809
916.483	10660
916.595	10626
916.708	10664
916.82	10672
916.932	10584
917.044	10733
917.156	10592
917.268	10417
917.38	10535
917.491	10504
917.603	10523
917.715	10596
917.826	10675
917.938	10554
918.049	10519
918.161	10561
918.272	10649
918.384	10656
918.495	10599
918.606	10478
918.717	10367
918.828	10379
918.939	10470
919.05	10344
919.161	10344
919.272	10215
919.383	10265
919.494	10489
919.604	10622
919.715	10497
919.826	10348
919.936	10459
920.047	10561
920.157	10481
920.267	10603
920.378	10459
920.488	10478
920.598	10618
920.708	10824
920.818	10717
920.928	10694
921.038	10778
921.148	10645
921.258	10481
921.368	10447
921.477	10341
921.587	10188
921.697	10185
921.806	10363
921.916	10192
922.025	10051
922.134	9949
922.244	9857
922.353	10074
922.462	9964
922.571	9797
922.68	9671
922.789	9572
922.898	9705
923.007	9644
923.116	9770
923.224	9679
923.333	9667
923.442	9572
923.55	9488
923.659	9584
923.767	9603
923.876	9424
923.984	9633
924.092	9492
924.201	9496
924.309	9553
924.417	9557
924.525	9420
924.633	9530
924.741	10409
924.849	9298
924.956	9462
925.064	9287
925.172	9313
925.279	9298
925.387	9336
925.494	9393
925.602	9416
925.709	9428
925.816	9317
925.924	9340
926.031	9393
926.138	9374
926.245	9344
926.352	9249
926.459	9397
926.566	9401
926.673	9287
926.779	9116
926.886	9161
926.993	9028
927.099	8982
927.206	9024
927.312	8963
927.419	9085
927.525	9009
927.631	9123
927.737	8967
927.843	8948
927.95	8861
928.056	8937
928.162	8933
928.267	9005
928.373	9675
928.479	9051
928.585	8693
928.69	8937
928.796	8975
928.901	8819
929.007	8735
929.112	8830
929.218	8823
929.323	8807
929.428	8773
929.533	8906
929.638	8739
929.743	8667
929.848	8796
929.953	8739
930.058	8613
930.163	8438
930.267	8419
930.372	8651
930.477	8495
930.581	8705
930.685	8629
930.79	8377
930.894	8438
930.998	8427
931.103	8568
931.207	8259
931.311	8187
931.415	8050
931.519	7917
931.623	7989
