Data from test_V78500241_469.txt Node
Date: Fri Mar 25 14:36:59 CST 2022
User: usil
Spectrometer: V785-0024
Trigger mode: 0
Integration Time (sec): 4.000000E-1
Scans to average: 1
Nonlinearity correction enabled: false
Boxcar width: 0
Storing dark spectrum: false
XAxis mode: Wavelengths
Number of Pixels in Spectrum: 1024
>>>>>Begin Spectral Data<<<<<
801.071	26590
801.214	26404
801.356	26142
801.499	26157
801.641	26119
801.783	25856
801.926	25852
802.068	25860
802.211	25864
802.353	25734
802.496	25658
802.638	25597
802.78	25499
802.923	25483
803.065	25472
803.208	25301
803.35	25495
803.492	25495
803.635	25597
803.777	25563
803.919	25476
804.061	25776
804.204	25685
804.346	25358
804.488	25316
804.63	25388
804.773	25247
804.915	25403
805.057	25616
805.199	25426
805.341	25514
805.483	25556
805.626	25639
805.768	25449
805.91	25392
806.052	25529
806.194	25282
806.336	25506
806.478	25521
806.62	25502
806.762	25495
806.904	25689
807.046	26027
807.188	25776
807.33	25742
807.472	25986
807.614	25795
807.756	25616
807.898	25712
808.04	25521
808.182	25613
808.324	25502
808.465	25666
808.607	25727
808.749	25921
808.891	25970
809.033	26122
809.174	26111
809.316	25913
809.458	25959
809.6	25963
809.741	26035
809.883	26005
810.025	26149
810.166	26267
810.308	26202
810.45	26050
810.591	25966
810.733	25818
810.875	25811
811.016	25818
811.158	25685
811.299	25883
811.441	25852
811.582	25898
811.724	25807
811.865	25742
812.007	25837
812.148	25807
812.29	25837
812.431	25913
812.573	26145
812.714	26176
812.855	26275
812.997	26339
813.138	26541
813.279	26412
813.421	26252
813.562	26145
813.703	26149
813.845	25989
813.986	25807
814.127	25438
814.268	25388
814.41	25251
814.551	25293
814.692	25400
814.833	25206
814.974	25266
815.115	25274
815.256	25152
815.397	25206
815.539	25103
815.68	24962
815.821	25160
815.962	25103
816.103	25088
816.244	24958
816.385	24863
816.526	24806
816.666	24604
816.807	24483
816.948	24547
817.089	24616
817.23	24540
817.371	24525
817.512	24407
817.653	24353
817.793	24407
817.934	24547
818.075	24486
818.216	24327
818.356	24205
818.497	24289
818.638	24114
818.778	24102
818.919	24117
819.06	24239
819.2	24319
819.341	24388
819.481	24315
819.622	24464
819.762	24684
819.903	24715
820.043	24418
820.184	24555
820.324	24376
820.465	24589
820.605	24475
820.746	24391
820.886	24338
821.026	24384
821.167	24330
821.307	24471
821.447	24285
821.588	24102
821.728	24076
821.868	23988
822.008	23752
822.149	23885
822.289	23722
822.429	23581
822.569	23482
822.709	23421
822.849	23288
822.99	23330
823.13	23277
823.27	23265
823.41	23090
823.55	22904
823.69	22991
823.83	22999
823.97	22942
824.11	22892
824.25	22862
824.389	22843
824.529	22843
824.669	22771
824.809	22987
824.949	22908
825.089	22778
825.228	22771
825.368	22630
825.508	22607
825.648	22679
825.787	22729
825.927	22725
826.067	22565
826.206	22512
826.346	22626
826.485	22683
826.625	22626
826.765	22733
826.904	22710
827.044	22466
827.183	22363
827.323	22249
827.462	22363
827.601	22386
827.741	22135
827.88	22325
828.02	22215
828.159	22143
828.298	22230
828.437	22284
828.577	22086
828.716	22462
828.855	22177
828.994	22105
829.134	21941
829.273	22040
829.412	22131
829.551	21911
829.69	21983
829.829	22002
829.968	21979
830.107	22040
830.246	22013
830.385	21934
830.524	21918
830.663	21736
830.802	21781
830.941	21595
831.08	21507
831.219	21553
831.357	21545
831.496	21770
831.635	21507
831.774	21450
831.913	21389
832.051	21389
832.19	21283
832.329	21389
832.467	21321
832.606	21154
832.744	21138
832.883	21176
833.022	21135
833.16	21173
833.299	21192
833.437	21150
833.576	21195
833.714	21233
833.852	21306
833.991	21226
834.129	21310
834.267	21237
834.406	21230
834.544	21180
834.682	21222
834.821	21116
834.959	21325
835.097	21199
835.235	21237
835.373	21291
835.511	21199
835.65	21058
835.788	21017
835.926	20929
836.064	20868
836.202	20800
836.34	21108
836.478	21214
836.615	21036
836.753	21058
836.891	21165
837.029	21119
837.167	21047
837.305	20933
837.443	20963
837.58	21001
837.718	20982
837.856	20944
837.993	20929
838.131	20925
838.269	20727
838.406	20872
838.544	20796
838.681	20678
838.819	20492
838.956	20389
839.094	20286
839.231	20469
839.369	20492
839.506	20667
839.643	20705
839.781	20221
839.918	20263
840.055	20343
840.193	20393
840.33	20290
840.467	20393
840.604	20294
840.742	20560
840.879	20119
841.016	20244
841.153	20172
841.29	20324
841.427	20111
841.564	20305
841.701	20187
841.838	20275
841.975	20195
842.112	20180
842.249	20005
842.385	19993
842.522	20161
842.659	20084
842.796	20016
842.933	20039
843.069	19890
843.206	19814
843.343	19978
843.479	20008
843.616	20062
843.752	19841
843.889	19769
844.025	19989
844.162	19677
844.298	19890
844.435	19788
844.571	19677
844.708	19883
844.844	19902
844.98	19868
845.117	19719
845.253	19643
845.389	19674
845.525	19609
845.661	19616
845.798	19563
845.934	19495
846.07	19578
846.206	19620
846.342	19635
846.478	19666
846.614	19365
846.75	19221
846.886	19251
847.022	19274
847.158	19339
847.294	19228
847.429	19244
847.565	19194
847.701	19396
847.837	18932
847.972	18894
848.108	19118
848.244	19076
848.379	18863
848.515	18837
848.65	18741
848.786	18859
848.921	18817
849.057	18966
849.192	18844
849.328	18772
849.463	18848
849.598	18772
849.734	18661
849.869	18741
850.004	18517
850.14	18555
850.275	18566
850.41	18502
850.545	18502
850.68	18536
850.815	18559
850.95	18513
851.085	18669
851.22	18627
851.355	18517
851.49	18452
851.625	18494
851.76	18433
851.895	18414
852.03	18460
852.165	18426
852.299	18460
852.434	18650
852.569	18486
852.703	18494
852.838	18502
852.973	18661
853.107	18604
853.242	18418
853.376	18506
853.511	18319
853.645	18209
853.78	18479
853.914	18426
854.048	18296
854.183	18311
854.317	18327
854.451	18570
854.585	18338
854.72	18346
854.854	18536
854.988	18182
855.122	18346
855.256	18300
855.39	18296
855.524	18395
855.658	18376
855.792	18384
855.926	18384
856.06	18395
856.194	18369
856.327	18304
856.461	18258
856.595	18323
856.729	18289
856.862	18319
856.996	18338
857.13	18327
857.263	18304
857.397	18547
857.53	18262
857.664	18376
857.797	18357
857.931	18422
858.064	18281
858.197	18471
858.331	18353
858.464	18289
858.597	18186
858.731	18178
858.864	18220
858.997	18289
859.13	18228
859.263	18216
859.396	18296
859.529	18353
859.662	18174
859.795	18148
859.928	18369
860.061	18376
860.194	18376
860.327	18327
860.46	18289
860.592	18353
860.725	18338
860.858	18395
860.99	18338
861.123	18213
861.256	18266
861.388	18289
861.521	18943
861.653	18232
861.786	18072
861.918	18197
862.05	18194
862.183	18190
862.315	18319
862.447	18506
862.58	18163
862.712	17999
862.844	17942
862.976	18060
863.108	18057
863.24	18334
863.372	17824
863.504	18041
863.636	18015
863.768	18083
863.9	17992
864.032	17828
864.164	17904
864.296	18041
864.428	18053
864.559	18038
864.691	17988
864.823	18022
864.954	17958
865.086	17969
865.217	17923
865.349	17874
865.48	17836
865.612	17939
865.743	17988
865.875	17988
866.006	17965
866.137	17843
866.269	17859
866.4	18038
866.531	17878
866.662	17783
866.793	17882
866.924	17931
867.055	17840
867.186	17851
867.317	17817
867.448	17786
867.579	17794
867.71	17840
867.841	17790
867.972	17851
868.103	17870
868.233	17988
868.364	17958
868.495	17950
868.625	18125
868.756	18167
868.886	18026
869.017	18060
869.147	18220
869.278	18243
869.408	18102
869.539	18064
869.669	18186
869.799	18174
869.929	18258
870.06	18159
870.19	18372
870.32	18414
870.45	18376
870.58	18456
870.71	18578
870.84	18612
870.97	18422
871.1	18566
871.23	18631
871.36	18623
871.489	18684
871.619	18772
871.749	18627
871.879	18787
872.008	18810
872.138	18669
872.267	18715
872.397	18597
872.526	18540
872.656	18540
872.785	18506
872.915	18681
873.044	18734
873.173	18798
873.303	18871
873.432	18745
873.561	18821
873.69	18795
873.819	18631
873.948	18798
874.077	18757
874.206	18623
874.335	18772
874.464	18726
874.593	18901
874.722	18875
874.851	19110
874.979	18993
875.108	19091
875.237	19000
875.365	18951
875.494	19103
875.623	19152
875.751	18913
875.88	19084
876.008	19076
876.136	19187
876.265	19468
876.393	19533
876.521	19518
876.65	19578
876.778	19430
876.906	19388
877.034	19308
877.162	19400
877.29	19274
877.418	19354
877.546	19343
877.674	19426
877.802	19282
877.93	19362
878.058	19403
878.185	19202
878.313	19457
878.441	19324
878.568	19282
878.696	19312
878.824	19403
878.951	19495
879.079	19514
879.206	19750
879.333	19590
879.461	19518
879.588	19647
879.715	19639
879.842	19666
879.97	19518
880.097	19274
880.224	19187
880.351	19301
880.478	19255
880.605	19217
880.732	19244
880.859	19476
880.986	19289
881.112	19331
881.239	19072
881.366	19076
881.493	18798
881.619	18825
881.746	18916
881.872	18825
881.999	18859
882.125	18829
882.252	18932
882.378	18848
882.505	19069
882.631	18779
882.757	18719
882.883	18703
883.01	18578
883.136	18585
883.262	18407
883.388	18555
883.514	18642
883.64	18608
883.766	18635
883.892	18372
884.018	18509
884.143	18650
884.269	18715
884.395	18445
884.52	18369
884.646	18346
884.772	18224
884.897	18266
885.023	18311
885.148	18426
885.274	18498
885.399	18395
885.524	18235
885.65	18262
885.775	18254
885.9	18334
886.025	18407
886.15	18319
886.275	18289
886.4	18110
886.525	18182
886.65	18213
886.775	18125
886.9	18308
887.025	18467
887.149	18285
887.274	18041
887.399	18060
887.523	17954
887.648	17950
887.773	17999
887.897	18083
888.021	18114
888.146	17920
888.27	18106
888.395	18171
888.519	18095
888.643	18034
888.767	18076
888.891	17980
889.015	17828
889.139	17961
889.263	17809
889.387	17992
889.511	18064
889.635	18167
889.759	17889
889.883	17779
890.006	17882
890.13	18022
890.254	17783
890.377	17817
890.501	17710
890.624	17665
890.748	17661
890.871	17547
890.995	17539
891.118	17414
891.241	17478
891.364	17497
891.488	17623
891.611	17524
891.734	17433
891.857	17596
891.98	17471
892.103	17589
892.226	17516
892.349	17440
892.471	17299
892.594	17547
892.717	17520
892.839	17433
892.962	17379
893.085	17417
893.207	17463
893.33	17235
893.452	17444
893.575	17493
893.697	17440
893.819	17585
893.941	17638
894.064	17630
894.186	17364
894.308	17372
894.43	17596
894.552	17611
894.674	17474
894.796	17288
894.918	17398
895.04	17273
895.161	17577
895.283	17535
895.405	17493
895.526	17482
895.648	17452
895.769	17490
895.891	17547
896.012	17551
896.134	17482
896.255	17592
896.376	17558
896.498	17516
896.619	17710
896.74	17596
896.861	17592
896.982	17821
897.103	18026
897.224	17741
897.345	17805
897.466	17672
897.587	17790
897.708	17859
897.828	17764
897.949	17691
898.07	17638
898.19	17745
898.311	17832
898.431	17794
898.552	17783
898.672	17916
898.792	17927
898.913	17726
899.033	17608
899.153	17585
899.273	17532
899.393	17463
899.513	17532
899.633	17532
899.753	17505
899.873	17539
899.993	17608
900.113	17490
900.232	17486
900.352	17448
900.472	17425
900.591	17307
900.711	17448
900.83	17303
900.95	17395
901.069	17585
901.189	17246
901.308	17060
901.427	16976
901.546	16976
901.665	16934
901.784	17033
901.904	16782
902.023	16664
902.141	16573
902.26	16538
902.379	16584
902.498	16607
902.617	16394
902.735	16569
902.854	16478
902.973	16500
903.091	16147
903.21	16215
903.328	16188
903.446	16147
903.565	16097
903.683	16082
903.801	15903
903.919	15873
904.038	15964
904.156	15823
904.274	15884
904.392	15762
904.51	15778
904.627	15785
904.745	15842
904.863	15774
904.981	15625
905.098	15530
905.216	15469
905.334	15485
905.451	15405
905.569	15412
905.686	15587
905.803	15462
905.921	15325
906.038	15340
906.155	15272
906.272	15195
906.389	15116
906.506	15039
906.623	15085
906.74	15039
906.857	14929
906.974	14975
907.091	15195
907.208	15176
907.324	15085
907.441	14883
907.557	14811
907.674	14746
907.79	14655
907.907	14842
908.023	14636
908.139	14777
908.256	14743
908.372	14678
908.488	14667
908.604	14560
908.72	14434
908.836	14473
908.952	14450
909.068	14351
909.184	14511
909.3	14476
909.415	14457
909.531	14495
909.647	14237
909.762	14259
909.878	14218
909.993	14195
910.108	14195
910.224	14229
910.339	14176
910.454	14069
910.57	14024
910.685	13989
910.8	14248
910.915	14172
911.03	14100
911.145	13871
911.259	13822
911.374	13883
911.489	13772
911.604	13674
911.718	13559
911.833	13571
911.947	13476
912.062	13476
912.176	13586
912.291	13529
912.405	13525
912.519	13772
912.633	13753
912.748	13632
912.862	13525
912.976	13422
913.09	13373
913.204	13400
913.318	13430
913.431	13472
913.545	13502
913.659	13563
913.772	13422
913.886	13301
914	13206
914.113	13388
914.226	13358
914.34	13415
914.453	13175
914.566	13308
914.68	13187
914.793	13156
914.906	12947
915.019	12966
915.132	12916
915.245	12966
915.358	12958
915.47	12943
915.583	12913
915.696	12981
915.809	13126
915.921	13084
916.034	12962
916.146	12863
916.259	12814
916.371	12916
916.483	12954
916.595	12821
916.708	12821
916.82	12867
916.932	12802
917.044	12764
917.156	12753
917.268	12673
917.38	12745
917.491	12730
917.603	12677
917.715	12791
917.826	12749
917.938	12578
918.049	12464
918.161	12650
918.272	12722
918.384	12681
918.495	12707
918.606	12513
918.717	12433
918.828	12460
918.939	12536
919.05	12380
919.161	12483
919.272	12247
919.383	12361
919.494	12528
919.604	12650
919.715	12490
919.826	12410
919.936	12483
920.047	12490
920.157	12407
920.267	12688
920.378	12551
920.488	12414
920.598	12597
920.708	12852
920.818	12669
920.928	12620
921.038	12696
921.148	12726
921.258	12452
921.368	12353
921.477	12201
921.587	12232
921.697	12106
921.806	12258
921.916	12041
922.025	12038
922.134	12019
922.244	11855
922.353	11958
922.462	11824
922.571	11737
922.68	11581
922.789	11490
922.898	11512
923.007	11436
923.116	11577
923.224	11570
923.333	11528
923.442	11406
923.55	11452
923.659	11455
923.767	11505
923.876	11261
923.984	11410
924.092	11280
924.201	11452
924.309	11307
924.417	11299
924.525	11311
924.633	11261
924.741	12213
924.849	11064
924.956	11318
925.064	11105
925.172	10987
925.279	11067
925.387	11075
925.494	11174
925.602	11231
925.709	11132
925.816	10984
925.924	11083
926.031	11098
926.138	11090
926.245	11094
926.352	10923
926.459	11113
926.566	11159
926.673	10980
926.779	10850
926.886	10885
926.993	10778
927.099	10729
927.206	10694
927.312	10672
927.419	10744
927.525	10649
927.631	10786
927.737	10656
927.843	10618
927.95	10466
928.056	10641
928.162	10656
928.267	10626
928.373	11250
928.479	10744
928.585	10519
928.69	10565
928.796	10588
928.901	10531
929.007	10348
929.112	10428
929.218	10417
929.323	10382
929.428	10352
929.533	10481
929.638	10265
929.743	10246
929.848	10284
929.953	10291
930.058	10135
930.163	10078
930.267	10101
930.372	10192
930.477	10029
930.581	10295
930.685	10162
930.79	10010
930.894	10097
930.998	9953
931.103	10078
931.207	9759
931.311	9663
931.415	9610
931.519	9469
931.623	9412
