Data from test_V78500241_556.txt Node
Date: Fri Mar 25 14:37:35 CST 2022
User: usil
Spectrometer: V785-0024
Trigger mode: 0
Integration Time (sec): 4.000000E-1
Scans to average: 1
Nonlinearity correction enabled: false
Boxcar width: 0
Storing dark spectrum: false
XAxis mode: Wavelengths
Number of Pixels in Spectrum: 1024
>>>>>Begin Spectral Data<<<<<
801.071	27800
801.214	27713
801.356	27245
801.499	27142
801.641	27039
801.783	27123
801.926	27081
802.068	26762
802.211	26971
802.353	26785
802.496	26644
802.638	26587
802.78	26629
802.923	26499
803.065	26396
803.208	26465
803.35	26427
803.492	26579
803.635	26682
803.777	26632
803.919	26731
804.061	27001
804.204	26746
804.346	26636
804.488	26518
804.63	26640
804.773	26583
804.915	26777
805.057	26864
805.199	26750
805.341	26849
805.483	26868
805.626	26906
805.768	26750
805.91	26864
806.052	26998
806.194	26940
806.336	27348
806.478	27176
806.62	27241
806.762	27644
806.904	27739
807.046	28242
807.188	28154
807.33	28386
807.472	28713
807.614	29083
807.756	29448
807.898	29920
808.04	30627
808.182	31506
808.324	32731
808.465	34131
808.607	35828
808.749	37350
808.891	37772
809.033	38005
809.174	36977
809.316	35733
809.458	33930
809.6	32537
809.741	31346
809.883	30384
810.025	29870
810.166	29406
810.308	28790
810.45	28641
810.591	28405
810.733	27880
810.875	27743
811.016	27625
811.158	27412
811.299	27583
811.441	27622
811.582	27622
811.724	27443
811.865	27275
812.007	27081
812.148	27176
812.29	27070
812.431	27157
812.573	27287
812.714	27287
812.855	27580
812.997	27553
813.138	27576
813.279	27473
813.421	27542
813.562	27359
813.703	27199
813.845	27112
813.986	26727
814.127	26492
814.268	26579
814.41	26434
814.551	26355
814.692	26355
814.833	26240
814.974	26233
815.115	26180
815.256	26081
815.397	26145
815.539	26210
815.68	26039
815.821	26005
815.962	25955
816.103	25849
816.244	25879
816.385	25632
816.526	25578
816.666	25472
816.807	25335
816.948	25514
817.089	25457
817.23	25502
817.371	25468
817.512	25274
817.653	25331
817.793	25308
817.934	25236
818.075	25289
818.216	25255
818.356	25228
818.497	25042
818.638	24909
818.778	24856
818.919	25042
819.06	25012
819.2	25091
819.341	25179
819.481	25221
819.622	25320
819.762	25388
819.903	25358
820.043	25244
820.184	25324
820.324	25266
820.465	25426
820.605	25209
820.746	25259
820.886	25168
821.026	25137
821.167	25099
821.307	25168
821.447	25015
821.588	24985
821.728	24886
821.868	24642
822.008	24563
822.149	24517
822.289	24483
822.429	24235
822.569	24098
822.709	24224
822.849	24011
822.99	23992
823.13	23942
823.27	23847
823.41	23786
823.55	23672
823.69	23729
823.83	23684
823.97	23634
824.11	23391
824.25	23509
824.389	23440
824.529	23528
824.669	23577
824.809	23520
824.949	23592
825.089	23524
825.228	23512
825.368	23246
825.508	23334
825.648	23307
825.787	23269
825.927	23315
826.067	23197
826.206	23223
826.346	23296
826.485	23303
826.625	23322
826.765	23288
826.904	23227
827.044	23090
827.183	22995
827.323	23037
827.462	22873
827.601	22915
827.741	22915
827.88	23079
828.02	22793
828.159	22839
828.298	22949
828.437	22957
828.577	22889
828.716	22953
828.855	22801
828.994	22664
829.134	22668
829.273	22691
829.412	22557
829.551	22508
829.69	22569
829.829	22535
829.968	22679
830.107	22588
830.246	22531
830.385	22554
830.524	22382
830.663	22447
830.802	22291
830.941	22207
831.08	22169
831.219	22257
831.357	22204
831.496	22318
831.635	22204
831.774	22082
831.913	22044
832.051	22040
832.19	21960
832.329	22078
832.467	21728
832.606	21941
832.744	21949
832.883	21949
833.022	22017
833.16	22070
833.299	22067
833.437	22291
833.576	22230
833.714	22280
833.852	22276
833.991	22318
834.129	22577
834.267	22489
834.406	22333
834.544	22261
834.682	22310
834.821	22257
834.959	22421
835.097	22055
835.235	22154
835.373	21934
835.511	21975
835.65	21903
835.788	21857
835.926	21667
836.064	21572
836.202	21603
836.34	21701
836.478	21724
836.615	21542
836.753	21576
836.891	21713
837.029	21622
837.167	21663
837.305	21504
837.443	21568
837.58	21408
837.718	21641
837.856	21515
837.993	21454
838.131	21462
838.269	21481
838.406	21473
838.544	21298
838.681	21180
838.819	21157
838.956	21055
839.094	21013
839.231	21036
839.369	21017
839.506	21336
839.643	21062
839.781	20845
839.918	20792
840.055	20769
840.193	20800
840.33	20765
840.467	20727
840.604	20906
840.742	20979
840.879	20735
841.016	20659
841.153	20705
841.29	20864
841.427	20918
841.564	20834
841.701	20743
841.838	20758
841.975	20773
842.112	20781
842.249	20686
842.385	20564
842.522	20807
842.659	20678
842.796	20602
842.933	20579
843.069	20530
843.206	20648
843.343	20625
843.479	20655
843.616	20621
843.752	20480
843.889	20488
844.025	20648
844.162	20469
844.298	20731
844.435	20545
844.571	20594
844.708	20819
844.844	21074
844.98	21275
845.117	21485
845.253	21857
845.389	22782
845.525	24258
845.661	26762
845.798	29817
845.934	32549
846.07	33416
846.206	33017
846.342	30909
846.478	27895
846.614	24920
846.75	23029
846.886	21987
847.022	21222
847.158	20811
847.294	20533
847.429	20400
847.565	20187
847.701	20229
847.837	19860
847.972	19750
848.108	19765
848.244	19769
848.379	19582
848.515	19605
848.65	19487
848.786	19422
848.921	19567
849.057	19552
849.192	19544
849.328	19396
849.463	19449
849.598	19282
849.734	19358
849.869	19289
850.004	19152
850.14	19247
850.275	19171
850.41	19107
850.545	19175
850.68	19152
850.815	19126
850.95	19069
851.085	19289
851.22	19206
851.355	19114
851.49	19057
851.625	19031
851.76	19084
851.895	19110
852.03	18924
852.165	19084
852.299	19084
852.434	19137
852.569	19133
852.703	19206
852.838	19297
852.973	19308
853.107	19278
853.242	19046
853.376	19015
853.511	18939
853.645	19027
853.78	19088
853.914	19164
854.048	19175
854.183	19091
854.317	19164
854.451	19274
854.585	19107
854.72	19141
854.854	19099
854.988	19118
855.122	19046
855.256	18951
855.39	18973
855.524	19050
855.658	19008
855.792	18996
855.926	18867
856.06	19012
856.194	19091
856.327	18977
856.461	18897
856.595	18947
856.729	18901
856.862	18977
856.996	19000
857.13	18947
857.263	18973
857.397	19103
857.53	18875
857.664	18947
857.797	18970
857.931	18890
858.064	18894
858.197	18897
858.331	18825
858.464	18806
858.597	18757
858.731	18795
858.864	18829
858.997	18920
859.13	18798
859.263	18954
859.396	18890
859.529	18817
859.662	18745
859.795	18905
859.928	18802
860.061	18993
860.194	19038
860.327	18871
860.46	18802
860.592	18878
860.725	18939
860.858	18958
860.99	18768
861.123	18760
861.256	18703
861.388	18646
861.521	19491
861.653	18669
861.786	18578
861.918	18726
862.05	18810
862.183	18730
862.315	18840
862.447	18840
862.58	18764
862.712	18578
862.844	18536
862.976	18768
863.108	18612
863.24	18935
863.372	18521
863.504	18612
863.636	18532
863.768	18650
863.9	18620
864.032	18479
864.164	18380
864.296	18532
864.428	18593
864.559	18589
864.691	18563
864.823	18555
864.954	18536
865.086	18692
865.217	18429
865.349	18494
865.48	18479
865.612	18369
865.743	18631
865.875	18460
866.006	18334
866.137	18395
866.269	18353
866.4	18342
866.531	18315
866.662	18251
866.793	18311
866.924	18311
867.055	18342
867.186	18365
867.317	18357
867.448	18353
867.579	18277
867.71	18308
867.841	18285
867.972	18422
868.103	18376
868.233	18361
868.364	18403
868.495	18429
868.625	18555
868.756	18688
868.886	18486
869.017	18730
869.147	18677
869.278	18669
869.408	18692
869.539	18639
869.669	18734
869.799	18677
869.929	18806
870.06	18776
870.19	19034
870.32	19015
870.45	18996
870.58	19122
870.71	19160
870.84	19038
870.97	19038
871.1	19084
871.23	19190
871.36	19240
871.489	19225
871.619	19228
871.749	19270
871.879	19312
872.008	19445
872.138	19350
872.267	19377
872.397	19247
872.526	19080
872.656	19126
872.785	19137
872.915	19377
873.044	19441
873.173	19377
873.303	19601
873.432	19381
873.561	19540
873.69	19407
873.819	19457
873.948	19548
874.077	19419
874.206	19468
874.335	19537
874.464	19571
874.593	19696
874.722	19833
874.851	19742
874.979	19833
875.108	19898
875.237	19833
875.365	19738
875.494	19894
875.623	19944
875.751	19913
875.88	19997
876.008	20092
876.136	20187
876.265	20351
876.393	20564
876.521	20533
876.65	20629
876.778	20602
876.906	20507
877.034	20442
877.162	20697
877.29	20571
877.418	20651
877.546	20590
877.674	20743
877.802	20769
877.93	20762
878.058	20929
878.185	20857
878.313	21173
878.441	21165
878.568	21275
878.696	21618
878.824	22010
878.951	22596
879.079	23444
879.206	24384
879.333	25327
879.461	26149
879.588	26636
879.715	26739
879.842	26358
879.97	25540
880.097	24171
880.224	23395
880.351	22987
880.478	22588
880.605	22287
880.732	21956
880.859	22150
880.986	21941
881.112	21755
881.239	21599
881.366	21671
881.493	21412
881.619	21412
881.746	21435
881.872	21473
881.999	21450
882.125	21325
882.252	21515
882.378	21492
882.505	21610
882.631	21351
882.757	21298
882.883	21389
883.01	21207
883.136	21180
883.262	21043
883.388	21047
883.514	21291
883.64	21321
883.766	21226
883.892	21020
884.018	21169
884.143	21313
884.269	21260
884.395	20941
884.52	20941
884.646	20842
884.772	20956
884.897	20842
885.023	21043
885.148	21142
885.274	21138
885.399	20906
885.524	20792
885.65	20746
885.775	20750
885.9	20746
886.025	20651
886.15	20598
886.275	20336
886.4	20271
886.525	20248
886.65	20138
886.775	20103
886.9	20248
887.025	20233
887.149	20005
887.274	19856
887.399	19849
887.523	19780
887.648	19719
887.773	19548
887.897	19677
888.021	19578
888.146	19518
888.27	19742
888.395	19628
888.519	19639
888.643	19411
888.767	19491
888.891	19304
889.015	19266
889.139	19263
889.263	19244
889.387	19285
889.511	19282
889.635	19297
889.759	19137
889.883	19110
890.006	19122
890.13	19065
890.254	18909
890.377	18951
890.501	18924
890.624	18875
890.748	18684
890.871	18684
890.995	18642
891.118	18494
891.241	18661
891.364	18513
891.488	18768
891.611	18490
891.734	18467
891.857	18502
891.98	18555
892.103	18639
892.226	18608
892.349	18509
892.471	18285
892.594	18266
892.717	18315
892.839	18372
892.962	18319
893.085	18433
893.207	18304
893.33	18186
893.452	18228
893.575	18433
893.697	18342
893.819	18471
893.941	18490
894.064	18391
894.186	18277
894.308	18155
894.43	18350
894.552	18308
894.674	18258
894.796	18117
894.918	18197
895.04	18178
895.161	18235
895.283	18201
895.405	18220
895.526	18205
895.648	18152
895.769	18159
895.891	18213
896.012	18239
896.134	18148
896.255	18201
896.376	18159
896.498	18194
896.619	18243
896.74	18232
896.861	18266
896.982	18471
897.103	18597
897.224	18631
897.345	18391
897.466	18330
897.587	18448
897.708	18456
897.828	18433
897.949	18270
898.07	18209
898.19	18258
898.311	18502
898.431	18365
898.552	18448
898.672	18486
898.792	18513
898.913	18433
899.033	18353
899.153	18209
899.273	18190
899.393	18201
899.513	18266
899.633	18186
899.753	18045
899.873	18091
899.993	18178
900.113	18038
900.232	18224
900.352	18079
900.472	17977
900.591	18015
900.711	18015
900.83	17939
900.95	17969
901.069	18057
901.189	17805
901.308	17672
901.427	17630
901.546	17657
901.665	17608
901.784	17589
901.904	17604
902.023	17364
902.141	17220
902.26	17117
902.379	17060
902.498	17079
902.617	17124
902.735	17022
902.854	17006
902.973	16987
903.091	16725
903.21	16660
903.328	16691
903.446	16573
903.565	16527
903.683	16527
903.801	16356
903.919	16489
904.038	16440
904.156	16325
904.274	16424
904.392	16223
904.51	16158
904.627	16390
904.745	16276
904.863	16405
904.981	16071
905.098	15926
905.216	15926
905.334	15964
905.451	15876
905.569	15876
905.686	15983
905.803	15854
905.921	15778
906.038	15766
906.155	15739
906.272	15618
906.389	15641
906.506	15424
906.623	15469
906.74	15466
906.857	15359
906.974	15272
907.091	15553
907.208	15614
907.324	15420
907.441	15370
907.557	15199
907.674	15176
907.79	15093
907.907	15093
908.023	15070
908.139	15188
908.256	14998
908.372	15055
908.488	14994
908.604	14815
908.72	14830
908.836	14765
908.952	14796
909.068	14819
909.184	14887
909.3	14762
909.415	14746
909.531	14792
909.647	14651
909.762	14511
909.878	14564
909.993	14511
910.108	14518
910.224	14568
910.339	14549
910.454	14484
910.57	14351
910.685	14385
910.8	14663
910.915	14556
911.03	14301
911.145	14214
911.259	14206
911.374	14168
911.489	14172
911.604	13940
911.718	13913
911.833	13959
911.947	13712
912.062	13685
912.176	13799
912.291	13883
912.405	13845
912.519	14130
912.633	14115
912.748	13921
912.862	13799
912.976	13731
913.09	13674
913.204	13620
913.318	13780
913.431	13750
913.545	13830
913.659	13887
913.772	13746
913.886	13559
914	13662
914.113	13723
914.226	13742
914.34	13689
914.453	13438
914.566	13594
914.68	13491
914.793	13468
914.906	13312
915.019	13217
915.132	13160
915.245	13320
915.358	13304
915.47	13247
915.583	13289
915.696	13331
915.809	13358
915.921	13373
916.034	13168
916.146	13179
916.259	13126
916.371	13266
916.483	13228
916.595	13110
916.708	13152
916.82	13255
916.932	13156
917.044	13164
917.156	13114
917.268	12962
917.38	12985
917.491	13015
917.603	13012
917.715	13031
917.826	13027
917.938	12852
918.049	12863
918.161	12939
918.272	13076
918.384	13042
918.495	12977
918.606	12848
918.717	12688
918.828	12745
918.939	12779
919.05	12650
919.161	12734
919.272	12582
919.383	12566
919.494	12821
919.604	12920
919.715	12684
919.826	12631
919.936	12703
920.047	12688
920.157	12745
920.267	12897
920.378	12776
920.488	12703
920.598	12875
920.708	13027
920.818	12829
920.928	12882
921.038	13004
921.148	12970
921.258	12749
921.368	12639
921.477	12502
921.587	12540
921.697	12376
921.806	12475
921.916	12414
922.025	12190
922.134	12144
922.244	12121
922.353	12133
922.462	12045
922.571	11885
922.68	11809
922.789	11775
922.898	11756
923.007	11714
923.116	11813
923.224	11874
923.333	11752
923.442	11615
923.55	11596
923.659	11813
923.767	11779
923.876	11585
923.984	11699
924.092	11600
924.201	11611
924.309	11649
924.417	11611
924.525	11611
924.633	11509
924.741	12319
924.849	11318
924.956	11467
925.064	11360
925.172	11246
925.279	11277
925.387	11326
925.494	11421
925.602	11463
925.709	11345
925.816	11269
925.924	11330
926.031	11349
926.138	11288
926.245	11284
926.352	11162
926.459	11368
926.566	11349
926.673	11204
926.779	11098
926.886	11178
926.993	10995
927.099	10942
927.206	10889
927.312	10858
927.419	11003
927.525	10942
927.631	11037
927.737	10843
927.843	10755
927.95	10725
928.056	10820
928.162	10767
928.267	10812
928.373	11387
928.479	10843
928.585	10622
928.69	10733
928.796	10866
928.901	10740
929.007	10561
929.112	10710
929.218	10668
929.323	10573
929.428	10519
929.533	10596
929.638	10500
929.743	10519
929.848	10660
929.953	10531
930.058	10485
930.163	10242
930.267	10287
930.372	10379
930.477	10367
930.581	10424
930.685	10276
930.79	10158
930.894	10219
930.998	10169
931.103	10200
931.207	9911
931.311	9873
931.415	9785
931.519	9564
931.623	9576
