Data from test_V78500241_3634.txt Node
Date: Fri Mar 25 14:59:01 CST 2022
User: usil
Spectrometer: V785-0024
Trigger mode: 0
Integration Time (sec): 4.000000E-1
Scans to average: 1
Nonlinearity correction enabled: false
Boxcar width: 0
Storing dark spectrum: false
XAxis mode: Wavelengths
Number of Pixels in Spectrum: 1024
>>>>>Begin Spectral Data<<<<<
801.071	21926
801.214	21842
801.356	21386
801.499	21435
801.641	21378
801.783	21336
801.926	21256
802.068	21112
802.211	21142
802.353	21074
802.496	20933
802.638	20773
802.78	20697
802.923	20792
803.065	20507
803.208	20579
803.35	20701
803.492	20632
803.635	20648
803.777	20613
803.919	20792
804.061	20960
804.204	20541
804.346	20503
804.488	20526
804.63	20590
804.773	20507
804.915	20476
805.057	20613
805.199	20450
805.341	20587
805.483	20731
805.626	20533
805.768	20503
805.91	20492
806.052	20549
806.194	20419
806.336	20632
806.478	20377
806.62	20434
806.762	20522
806.904	20659
807.046	20899
807.188	20697
807.33	20792
807.472	20758
807.614	20739
807.756	20682
807.898	20670
808.04	20651
808.182	20648
808.324	20697
808.465	20644
808.607	20838
808.749	20933
808.891	20914
809.033	21028
809.174	20788
809.316	20773
809.458	20785
809.6	20887
809.741	20876
809.883	20861
810.025	21024
810.166	20929
810.308	21093
810.45	20746
810.591	20815
810.733	20823
810.875	20674
811.016	20514
811.158	20469
811.299	20674
811.441	20632
811.582	20777
811.724	20670
811.865	20625
812.007	20530
812.148	20583
812.29	20758
812.431	20716
812.573	20937
812.714	20925
812.855	21085
812.997	21150
813.138	21272
813.279	21256
813.421	21043
813.562	21074
813.703	20872
813.845	20781
813.986	20560
814.127	20294
814.268	20157
814.41	20134
814.551	20195
814.692	20282
814.833	20050
814.974	20149
815.115	20142
815.256	20103
815.397	20065
815.539	20088
815.68	19947
815.821	19750
815.962	19928
816.103	19830
816.244	19772
816.385	19563
816.526	19601
816.666	19518
816.807	19228
816.948	19430
817.089	19392
817.23	19324
817.371	19308
817.512	19126
817.653	19301
817.793	19156
817.934	19171
818.075	19346
818.216	19285
818.356	19213
818.497	19194
818.638	19023
818.778	18916
818.919	18966
819.06	18840
819.2	19038
819.341	19118
819.481	19194
819.622	19377
819.762	19529
819.903	19430
820.043	19438
820.184	19217
820.324	19316
820.465	19373
820.605	19225
820.746	19236
820.886	19031
821.026	19175
821.167	19175
821.307	19301
821.447	19308
821.588	19095
821.728	18905
821.868	18787
822.008	18753
822.149	18700
822.289	18616
822.429	18403
822.569	18365
822.709	18395
822.849	18178
822.99	18148
823.13	18140
823.27	18190
823.41	17958
823.55	17847
823.69	17988
823.83	17901
823.97	17752
824.11	17828
824.25	17798
824.389	17828
824.529	17699
824.669	17707
824.809	17931
824.949	17836
825.089	17889
825.228	17672
825.368	17566
825.508	17558
825.648	17615
825.787	17577
825.927	17592
826.067	17623
826.206	17433
826.346	17547
826.485	17497
826.625	17493
826.765	17596
826.904	17573
827.044	17258
827.183	17315
827.323	17299
827.462	17174
827.601	17280
827.741	17254
827.88	17220
828.02	17258
828.159	17296
828.298	17254
828.437	17368
828.577	17242
828.716	17334
828.855	17220
828.994	17075
829.134	17079
829.273	17105
829.412	16892
829.551	16961
829.69	17045
829.829	17048
829.968	17147
830.107	17079
830.246	17132
830.385	16949
830.524	16809
830.663	16824
830.802	16748
830.941	16565
831.08	16694
831.219	16759
831.357	16713
831.496	16809
831.635	16584
831.774	16531
831.913	16580
832.051	16493
832.19	16443
832.329	16538
832.467	16409
832.606	16253
832.744	16341
832.883	16382
833.022	16268
833.16	16314
833.299	16371
833.437	16310
833.576	16348
833.714	16318
833.852	16409
833.991	16360
834.129	16443
834.267	16382
834.406	16443
834.544	16493
834.682	16394
834.821	16375
834.959	16497
835.097	16341
835.235	16519
835.373	16436
835.511	16500
835.65	16322
835.788	16249
835.926	16219
836.064	16105
836.202	16109
836.34	16230
836.478	16409
836.615	16382
836.753	16265
836.891	16360
837.029	16287
837.167	16291
837.305	16272
837.443	16215
837.58	16188
837.718	16268
837.856	16135
837.993	16169
838.131	16196
838.269	16109
838.406	16120
838.544	16032
838.681	15937
838.819	15831
838.956	15739
839.094	15701
839.231	15766
839.369	15945
839.506	16158
839.643	15964
839.781	15835
839.918	15789
840.055	15823
840.193	15770
840.33	15736
840.467	15732
840.604	15728
840.742	15937
840.879	15698
841.016	15808
841.153	15663
841.29	15968
841.427	15804
841.564	15793
841.701	15698
841.838	15755
841.975	15694
842.112	15667
842.249	15504
842.385	15507
842.522	15667
842.659	15580
842.796	15534
842.933	15530
843.069	15496
843.206	15519
843.343	15549
843.479	15477
843.616	15557
843.752	15367
843.889	15344
844.025	15439
844.162	15317
844.298	15511
844.435	15275
844.571	15199
844.708	15397
844.844	15397
844.98	15496
845.117	15458
845.253	15294
845.389	15161
845.525	15165
845.661	15104
845.798	15116
845.934	15104
846.07	15066
846.206	15199
846.342	15344
846.478	15047
846.614	14921
846.75	14864
846.886	14826
847.022	14895
847.158	14941
847.294	14971
847.429	14921
847.565	14834
847.701	15184
847.837	14545
847.972	14659
848.108	14632
848.244	14663
848.379	14621
848.515	14495
848.65	14541
848.786	14438
848.921	14412
849.057	14674
849.192	14655
849.328	14484
849.463	14556
849.598	14419
849.734	14461
849.869	14385
850.004	14218
850.14	14324
850.275	14351
850.41	14218
850.545	14221
850.68	14221
850.815	14267
850.95	14278
851.085	14537
851.22	14286
851.355	14347
851.49	14317
851.625	14199
851.76	14180
851.895	14172
852.03	14149
852.165	14164
852.299	14282
852.434	14343
852.569	14218
852.703	14286
852.838	14446
852.973	14514
853.107	14377
853.242	14244
853.376	14187
853.511	14024
853.645	14046
853.78	14313
853.914	14073
854.048	14039
854.183	14020
854.317	14210
854.451	14339
854.585	14111
854.72	14077
854.854	14187
854.988	14092
855.122	14100
855.256	14020
855.39	14153
855.524	14202
855.658	14218
855.792	14138
855.926	14081
856.06	14153
856.194	14180
856.327	14153
856.461	14134
856.595	14149
856.729	14081
856.862	14229
856.996	14168
857.13	14142
857.263	14240
857.397	14130
857.53	14107
857.664	14149
857.797	14191
857.931	14339
858.064	14191
858.197	14164
858.331	14100
858.464	14130
858.597	14005
858.731	14157
858.864	14138
858.997	13986
859.13	14138
859.263	14142
859.396	14199
859.529	14081
859.662	14073
859.795	14126
859.928	14161
860.061	14267
860.194	14400
860.327	14161
860.46	14183
860.592	14191
860.725	14275
860.858	14195
860.99	14123
861.123	14058
861.256	14130
861.388	14225
861.521	14948
861.653	14035
861.786	14012
861.918	14020
862.05	14119
862.183	14168
862.315	14149
862.447	14088
862.58	14088
862.712	14001
862.844	13811
862.976	13993
863.108	13921
863.24	14408
863.372	13936
863.504	13852
863.636	13906
863.768	13944
863.9	13921
864.032	13833
864.164	13944
864.296	13944
864.428	14012
864.559	13951
864.691	13963
864.823	14005
864.954	13947
865.086	14024
865.217	13936
865.349	13868
865.48	13814
865.612	13917
865.743	14031
865.875	13944
866.006	13887
866.137	13864
866.269	13875
866.4	13928
866.531	13883
866.662	13769
866.793	13849
866.924	13799
867.055	13841
867.186	13879
867.317	13849
867.448	13761
867.579	13925
867.71	13841
867.841	13788
867.972	13940
868.103	13875
868.233	13967
868.364	13887
868.495	13986
868.625	14153
868.756	14362
868.886	14077
869.017	14111
869.147	14218
869.278	14233
869.408	14164
869.539	14168
869.669	14206
869.799	14221
869.929	14309
870.06	14221
870.19	14431
870.32	14412
870.45	14518
870.58	14568
870.71	14617
870.84	14636
870.97	14511
871.1	14560
871.23	14743
871.36	14674
871.489	14663
871.619	14632
871.749	14773
871.879	14777
872.008	14982
872.138	14804
872.267	14720
872.397	14617
872.526	14655
872.656	14587
872.785	14640
872.915	14720
873.044	14796
873.173	14868
873.303	14811
873.432	14906
873.561	14933
873.69	14731
873.819	14853
873.948	14891
874.077	14883
874.206	14834
874.335	14819
874.464	14880
874.593	15074
874.722	15036
874.851	15184
874.979	15169
875.108	15108
875.237	15093
875.365	15043
875.494	15024
875.623	15230
875.751	15097
875.88	15157
876.008	15275
876.136	15256
876.265	15515
876.393	15663
876.521	15686
876.65	15614
876.778	15568
876.906	15500
877.034	15462
877.162	15507
877.29	15477
877.418	15477
877.546	15580
877.674	15367
877.802	15462
877.93	15553
878.058	15538
878.185	15351
878.313	15374
878.441	15523
878.568	15382
878.696	15496
878.824	15564
878.951	15629
879.079	15663
879.206	15838
879.333	15720
879.461	15568
879.588	15622
879.715	15686
879.842	15827
879.97	15652
880.097	15428
880.224	15355
880.351	15466
880.478	15504
880.605	15397
880.732	15336
880.859	15534
880.986	15386
881.112	15504
881.239	15344
881.366	15192
881.493	15051
881.619	15032
881.746	15104
881.872	15047
881.999	15020
882.125	14956
882.252	15043
882.378	15028
882.505	15268
882.631	14918
882.757	14891
882.883	14998
883.01	14853
883.136	14815
883.262	14777
883.388	14758
883.514	14937
883.64	14902
883.766	14830
883.892	14621
884.018	14743
884.143	14864
884.269	14914
884.395	14651
884.52	14587
884.646	14590
884.772	14511
884.897	14526
885.023	14549
885.148	14632
885.274	14701
885.399	14651
885.524	14518
885.65	14556
885.775	14522
885.9	14610
886.025	14678
886.15	14606
886.275	14629
886.4	14385
886.525	14484
886.65	14511
886.775	14446
886.9	14610
887.025	14781
887.149	14514
887.274	14423
887.399	14457
887.523	14404
887.648	14362
887.773	14385
887.897	14480
888.021	14492
888.146	14374
888.27	14507
888.395	14556
888.519	14492
888.643	14537
888.767	14446
888.891	14328
889.015	14183
889.139	14290
889.263	14229
889.387	14381
889.511	14457
889.635	14473
889.759	14221
889.883	14221
890.006	14355
890.13	14324
890.254	14294
890.377	14199
890.501	14130
890.624	14096
890.748	14149
890.871	14145
890.995	13978
891.118	13928
891.241	14024
891.364	14008
891.488	14016
891.611	14031
891.734	13982
891.857	14020
891.98	14001
892.103	14046
892.226	13947
892.349	13978
892.471	13814
892.594	13932
892.717	13944
892.839	13955
892.962	13970
893.085	13978
893.207	13974
893.33	13822
893.452	13970
893.575	13993
893.697	13917
893.819	14153
893.941	14168
894.064	14084
894.186	13993
894.308	13811
894.43	14115
894.552	14145
894.674	14062
894.796	13974
894.918	14005
895.04	13997
895.161	14119
895.283	14077
895.405	14073
895.526	14092
895.648	14043
895.769	14096
895.891	14039
896.012	14225
896.134	14195
896.255	14119
896.376	14130
896.498	14138
896.619	14176
896.74	14225
896.861	14233
896.982	14522
897.103	14693
897.224	14465
897.345	14328
897.466	14309
897.587	14480
897.708	14461
897.828	14473
897.949	14393
898.07	14313
898.19	14511
898.311	14533
898.431	14465
898.552	14465
898.672	14587
898.792	14476
898.913	14552
899.033	14400
899.153	14385
899.273	14252
899.393	14294
899.513	14374
899.633	14434
899.753	14313
899.873	14389
899.993	14412
900.113	14347
900.232	14267
900.352	14332
900.472	14328
900.591	14138
900.711	14278
900.83	14115
900.95	14313
901.069	14343
901.189	14073
901.308	13997
901.427	13887
901.546	13875
901.665	13849
901.784	13967
901.904	13772
902.023	13788
902.141	13525
902.26	13441
902.379	13582
902.498	13441
902.617	13502
902.735	13544
902.854	13411
902.973	13445
903.091	13156
903.21	13126
903.328	13190
903.446	13141
903.565	13107
903.683	13129
903.801	12981
903.919	12970
904.038	13023
904.156	12875
904.274	13015
904.392	12852
904.51	12852
904.627	12840
904.745	12928
904.863	12932
904.981	12707
905.098	12582
905.216	12639
905.334	12582
905.451	12540
905.569	12574
905.686	12681
905.803	12467
905.921	12346
906.038	12547
906.155	12395
906.272	12285
906.389	12311
906.506	12197
906.623	12060
906.74	12045
906.857	12011
906.974	12068
907.091	12224
907.208	12296
907.324	12190
907.441	12060
907.557	12011
907.674	11965
907.79	11916
907.907	11863
908.023	11912
908.139	11958
908.256	11908
908.372	11840
908.488	11824
908.604	11752
908.72	11718
908.836	11680
908.952	11668
909.068	11688
909.184	11767
909.3	11786
909.415	11786
909.531	11733
909.647	11505
909.762	11463
909.878	11410
909.993	11448
910.108	11482
910.224	11452
910.339	11429
910.454	11406
910.57	11376
910.685	11189
910.8	11486
910.915	11562
911.03	11288
911.145	11102
911.259	11220
911.374	11128
911.489	11136
911.604	10984
911.718	10919
911.833	10946
911.947	10873
912.062	10641
912.176	10908
912.291	10953
912.405	10942
912.519	11162
912.633	11162
912.748	10965
912.862	10900
912.976	10831
913.09	10649
913.204	10843
913.318	10835
913.431	10946
913.545	10869
913.659	10847
913.772	10778
913.886	10611
914	10630
914.113	10706
914.226	10835
914.34	10771
914.453	10573
914.566	10767
914.68	10634
914.793	10573
914.906	10455
915.019	10394
915.132	10322
915.245	10455
915.358	10485
915.47	10432
915.583	10489
915.696	10447
915.809	10611
915.921	10542
916.034	10417
916.146	10379
916.259	10402
916.371	10459
916.483	10440
916.595	10356
916.708	10329
916.82	10390
916.932	10375
917.044	10341
917.156	10249
917.268	10234
917.38	10306
917.491	10238
917.603	10322
917.715	10272
917.826	10409
917.938	10276
918.049	10139
918.161	10280
918.272	10390
918.384	10360
918.495	10154
918.606	10185
918.717	10032
918.828	10150
918.939	10177
919.05	10044
919.161	10124
919.272	9888
919.383	9949
919.494	10223
919.604	10299
919.715	10223
919.826	10090
919.936	10078
920.047	10299
920.157	10192
920.267	10310
920.378	10196
920.488	10131
920.598	10287
920.708	10428
920.818	10341
920.928	10314
921.038	10485
921.148	10443
921.258	10192
921.368	10082
921.477	10048
921.587	9987
921.697	9892
921.806	10017
921.916	9945
922.025	9747
922.134	9785
922.244	9637
922.353	9701
922.462	9648
922.571	9629
922.68	9511
922.789	9355
922.898	9466
923.007	9416
923.116	9340
923.224	9420
923.333	9488
923.442	9317
923.55	9241
923.659	9393
923.767	9386
923.876	9272
923.984	9351
924.092	9222
924.201	9245
924.309	9272
924.417	9272
924.525	9249
924.633	9279
924.741	10025
924.849	9043
924.956	9211
925.064	9123
925.172	8956
925.279	9051
925.387	9093
925.494	9093
925.602	9195
925.709	9138
925.816	8994
925.924	9077
926.031	9077
926.138	9039
926.245	9146
926.352	8994
926.459	9104
926.566	9218
926.673	9020
926.779	8918
926.886	8842
926.993	8849
927.099	8754
927.206	8727
927.312	8682
927.419	8804
927.525	8819
927.631	8883
927.737	8796
927.843	8724
927.95	8590
928.056	8674
928.162	8697
928.267	8743
928.373	9249
928.479	8804
928.585	8556
928.69	8674
928.796	8686
928.901	8648
929.007	8518
929.112	8667
929.218	8564
929.323	8476
929.428	8507
929.533	8667
929.638	8396
929.743	8514
929.848	8526
929.953	8461
930.058	8351
930.163	8168
930.267	8324
930.372	8408
930.477	8225
930.581	8476
930.685	8317
930.79	8206
930.894	8252
930.998	8237
931.103	8328
931.207	8024
931.311	7951
931.415	7875
931.519	7750
931.623	7693
