Data from test_V78500241_2951.txt Node
Date: Fri Mar 25 14:54:15 CST 2022
User: usil
Spectrometer: V785-0024
Trigger mode: 0
Integration Time (sec): 4.000000E-1
Scans to average: 1
Nonlinearity correction enabled: false
Boxcar width: 0
Storing dark spectrum: false
XAxis mode: Wavelengths
Number of Pixels in Spectrum: 1024
>>>>>Begin Spectral Data<<<<<
801.071	22131
801.214	22010
801.356	21781
801.499	21633
801.641	21412
801.783	21534
801.926	21443
802.068	21378
802.211	21283
802.353	21245
802.496	21058
802.638	20990
802.78	20948
802.923	20944
803.065	20788
803.208	20617
803.35	20788
803.492	20864
803.635	20960
803.777	20781
803.919	20849
804.061	21104
804.204	20762
804.346	20773
804.488	20598
804.63	20731
804.773	20724
804.915	20727
805.057	20727
805.199	20682
805.341	20830
805.483	20773
805.626	20769
805.768	20636
805.91	20648
806.052	20697
806.194	20575
806.336	20830
806.478	20720
806.62	20594
806.762	20883
806.904	20891
807.046	21017
807.188	21119
807.33	20998
807.472	21184
807.614	20891
807.756	20998
807.898	20823
808.04	20765
808.182	20838
808.324	20800
808.465	20830
808.607	21119
808.749	21199
808.891	21093
809.033	21211
809.174	21222
809.316	20990
809.458	21138
809.6	20963
809.741	21009
809.883	21051
810.025	21340
810.166	21207
810.308	21367
810.45	21218
810.591	21009
810.733	20895
810.875	20785
811.016	20735
811.158	20708
811.299	20979
811.441	20967
811.582	20994
811.724	20956
811.865	20868
812.007	20689
812.148	20823
812.29	20876
812.431	20986
812.573	21184
812.714	21298
812.855	21401
812.997	21367
813.138	21485
813.279	21519
813.421	21405
813.562	21374
813.703	20960
813.845	20982
813.986	20651
814.127	20537
814.268	20377
814.41	20457
814.551	20244
814.692	20370
814.833	20351
814.974	20324
815.115	20404
815.256	20263
815.397	20183
815.539	20161
815.68	19997
815.821	20062
815.962	20073
816.103	20058
816.244	19898
816.385	19856
816.526	19814
816.666	19708
816.807	19670
816.948	19689
817.089	19651
817.23	19506
817.371	19514
817.512	19601
817.653	19411
817.793	19514
817.934	19563
818.075	19499
818.216	19559
818.356	19415
818.497	19324
818.638	19183
818.778	19187
818.919	19160
819.06	19247
819.2	19304
819.341	19483
819.481	19430
819.622	19510
819.762	19753
819.903	19647
820.043	19624
820.184	19586
820.324	19552
820.465	19559
820.605	19544
820.746	19514
820.886	19377
821.026	19483
821.167	19453
821.307	19426
821.447	19297
821.588	19339
821.728	19202
821.868	18996
822.008	18954
822.149	18867
822.289	18913
822.429	18585
822.569	18582
822.709	18612
822.849	18380
822.99	18338
823.13	18304
823.27	18353
823.41	18296
823.55	18167
823.69	18174
823.83	18174
823.97	18194
824.11	18022
824.25	17988
824.389	17889
824.529	18053
824.669	17996
824.809	18095
824.949	18144
825.089	18102
825.228	17977
825.368	17714
825.508	17809
825.648	17786
825.787	17752
825.927	17775
826.067	17691
826.206	17585
826.346	17771
826.485	17710
826.625	17672
826.765	17836
826.904	17794
827.044	17543
827.183	17520
827.323	17459
827.462	17528
827.601	17474
827.741	17395
827.88	17455
828.02	17395
828.159	17455
828.298	17448
828.437	17474
828.577	17440
828.716	17459
828.855	17497
828.994	17231
829.134	17220
829.273	17174
829.412	17166
829.551	17155
829.69	17239
829.829	17254
829.968	17311
830.107	17235
830.246	17140
830.385	17105
830.524	17075
830.663	16972
830.802	16896
830.941	16850
831.08	16778
831.219	16843
831.357	16740
831.496	17041
831.635	16641
831.774	16740
831.913	16786
832.051	16577
832.19	16599
832.329	16672
832.467	16504
832.606	16421
832.744	16440
832.883	16451
833.022	16459
833.16	16436
833.299	16580
833.437	16558
833.576	16504
833.714	16497
833.852	16500
833.991	16516
834.129	16603
834.267	16527
834.406	16478
834.544	16596
834.682	16565
834.821	16527
834.959	16771
835.097	16466
835.235	16569
835.373	16527
835.511	16466
835.65	16421
835.788	16413
835.926	16253
836.064	16280
836.202	16238
836.34	16470
836.478	16424
836.615	16577
836.753	16379
836.891	16493
837.029	16462
837.167	16447
837.305	16344
837.443	16306
837.58	16333
837.718	16287
837.856	16261
837.993	16238
838.131	16268
838.269	16135
838.406	16135
838.544	16105
838.681	15994
838.819	15892
838.956	15869
839.094	15778
839.231	15915
839.369	16090
839.506	16207
839.643	16029
839.781	15956
839.918	15869
840.055	15926
840.193	15705
840.33	15838
840.467	15751
840.604	15713
840.742	16131
840.879	15770
841.016	15747
841.153	15698
841.29	15949
841.427	15766
841.564	15861
841.701	15838
841.838	15709
841.975	15652
842.112	15831
842.249	15599
842.385	15671
842.522	15800
842.659	15618
842.796	15428
842.933	15660
843.069	15728
843.206	15618
843.343	15648
843.479	15625
843.616	15576
843.752	15420
843.889	15386
844.025	15485
844.162	15351
844.298	15443
844.435	15310
844.571	15260
844.708	15408
844.844	15580
844.98	15336
845.117	15530
845.253	15317
845.389	15249
845.525	15291
845.661	15249
845.798	15226
845.934	15279
846.07	15047
846.206	15192
846.342	15313
846.478	15104
846.614	15043
846.75	14887
846.886	14952
847.022	14952
847.158	15032
847.294	14925
847.429	14994
847.565	14975
847.701	15169
847.837	14716
847.972	14629
848.108	14788
848.244	14651
848.379	14594
848.515	14625
848.65	14625
848.786	14564
848.921	14473
849.057	14663
849.192	14636
849.328	14602
849.463	14583
849.598	14610
849.734	14549
849.869	14393
850.004	14385
850.14	14313
850.275	14301
850.41	14275
850.545	14187
850.68	14396
850.815	14347
850.95	14271
851.085	14552
851.22	14381
851.355	14370
851.49	14366
851.625	14301
851.76	14317
851.895	14332
852.03	14259
852.165	14332
852.299	14324
852.434	14469
852.569	14374
852.703	14328
852.838	14446
852.973	14488
853.107	14473
853.242	14351
853.376	14145
853.511	14218
853.645	14210
853.78	14396
853.914	14164
854.048	14271
854.183	14130
854.317	14271
854.451	14396
854.585	14191
854.72	14191
854.854	14290
854.988	14126
855.122	14134
855.256	14058
855.39	14195
855.524	14317
855.658	14298
855.792	14252
855.926	14202
856.06	14237
856.194	14298
856.327	14161
856.461	14100
856.595	14149
856.729	14210
856.862	14298
856.996	14309
857.13	14271
857.263	14286
857.397	14396
857.53	14229
857.664	14324
857.797	14347
857.931	14347
858.064	14366
858.197	14400
858.331	14263
858.464	14164
858.597	14119
858.731	14240
858.864	14290
858.997	14191
859.13	14286
859.263	14191
859.396	14294
859.529	14142
859.662	14229
859.795	14240
859.928	14256
860.061	14385
860.194	14438
860.327	14202
860.46	14206
860.592	14362
860.725	14450
860.858	14381
860.99	14206
861.123	14088
861.256	14271
861.388	14229
861.521	14800
861.653	14058
861.786	14043
861.918	14199
862.05	14134
862.183	14218
862.315	14275
862.447	14202
862.58	14244
862.712	14058
862.844	13940
862.976	14119
863.108	14046
863.24	14320
863.372	13928
863.504	14035
863.636	14005
863.768	14123
863.9	14069
864.032	14001
864.164	13978
864.296	13940
864.428	14123
864.559	14073
864.691	14103
864.823	14069
864.954	14130
865.086	13947
865.217	14001
865.349	13967
865.48	13970
865.612	13982
865.743	14115
865.875	13978
866.006	14024
866.137	14084
866.269	13890
866.4	13986
866.531	13944
866.662	13940
866.793	14012
866.924	14054
867.055	13970
867.186	14084
867.317	14024
867.448	13875
867.579	14001
867.71	13932
867.841	13814
867.972	13978
868.103	13925
868.233	13947
868.364	13951
868.495	14027
868.625	14100
868.756	14324
868.886	14164
869.017	14256
869.147	14393
869.278	14332
869.408	14218
869.539	14263
869.669	14332
869.799	14267
869.929	14377
870.06	14423
870.19	14522
870.32	14522
870.45	14518
870.58	14712
870.71	14716
870.84	14659
870.97	14636
871.1	14621
871.23	14834
871.36	14883
871.489	14826
871.619	14834
871.749	14777
871.879	14861
872.008	14891
872.138	14765
872.267	14838
872.397	14705
872.526	14701
872.656	14701
872.785	14670
872.915	14883
873.044	14941
873.173	14910
873.303	14861
873.432	14902
873.561	14956
873.69	14895
873.819	14849
873.948	15066
874.077	14937
874.206	14952
874.335	14914
874.464	15077
874.593	15097
874.722	15127
874.851	15241
874.979	15214
875.108	15264
875.237	15066
875.365	15043
875.494	15211
875.623	15272
875.751	15207
875.88	15310
876.008	15481
876.136	15515
876.265	15545
876.393	15789
876.521	15610
876.65	15698
876.778	15599
876.906	15538
877.034	15667
877.162	15629
877.29	15549
877.418	15610
877.546	15507
877.674	15698
877.802	15679
877.93	15622
878.058	15610
878.185	15454
878.313	15698
878.441	15568
878.568	15408
878.696	15545
878.824	15755
878.951	15755
879.079	15800
879.206	15918
879.333	15751
879.461	15720
879.588	15728
879.715	15717
879.842	15869
879.97	15766
880.097	15481
880.224	15534
880.351	15515
880.478	15519
880.605	15443
880.732	15462
880.859	15736
880.986	15428
881.112	15469
881.239	15435
881.366	15214
881.493	15123
881.619	15070
881.746	15214
881.872	15100
881.999	15112
882.125	15176
882.252	15173
882.378	15119
882.505	15222
882.631	15070
882.757	14948
882.883	15058
883.01	14921
883.136	14948
883.262	14746
883.388	14815
883.514	15043
883.64	14979
883.766	14933
883.892	14735
884.018	14754
884.143	14891
884.269	14963
884.395	14792
884.52	14682
884.646	14613
884.772	14530
884.897	14575
885.023	14674
885.148	14758
885.274	14785
885.399	14804
885.524	14598
885.65	14724
885.775	14720
885.9	14575
886.025	14804
886.15	14686
886.275	14610
886.4	14587
886.525	14545
886.65	14598
886.775	14526
886.9	14731
887.025	14880
887.149	14708
887.274	14533
887.399	14476
887.523	14419
887.648	14404
887.773	14328
887.897	14590
888.021	14381
888.146	14423
888.27	14526
888.395	14549
888.519	14579
888.643	14541
888.767	14522
888.891	14328
889.015	14347
889.139	14317
889.263	14271
889.387	14514
889.511	14533
889.635	14419
889.759	14385
889.883	14427
890.006	14377
890.13	14446
890.254	14191
890.377	14305
890.501	14130
890.624	14100
890.748	14183
890.871	14065
890.995	13928
891.118	13925
891.241	13982
891.364	14016
891.488	14183
891.611	14058
891.734	14012
891.857	14062
891.98	14035
892.103	14073
892.226	14081
892.349	13989
892.471	13921
892.594	14005
892.717	14012
892.839	14092
892.962	14024
893.085	14126
893.207	14035
893.33	13852
893.452	14012
893.575	14142
893.697	14039
893.819	14202
893.941	14206
894.064	14286
894.186	14046
894.308	14027
894.43	14183
894.552	14301
894.674	14199
894.796	14001
894.918	14081
895.04	14077
895.161	14145
895.283	14161
895.405	14103
895.526	14142
895.648	14164
895.769	14229
895.891	14153
896.012	14381
896.134	14275
896.255	14202
896.376	14145
896.498	14206
896.619	14309
896.74	14180
896.861	14282
896.982	14495
897.103	14739
897.224	14564
897.345	14427
897.466	14393
897.587	14415
897.708	14663
897.828	14587
897.949	14423
898.07	14351
898.19	14476
898.311	14610
898.431	14571
898.552	14606
898.672	14560
898.792	14632
898.913	14735
899.033	14518
899.153	14400
899.273	14301
899.393	14267
899.513	14442
899.633	14324
899.753	14457
899.873	14381
899.993	14476
900.113	14415
900.232	14480
900.352	14343
900.472	14332
900.591	14240
900.711	14282
900.83	14267
900.95	14377
901.069	14419
901.189	14324
901.308	14050
901.427	13982
901.546	14065
901.665	13951
901.784	13978
901.904	13791
902.023	13772
902.141	13655
902.26	13548
902.379	13639
902.498	13575
902.617	13609
902.735	13537
902.854	13597
902.973	13506
903.091	13339
903.21	13274
903.328	13339
903.446	13145
903.565	13080
903.683	13228
903.801	13050
903.919	13103
904.038	13084
904.156	12867
904.274	13053
904.392	12825
904.51	12924
904.627	12996
904.745	13023
904.863	12966
904.981	12745
905.098	12589
905.216	12707
905.334	12715
905.451	12662
905.569	12547
905.686	12620
905.803	12528
905.921	12448
906.038	12471
906.155	12399
906.272	12407
906.389	12361
906.506	12148
906.623	12254
906.74	12178
906.857	12144
906.974	12095
907.091	12243
907.208	12361
907.324	12262
907.441	12072
907.557	12022
907.674	11878
907.79	11828
907.907	11828
908.023	11988
908.139	11958
908.256	11882
908.372	11893
908.488	11847
908.604	11767
908.72	11619
908.836	11760
908.952	11707
909.068	11684
909.184	11916
909.3	11623
909.415	11779
909.531	11729
909.647	11554
909.762	11539
909.878	11547
909.993	11474
910.108	11482
910.224	11467
910.339	11516
910.454	11379
910.57	11273
910.685	11280
910.8	11512
910.915	11539
911.03	11292
911.145	11208
911.259	11181
911.374	11159
911.489	11124
911.604	11083
911.718	10919
911.833	10965
911.947	10812
912.062	10763
912.176	10976
912.291	10877
912.405	10843
912.519	11143
912.633	11113
912.748	11041
912.862	10961
912.976	10812
913.09	10774
913.204	10755
913.318	10767
913.431	10938
913.545	10881
913.659	10873
913.772	10831
913.886	10679
914	10706
914.113	10740
914.226	10790
914.34	10828
914.453	10634
914.566	10850
914.68	10710
914.793	10618
914.906	10455
915.019	10462
915.132	10436
915.245	10409
915.358	10394
915.47	10466
915.583	10428
915.696	10523
915.809	10630
915.921	10611
916.034	10421
916.146	10348
916.259	10443
916.371	10474
916.483	10432
916.595	10352
916.708	10363
916.82	10314
916.932	10348
917.044	10428
917.156	10344
917.268	10280
917.38	10234
917.491	10344
917.603	10325
917.715	10379
917.826	10375
917.938	10322
918.049	10204
918.161	10284
918.272	10344
918.384	10382
918.495	10276
918.606	10150
918.717	10147
918.828	10246
918.939	10162
919.05	10090
919.161	10158
919.272	9960
919.383	10101
919.494	10211
919.604	10390
919.715	10200
919.826	10105
919.936	10192
920.047	10242
920.157	10253
920.267	10367
920.378	10230
920.488	10261
920.598	10409
920.708	10523
920.818	10402
920.928	10382
921.038	10584
921.148	10558
921.258	10261
921.368	10154
921.477	10025
921.587	10055
921.697	9964
921.806	10135
921.916	9953
922.025	9747
922.134	9770
922.244	9770
922.353	9789
922.462	9679
922.571	9633
922.68	9462
922.789	9412
922.898	9473
923.007	9443
923.116	9564
923.224	9481
923.333	9408
923.442	9359
923.55	9367
923.659	9344
923.767	9389
923.876	9336
923.984	9363
924.092	9245
924.201	9340
924.309	9370
924.417	9351
924.525	9317
924.633	9249
924.741	10200
924.849	9093
924.956	9317
925.064	9112
925.172	9051
925.279	9062
925.387	9138
925.494	9176
925.602	9203
925.709	9157
925.816	9024
925.924	9104
926.031	9264
926.138	9176
926.245	9157
926.352	9032
926.459	9199
926.566	9237
926.673	9058
926.779	8982
926.886	8960
926.993	8849
927.099	8834
927.206	8766
927.312	8773
927.419	8944
927.525	8880
927.631	8880
927.737	8731
927.843	8804
927.95	8636
928.056	8727
928.162	8743
928.267	8735
928.373	9443
928.479	8880
928.585	8587
928.69	8750
928.796	8800
928.901	8667
929.007	8552
929.112	8610
929.218	8606
929.323	8541
929.428	8511
929.533	8674
929.638	8530
929.743	8533
929.848	8621
929.953	8537
930.058	8461
930.163	8298
930.267	8408
930.372	8537
930.477	8336
930.581	8473
930.685	8412
930.79	8336
930.894	8301
930.998	8195
931.103	8385
931.207	8058
931.311	8046
931.415	7913
931.519	7887
931.623	7795
