Data from test_V78500241_3481.txt Node
Date: Fri Mar 25 14:57:57 CST 2022
User: usil
Spectrometer: V785-0024
Trigger mode: 0
Integration Time (sec): 4.000000E-1
Scans to average: 1
Nonlinearity correction enabled: false
Boxcar width: 0
Storing dark spectrum: false
XAxis mode: Wavelengths
Number of Pixels in Spectrum: 1024
>>>>>Begin Spectral Data<<<<<
801.071	22021
801.214	21789
801.356	21667
801.499	21351
801.641	21325
801.783	21256
801.926	21294
802.068	21184
802.211	21176
802.353	21066
802.496	20891
802.638	20765
802.78	20811
802.923	20602
803.065	20598
803.208	20594
803.35	20602
803.492	20724
803.635	20727
803.777	20629
803.919	20727
804.061	20906
804.204	20731
804.346	20594
804.488	20499
804.63	20651
804.773	20442
804.915	20609
805.057	20533
805.199	20484
805.341	20541
805.483	20575
805.626	20495
805.768	20434
805.91	20640
806.052	20590
806.194	20415
806.336	20720
806.478	20537
806.62	20507
806.762	20587
806.904	20842
807.046	20998
807.188	20952
807.33	20769
807.472	20887
807.614	20739
807.756	20659
807.898	20579
808.04	20590
808.182	20655
808.324	20583
808.465	20606
808.607	20746
808.749	20876
808.891	20963
809.033	21036
809.174	21005
809.316	20739
809.458	20834
809.6	20765
809.741	20880
809.883	20891
810.025	20998
810.166	21150
810.308	20921
810.45	20979
810.591	20876
810.733	20853
810.875	20674
811.016	20545
811.158	20545
811.299	20655
811.441	20796
811.582	20655
811.724	20693
811.865	20518
812.007	20560
812.148	20659
812.29	20625
812.431	20773
812.573	20941
812.714	21108
812.855	21146
812.997	21214
813.138	21408
813.279	21188
813.421	21036
813.562	21036
813.703	20754
813.845	20910
813.986	20545
814.127	20275
814.268	20237
814.41	20275
814.551	20122
814.692	20305
814.833	20043
814.974	20065
815.115	20115
815.256	19902
815.397	20012
815.539	19947
815.68	19940
815.821	19791
815.962	19902
816.103	19917
816.244	19719
816.385	19734
816.526	19674
816.666	19495
816.807	19240
816.948	19388
817.089	19525
817.23	19403
817.371	19350
817.512	19278
817.653	19236
817.793	19270
817.934	19312
818.075	19365
818.216	19346
818.356	19282
818.497	19118
818.638	18993
818.778	18970
818.919	19088
819.06	19000
819.2	19103
819.341	19221
819.481	19343
819.622	19285
819.762	19483
819.903	19335
820.043	19426
820.184	19278
820.324	19232
820.465	19434
820.605	19327
820.746	19354
820.886	19202
821.026	19240
821.167	19209
821.307	19381
821.447	19240
821.588	19114
821.728	18962
821.868	18882
822.008	18791
822.149	18753
822.289	18642
822.429	18479
822.569	18384
822.709	18353
822.849	18186
822.99	18254
823.13	18133
823.27	18140
823.41	17992
823.55	17901
823.69	17961
823.83	17931
823.97	17893
824.11	17809
824.25	17737
824.389	17714
824.529	17901
824.669	17737
824.809	17878
824.949	17767
825.089	17836
825.228	17707
825.368	17604
825.508	17543
825.648	17577
825.787	17558
825.927	17551
826.067	17448
826.206	17558
826.346	17448
826.485	17608
826.625	17421
826.765	17786
826.904	17524
827.044	17315
827.183	17318
827.323	17174
827.462	17261
827.601	17261
827.741	17227
827.88	17242
828.02	17109
828.159	17189
828.298	17216
828.437	17376
828.577	17250
828.716	17417
828.855	17162
828.994	16991
829.134	16984
829.273	17083
829.412	17006
829.551	17064
829.69	16987
829.829	17147
829.968	17121
830.107	17003
830.246	16999
830.385	16831
830.524	16908
830.663	16885
830.802	16759
830.941	16611
831.08	16641
831.219	16683
831.357	16664
831.496	16835
831.635	16656
831.774	16596
831.913	16672
832.051	16447
832.19	16409
832.329	16382
832.467	16371
832.606	16280
832.744	16200
832.883	16242
833.022	16265
833.16	16459
833.299	16402
833.437	16318
833.576	16451
833.714	16447
833.852	16246
833.991	16382
834.129	16523
834.267	16436
834.406	16417
834.544	16382
834.682	16402
834.821	16405
834.959	16622
835.097	16455
835.235	16417
835.373	16398
835.511	16447
835.65	16348
835.788	16185
835.926	16158
836.064	16139
836.202	16185
836.34	16318
836.478	16280
836.615	16322
836.753	16337
836.891	16432
837.029	16379
837.167	16318
837.305	16185
837.443	16173
837.58	16219
837.718	16272
837.856	16139
837.993	16196
838.131	16200
838.269	16188
838.406	16162
838.544	16059
838.681	15945
838.819	15857
838.956	15743
839.094	15679
839.231	15736
839.369	15895
839.506	16074
839.643	16032
839.781	15682
839.918	15698
840.055	15774
840.193	15694
840.33	15732
840.467	15679
840.604	15778
840.742	16048
840.879	15515
841.016	15629
841.153	15553
841.29	15873
841.427	15732
841.564	15884
841.701	15850
841.838	15713
841.975	15698
842.112	15705
842.249	15568
842.385	15507
842.522	15747
842.659	15564
842.796	15599
842.933	15519
843.069	15515
843.206	15511
843.343	15584
843.479	15584
843.616	15584
843.752	15431
843.889	15260
844.025	15485
844.162	15233
844.298	15374
844.435	15351
844.571	15260
844.708	15367
844.844	15492
844.98	15454
845.117	15393
845.253	15355
845.389	15226
845.525	15256
845.661	15135
845.798	15070
845.934	15173
846.07	15032
846.206	15184
846.342	15268
846.478	15135
846.614	14933
846.75	14880
846.886	14876
847.022	15009
847.158	14834
847.294	14933
847.429	14952
847.565	14792
847.701	15112
847.837	14610
847.972	14583
848.108	14575
848.244	14682
848.379	14526
848.515	14427
848.65	14374
848.786	14442
848.921	14469
849.057	14503
849.192	14598
849.328	14480
849.463	14461
849.598	14404
849.734	14434
849.869	14336
850.004	14324
850.14	14313
850.275	14317
850.41	14309
850.545	14172
850.68	14263
850.815	14278
850.95	14225
851.085	14377
851.22	14415
851.355	14370
851.49	14328
851.625	14161
851.76	14161
851.895	14092
852.03	14183
852.165	14282
852.299	14294
852.434	14275
852.569	14431
852.703	14248
852.838	14404
852.973	14389
853.107	14450
853.242	14237
853.376	14069
853.511	14005
853.645	14039
853.78	14176
853.914	14088
854.048	14119
854.183	14039
854.317	14081
854.451	14176
854.585	14054
854.72	14199
854.854	14233
854.988	14001
855.122	14062
855.256	14020
855.39	14054
855.524	14214
855.658	14149
855.792	14183
855.926	14149
856.06	14157
856.194	14309
856.327	14145
856.461	14084
856.595	14005
856.729	14005
856.862	14126
856.996	14263
857.13	14229
857.263	14229
857.397	14195
857.53	14103
857.664	14142
857.797	14214
857.931	14237
858.064	14172
858.197	14218
858.331	14088
858.464	14149
858.597	14096
858.731	14081
858.864	14096
858.997	14016
859.13	14191
859.263	14244
859.396	14187
859.529	14138
859.662	13997
859.795	14020
859.928	14153
860.061	14298
860.194	14351
860.327	14252
860.46	14088
860.592	14286
860.725	14244
860.858	14202
860.99	14161
861.123	14050
861.256	14039
861.388	14088
861.521	14872
861.653	13955
861.786	13928
861.918	13890
862.05	14043
862.183	14084
862.315	14157
862.447	14180
862.58	14096
862.712	13890
862.844	13780
862.976	14001
863.108	13993
863.24	14377
863.372	13822
863.504	13845
863.636	13849
863.768	13932
863.9	13875
864.032	13830
864.164	13902
864.296	13959
864.428	14035
864.559	14024
864.691	14119
864.823	13940
864.954	13898
865.086	13959
865.217	13890
865.349	13818
865.48	13868
865.612	13982
865.743	14035
865.875	13970
866.006	13799
866.137	13887
866.269	13875
866.4	13936
866.531	13955
866.662	13928
866.793	13921
866.924	13868
867.055	13963
867.186	13849
867.317	13864
867.448	13811
867.579	13849
867.71	13852
867.841	13769
867.972	13894
868.103	13947
868.233	13970
868.364	13928
868.495	13921
868.625	14081
868.756	14282
868.886	14050
869.017	14111
869.147	14309
869.278	14282
869.408	14172
869.539	14134
869.669	14237
869.799	14237
869.929	14320
870.06	14244
870.19	14511
870.32	14393
870.45	14503
870.58	14613
870.71	14712
870.84	14651
870.97	14579
871.1	14507
871.23	14678
871.36	14849
871.489	14655
871.619	14731
871.749	14762
871.879	14880
872.008	14849
872.138	14754
872.267	14781
872.397	14674
872.526	14518
872.656	14549
872.785	14575
872.915	14788
873.044	14804
873.173	14811
873.303	14826
873.432	14864
873.561	14891
873.69	14788
873.819	14838
873.948	14906
874.077	14819
874.206	14743
874.335	14792
874.464	15020
874.593	15142
874.722	14918
874.851	15184
874.979	15108
875.108	15195
875.237	15039
875.365	14994
875.494	15009
875.623	15176
875.751	15230
875.88	15169
876.008	15264
876.136	15439
876.265	15515
876.393	15637
876.521	15553
876.65	15698
876.778	15686
876.906	15469
877.034	15530
877.162	15542
877.29	15584
877.418	15629
877.546	15515
877.674	15568
877.802	15507
877.93	15519
878.058	15492
878.185	15378
878.313	15488
878.441	15580
878.568	15359
878.696	15603
878.824	15542
878.951	15610
879.079	15686
879.206	15876
879.333	15637
879.461	15561
879.588	15747
879.715	15766
879.842	15770
879.97	15686
880.097	15450
880.224	15310
880.351	15393
880.478	15416
880.605	15348
880.732	15393
880.859	15618
880.986	15473
881.112	15492
881.239	15355
881.366	15142
881.493	15108
881.619	15043
881.746	15089
881.872	15074
881.999	15058
882.125	15127
882.252	15165
882.378	14982
882.505	15298
882.631	14960
882.757	14941
882.883	14891
883.01	14956
883.136	14845
883.262	14750
883.388	14727
883.514	14845
883.64	14883
883.766	14781
883.892	14739
884.018	14674
884.143	14842
884.269	14925
884.395	14640
884.52	14590
884.646	14568
884.772	14427
884.897	14473
885.023	14602
885.148	14610
885.274	14811
885.399	14727
885.524	14560
885.65	14667
885.775	14587
885.9	14575
886.025	14663
886.15	14590
886.275	14507
886.4	14556
886.525	14564
886.65	14446
886.775	14473
886.9	14663
887.025	14883
887.149	14476
887.274	14415
887.399	14423
887.523	14415
887.648	14309
887.773	14332
887.897	14438
888.021	14476
888.146	14336
888.27	14530
888.395	14526
888.519	14419
888.643	14419
888.767	14484
888.891	14370
889.015	14278
889.139	14214
889.263	14221
889.387	14473
889.511	14522
889.635	14389
889.759	14240
889.883	14324
890.006	14256
890.13	14442
890.254	14225
890.377	14290
890.501	14084
890.624	14065
890.748	14111
890.871	14020
890.995	13928
891.118	13864
891.241	13970
891.364	13997
891.488	14027
891.611	13947
891.734	13986
891.857	13951
891.98	14065
892.103	14039
892.226	14020
892.349	13970
892.471	13833
892.594	13959
892.717	14039
892.839	13944
892.962	14012
893.085	13951
893.207	13951
893.33	13875
893.452	13921
893.575	14073
893.697	13986
893.819	14187
893.941	14240
894.064	14199
894.186	13951
894.308	13932
894.43	13997
894.552	14202
894.674	14111
894.796	13986
894.918	14058
895.04	14024
895.161	14084
895.283	14103
895.405	14001
895.526	14084
895.648	14161
895.769	14123
895.891	14126
896.012	14271
896.134	14206
896.255	14088
896.376	14107
896.498	14092
896.619	14206
896.74	14187
896.861	14259
896.982	14530
897.103	14640
897.224	14473
897.345	14412
897.466	14381
897.587	14404
897.708	14545
897.828	14442
897.949	14389
898.07	14172
898.19	14446
898.311	14480
898.431	14419
898.552	14560
898.672	14571
898.792	14606
898.913	14651
899.033	14446
899.153	14404
899.273	14332
899.393	14336
899.513	14370
899.633	14404
899.753	14385
899.873	14313
899.993	14412
900.113	14339
900.232	14366
900.352	14263
900.472	14267
900.591	14081
900.711	14176
900.83	14088
900.95	14267
901.069	14309
901.189	14107
901.308	13906
901.427	13894
901.546	13803
901.665	13951
901.784	13852
901.904	13742
902.023	13689
902.141	13495
902.26	13480
902.379	13544
902.498	13476
902.617	13346
902.735	13430
902.854	13540
902.973	13426
903.091	13145
903.21	13274
903.328	13228
903.446	13103
903.565	12989
903.683	13126
903.801	12981
903.919	12924
904.038	12935
904.156	12882
904.274	12913
904.392	12897
904.51	12814
904.627	12810
904.745	12932
904.863	12928
904.981	12555
905.098	12570
905.216	12486
905.334	12589
905.451	12631
905.569	12498
905.686	12582
905.803	12513
905.921	12289
906.038	12414
906.155	12330
906.272	12308
906.389	12270
906.506	12133
906.623	12148
906.74	12129
906.857	11961
906.974	11931
907.091	12148
907.208	12239
907.324	12247
907.441	12019
907.557	11889
907.674	11893
907.79	11783
907.907	11927
908.023	11904
908.139	11958
908.256	11794
908.372	11866
908.488	11786
908.604	11707
908.72	11703
908.836	11684
908.952	11646
909.068	11695
909.184	11722
909.3	11592
909.415	11756
909.531	11688
909.647	11444
909.762	11440
909.878	11376
909.993	11448
910.108	11505
910.224	11402
910.339	11414
910.454	11303
910.57	11269
910.685	11204
910.8	11497
910.915	11474
911.03	11376
911.145	11132
911.259	11090
911.374	11117
911.489	11006
911.604	11045
911.718	10839
911.833	10885
911.947	10782
912.062	10691
912.176	10816
912.291	10889
912.405	10850
912.519	11056
912.633	11113
912.748	10904
912.862	10949
912.976	10733
913.09	10740
913.204	10752
913.318	10805
913.431	10908
913.545	10858
913.659	10919
913.772	10831
913.886	10702
914	10649
914.113	10759
914.226	10778
914.34	10755
914.453	10580
914.566	10675
914.68	10611
914.793	10546
914.906	10459
915.019	10356
915.132	10284
915.245	10329
915.358	10462
915.47	10443
915.583	10360
915.696	10428
915.809	10558
915.921	10607
916.034	10379
916.146	10337
916.259	10344
916.371	10489
916.483	10405
916.595	10261
916.708	10371
916.82	10402
916.932	10253
917.044	10257
917.156	10341
917.268	10227
917.38	10257
917.491	10291
917.603	10253
917.715	10398
917.826	10322
917.938	10257
918.049	10090
918.161	10196
918.272	10367
918.384	10402
918.495	10272
918.606	10109
918.717	10006
918.828	10071
918.939	10063
919.05	10101
919.161	10162
919.272	9846
919.383	10040
919.494	10211
919.604	10337
919.715	10124
919.826	10029
919.936	10116
920.047	10253
920.157	10105
920.267	10329
920.378	10200
920.488	10230
920.598	10371
920.708	10527
920.818	10314
920.928	10344
921.038	10462
921.148	10512
921.258	10204
921.368	10124
921.477	9972
921.587	9968
921.697	9857
921.806	9972
921.916	9922
922.025	9713
922.134	9667
922.244	9637
922.353	9747
922.462	9614
922.571	9553
922.68	9374
922.789	9321
922.898	9447
923.007	9325
923.116	9435
923.224	9310
923.333	9348
923.442	9245
923.55	9264
923.659	9275
923.767	9340
923.876	9287
923.984	9332
924.092	9218
924.201	9233
924.309	9291
924.417	9340
924.525	9260
924.633	9188
924.741	10131
924.849	9017
924.956	9226
925.064	9074
925.172	8937
925.279	8933
925.387	9013
925.494	8998
925.602	9161
925.709	9135
925.816	9005
925.924	9104
926.031	9047
926.138	9104
926.245	9062
926.352	8937
926.459	9222
926.566	9093
926.673	9001
926.779	8929
926.886	8902
926.993	8758
927.099	8811
927.206	8697
927.312	8693
927.419	8883
927.525	8830
927.631	8838
927.737	8735
927.843	8640
927.95	8522
928.056	8632
928.162	8644
928.267	8670
928.373	9363
928.479	8708
928.585	8526
928.69	8659
928.796	8674
928.901	8560
929.007	8400
929.112	8621
929.218	8545
929.323	8446
929.428	8511
929.533	8625
929.638	8419
929.743	8438
929.848	8514
929.953	8518
930.058	8381
930.163	8225
930.267	8240
930.372	8385
930.477	8229
930.581	8434
930.685	8412
930.79	8176
930.894	8252
930.998	8202
931.103	8362
931.207	7967
931.311	7898
931.415	7856
931.519	7693
931.623	7734
