Data from test_V78500241_1823.txt Node
Date: Fri Mar 25 14:46:24 CST 2022
User: usil
Spectrometer: V785-0024
Trigger mode: 0
Integration Time (sec): 4.000000E-1
Scans to average: 1
Nonlinearity correction enabled: false
Boxcar width: 0
Storing dark spectrum: false
XAxis mode: Wavelengths
Number of Pixels in Spectrum: 1024
>>>>>Begin Spectral Data<<<<<
801.071	22105
801.214	21915
801.356	21869
801.499	21747
801.641	21469
801.783	21477
801.926	21561
802.068	21523
802.211	21435
802.353	21306
802.496	21165
802.638	20990
802.78	20956
802.923	20986
803.065	20887
803.208	20876
803.35	20921
803.492	20937
803.635	21077
803.777	20838
803.919	20902
804.061	21222
804.204	20948
804.346	20838
804.488	20807
804.63	20872
804.773	20648
804.915	20883
805.057	20826
805.199	20720
805.341	20826
805.483	20845
805.626	20876
805.768	20743
805.91	20788
806.052	20712
806.194	20777
806.336	20876
806.478	20773
806.62	20689
806.762	20845
806.904	20979
807.046	21268
807.188	21226
807.33	21104
807.472	21192
807.614	21005
807.756	21020
807.898	20967
808.04	20807
808.182	20872
808.324	20773
808.465	20929
808.607	21058
808.749	21119
808.891	21161
809.033	21466
809.174	21302
809.316	21104
809.458	21108
809.6	21116
809.741	21218
809.883	21169
810.025	21386
810.166	21275
810.308	21329
810.45	21329
810.591	21165
810.733	21096
810.875	20918
811.016	20796
811.158	20727
811.299	21013
811.441	21074
811.582	21062
811.724	20971
811.865	20819
812.007	20857
812.148	20960
812.29	20956
812.431	21283
812.573	21359
812.714	21241
812.855	21443
812.997	21530
813.138	21724
813.279	21679
813.421	21496
813.562	21294
813.703	21203
813.845	21077
813.986	20819
814.127	20670
814.268	20564
814.41	20499
814.551	20461
814.692	20552
814.833	20389
814.974	20480
815.115	20541
815.256	20256
815.397	20412
815.539	20290
815.68	20176
815.821	20111
815.962	20138
816.103	20161
816.244	20100
816.385	20043
816.526	19974
816.666	19860
816.807	19689
816.948	19757
817.089	19776
817.23	19738
817.371	19647
817.512	19594
817.653	19632
817.793	19635
817.934	19609
818.075	19632
818.216	19719
818.356	19643
818.497	19400
818.638	19270
818.778	19312
818.919	19327
819.06	19301
819.2	19491
819.341	19521
819.481	19521
819.622	19655
819.762	19845
819.903	19780
820.043	19791
820.184	19719
820.324	19643
820.465	19670
820.605	19609
820.746	19548
820.886	19430
821.026	19441
821.167	19586
821.307	19647
821.447	19480
821.588	19453
821.728	19209
821.868	19187
822.008	19008
822.149	19053
822.289	18913
822.429	18806
822.569	18688
822.709	18642
822.849	18517
822.99	18582
823.13	18509
823.27	18502
823.41	18353
823.55	18262
823.69	18395
823.83	18422
823.97	18292
824.11	18117
824.25	18091
824.389	18102
824.529	18273
824.669	18087
824.809	18163
824.949	18239
825.089	18152
825.228	18049
825.368	17874
825.508	17904
825.648	17965
825.787	17954
825.927	17855
826.067	17802
826.206	17836
826.346	17863
826.485	17802
826.625	17836
826.765	17863
826.904	17988
827.044	17649
827.183	17562
827.323	17642
827.462	17608
827.601	17512
827.741	17433
827.88	17573
828.02	17467
828.159	17520
828.298	17661
828.437	17611
828.577	17528
828.716	17703
828.855	17520
828.994	17288
829.134	17250
829.273	17364
829.412	17277
829.551	17235
829.69	17102
829.829	17383
829.968	17334
830.107	17364
830.246	17326
830.385	17280
830.524	17254
830.663	17064
830.802	17014
830.941	16942
831.08	17056
831.219	17090
831.357	16965
831.496	17204
831.635	16862
831.774	16778
831.913	16816
832.051	16725
832.19	16713
832.329	16774
832.467	16577
832.606	16603
832.744	16538
832.883	16573
833.022	16538
833.16	16687
833.299	16687
833.437	16725
833.576	16717
833.714	16683
833.852	16599
833.991	16630
834.129	16675
834.267	16733
834.406	16687
834.544	16809
834.682	16740
834.821	16713
834.959	16877
835.097	16607
835.235	16733
835.373	16706
835.511	16527
835.65	16637
835.788	16584
835.926	16367
836.064	16417
836.202	16462
836.34	16523
836.478	16641
836.615	16561
836.753	16584
836.891	16733
837.029	16653
837.167	16531
837.305	16523
837.443	16424
837.58	16455
837.718	16535
837.856	16470
837.993	16462
838.131	16497
838.269	16257
838.406	16363
838.544	16265
838.681	16086
838.819	16166
838.956	16021
839.094	15953
839.231	16048
839.369	16154
839.506	16371
839.643	16382
839.781	15964
839.918	15956
840.055	16044
840.193	16124
840.33	15941
840.467	16090
840.604	16063
840.742	16287
840.879	15918
841.016	15922
841.153	15880
841.29	16124
841.427	15994
841.564	16051
841.701	16002
841.838	15972
841.975	15907
842.112	15968
842.249	15682
842.385	15774
842.522	15998
842.659	15873
842.796	15713
842.933	15785
843.069	15728
843.206	15690
843.343	15831
843.479	15709
843.616	15774
843.752	15576
843.889	15557
844.025	15743
844.162	15523
844.298	15606
844.435	15603
844.571	15599
844.708	15622
844.844	15717
844.98	15770
845.117	15728
845.253	15625
845.389	15561
845.525	15576
845.661	15370
845.798	15370
845.934	15481
846.07	15294
846.206	15439
846.342	15492
846.478	15367
846.614	15112
846.75	15104
846.886	15070
847.022	15165
847.158	15252
847.294	15138
847.429	15218
847.565	15188
847.701	15275
847.837	14979
847.972	14754
848.108	14963
848.244	14883
848.379	14785
848.515	14773
848.65	14632
848.786	14712
848.921	14640
849.057	14788
849.192	14899
849.328	14769
849.463	14655
849.598	14716
849.734	14720
849.869	14507
850.004	14636
850.14	14533
850.275	14606
850.41	14393
850.545	14442
850.68	14457
850.815	14488
850.95	14518
851.085	14663
851.22	14648
851.355	14495
851.49	14484
851.625	14492
851.76	14488
851.895	14347
852.03	14294
852.165	14476
852.299	14423
852.434	14621
852.569	14476
852.703	14526
852.838	14549
852.973	14667
853.107	14579
853.242	14374
853.376	14351
853.511	14233
853.645	14286
853.78	14381
853.914	14366
854.048	14256
854.183	14286
854.317	14431
854.451	14518
854.585	14294
854.72	14259
854.854	14473
854.988	14206
855.122	14309
855.256	14172
855.39	14259
855.524	14408
855.658	14404
855.792	14473
855.926	14298
856.06	14366
856.194	14503
856.327	14336
856.461	14381
856.595	14282
856.729	14339
856.862	14408
856.996	14408
857.13	14473
857.263	14568
857.397	14526
857.53	14434
857.664	14518
857.797	14442
857.931	14457
858.064	14415
858.197	14503
858.331	14328
858.464	14339
858.597	14225
858.731	14343
858.864	14389
858.997	14362
859.13	14381
859.263	14336
859.396	14446
859.529	14385
859.662	14336
859.795	14309
859.928	14427
860.061	14530
860.194	14446
860.327	14355
860.46	14370
860.592	14492
860.725	14484
860.858	14541
860.99	14454
861.123	14305
861.256	14271
861.388	14465
861.521	15020
861.653	14343
861.786	14210
861.918	14221
862.05	14324
862.183	14332
862.315	14355
862.447	14469
862.58	14199
862.712	14263
862.844	14058
862.976	14107
863.108	14138
863.24	14465
863.372	14145
863.504	14180
863.636	14096
863.768	14237
863.9	14142
864.032	14096
864.164	14058
864.296	14286
864.428	14259
864.559	14195
864.691	14320
864.823	14248
864.954	14130
865.086	14161
865.217	14218
865.349	14126
865.48	14119
865.612	14126
865.743	14294
865.875	14107
866.006	14191
866.137	14168
866.269	14183
866.4	14142
866.531	14161
866.662	14073
866.793	14065
866.924	14107
867.055	14134
867.186	14081
867.317	14123
867.448	14073
867.579	14119
867.71	14046
867.841	13970
867.972	14153
868.103	14111
868.233	14252
868.364	14107
868.495	14191
868.625	14366
868.756	14461
868.886	14370
869.017	14336
869.147	14511
869.278	14533
869.408	14408
869.539	14324
869.669	14454
869.799	14370
869.929	14495
870.06	14450
870.19	14659
870.32	14587
870.45	14712
870.58	14838
870.71	14883
870.84	14857
870.97	14769
871.1	14788
871.23	14914
871.36	14948
871.489	14823
871.619	14849
871.749	14948
871.879	14956
872.008	15195
872.138	14906
872.267	14948
872.397	14834
872.526	14845
872.656	14811
872.785	14800
872.915	14975
873.044	15142
873.173	15005
873.303	15097
873.432	15020
873.561	15093
873.69	15081
873.819	14994
873.948	15089
874.077	15085
874.206	14994
874.335	15070
874.464	15279
874.593	15340
874.722	15298
874.851	15291
874.979	15393
875.108	15393
875.237	15214
875.365	15294
875.494	15416
875.623	15359
875.751	15233
875.88	15298
876.008	15477
876.136	15576
876.265	15857
876.393	15972
876.521	15766
876.65	15888
876.778	15759
876.906	15671
877.034	15591
877.162	15747
877.29	15736
877.418	15751
877.546	15732
877.674	15762
877.802	15759
877.93	15717
878.058	15690
878.185	15686
878.313	15781
878.441	15682
878.568	15576
878.696	15610
878.824	15892
878.951	15793
879.079	16029
879.206	16013
879.333	15922
879.461	15819
879.588	15861
879.715	15903
879.842	16059
879.97	15789
880.097	15614
880.224	15644
880.351	15584
880.478	15679
880.605	15511
880.732	15545
880.859	15785
880.986	15610
881.112	15561
881.239	15477
881.366	15477
881.493	15317
881.619	15233
881.746	15313
881.872	15230
881.999	15294
882.125	15241
882.252	15408
882.378	15264
882.505	15294
882.631	15351
882.757	15119
882.883	15077
883.01	15074
883.136	15062
883.262	14921
883.388	14948
883.514	15138
883.64	15135
883.766	14982
883.892	14891
884.018	14963
884.143	15020
884.269	15138
884.395	14830
884.52	14750
884.646	14746
884.772	14743
884.897	14644
885.023	14762
885.148	14895
885.274	14918
885.399	14853
885.524	14823
885.65	14815
885.775	14773
885.9	14815
886.025	15013
886.15	14883
886.275	14743
886.4	14640
886.525	14804
886.65	14724
886.775	14731
886.9	14845
887.025	15013
887.149	14838
887.274	14655
887.399	14602
887.523	14636
887.648	14503
887.773	14590
887.897	14689
888.021	14678
888.146	14587
888.27	14697
888.395	14667
888.519	14682
888.643	14674
888.767	14644
888.891	14560
889.015	14492
889.139	14526
889.263	14518
889.387	14644
889.511	14678
889.635	14560
889.759	14374
889.883	14530
890.006	14480
890.13	14507
890.254	14412
890.377	14370
890.501	14412
890.624	14263
890.748	14400
890.871	14183
890.995	14111
891.118	13989
891.241	14229
891.364	14134
891.488	14332
891.611	14240
891.734	14199
891.857	14256
891.98	14183
892.103	14248
892.226	14180
892.349	14119
892.471	14073
892.594	14119
892.717	14191
892.839	14149
892.962	14221
893.085	14248
893.207	14149
893.33	14126
893.452	14153
893.575	14218
893.697	14081
893.819	14393
893.941	14343
894.064	14324
894.186	14157
894.308	14123
894.43	14267
894.552	14408
894.674	14286
894.796	14130
894.918	14214
895.04	14187
895.161	14328
895.283	14339
895.405	14252
895.526	14282
895.648	14267
895.769	14278
895.891	14415
896.012	14438
896.134	14282
896.255	14305
896.376	14267
896.498	14317
896.619	14415
896.74	14347
896.861	14347
896.982	14636
897.103	14815
897.224	14640
897.345	14610
897.466	14511
897.587	14533
897.708	14697
897.828	14689
897.949	14594
898.07	14594
898.19	14670
898.311	14762
898.431	14617
898.552	14670
898.672	14735
898.792	14746
898.913	14674
899.033	14712
899.153	14545
899.273	14476
899.393	14434
899.513	14571
899.633	14518
899.753	14552
899.873	14579
899.993	14556
900.113	14621
900.232	14503
900.352	14571
900.472	14446
900.591	14389
900.711	14404
900.83	14370
900.95	14514
901.069	14499
901.189	14290
901.308	14115
901.427	14103
901.546	14123
901.665	14077
901.784	14092
901.904	14012
902.023	13898
902.141	13788
902.26	13666
902.379	13734
902.498	13689
902.617	13559
902.735	13715
902.854	13620
902.973	13601
903.091	13320
903.21	13392
903.328	13327
903.446	13232
903.565	13255
903.683	13255
903.801	13114
903.919	13133
904.038	13179
904.156	12989
904.274	13110
904.392	13027
904.51	12958
904.627	13050
904.745	13137
904.863	13091
904.981	12859
905.098	12692
905.216	12798
905.334	12757
905.451	12741
905.569	12719
905.686	12730
905.803	12730
905.921	12627
906.038	12608
906.155	12612
906.272	12422
906.389	12509
906.506	12315
906.623	12342
906.74	12235
906.857	12243
906.974	12224
907.091	12399
907.208	12414
907.324	12388
907.441	12262
907.557	12060
907.674	12129
907.79	12045
907.907	12057
908.023	12053
908.139	12102
908.256	12045
908.372	12060
908.488	11965
908.604	11920
908.72	11847
908.836	11840
908.952	11805
909.068	11843
909.184	11996
909.3	11870
909.415	11912
909.531	11775
909.647	11672
909.762	11619
909.878	11566
909.993	11570
910.108	11604
910.224	11551
910.339	11611
910.454	11554
910.57	11444
910.685	11311
910.8	11619
910.915	11615
911.03	11486
911.145	11269
911.259	11216
911.374	11258
911.489	11170
911.604	11121
911.718	11006
911.833	11117
911.947	10949
912.062	10847
912.176	11071
912.291	11056
912.405	10995
912.519	11265
912.633	11280
912.748	11086
912.862	11067
912.976	10934
913.09	10831
913.204	10908
913.318	10854
913.431	10995
913.545	10930
913.659	11071
913.772	10942
913.886	10805
914	10698
914.113	10885
914.226	10938
914.34	10896
914.453	10839
914.566	10885
914.68	10767
914.793	10706
914.906	10588
915.019	10519
915.132	10447
915.245	10569
915.358	10554
915.47	10523
915.583	10596
915.696	10626
915.809	10668
915.921	10698
916.034	10577
916.146	10459
916.259	10382
916.371	10573
916.483	10561
916.595	10443
916.708	10558
916.82	10531
916.932	10497
917.044	10497
917.156	10405
917.268	10382
917.38	10341
917.491	10390
917.603	10398
917.715	10398
917.826	10421
917.938	10337
918.049	10253
918.161	10421
918.272	10523
918.384	10516
918.495	10382
918.606	10291
918.717	10207
918.828	10246
918.939	10242
919.05	10128
919.161	10204
919.272	10036
919.383	10067
919.494	10379
919.604	10459
919.715	10219
919.826	10173
919.936	10291
920.047	10341
920.157	10230
920.267	10447
920.378	10303
920.488	10299
920.598	10500
920.708	10607
920.818	10421
920.928	10390
921.038	10675
921.148	10558
921.258	10276
921.368	10166
921.477	10207
921.587	10173
921.697	10021
921.806	10166
921.916	10006
922.025	9873
922.134	9774
922.244	9831
922.353	9915
922.462	9732
922.571	9686
922.68	9561
922.789	9504
922.898	9530
923.007	9439
923.116	9576
923.224	9603
923.333	9538
923.442	9370
923.55	9313
923.659	9428
923.767	9458
923.876	9351
923.984	9454
924.092	9344
924.201	9424
924.309	9443
924.417	9348
924.525	9332
924.633	9397
924.741	10272
924.849	9165
924.956	9321
925.064	9211
925.172	9055
925.279	9161
925.387	9211
925.494	9173
925.602	9310
925.709	9222
925.816	9127
925.924	9195
926.031	9230
926.138	9100
926.245	9226
926.352	9108
926.459	9287
926.566	9351
926.673	9127
926.779	8975
926.886	9024
926.993	8853
927.099	8864
927.206	8842
927.312	8845
927.419	8952
927.525	8872
927.631	8963
927.737	8785
927.843	8872
927.95	8648
928.056	8739
928.162	8815
928.267	8868
928.373	9405
928.479	8861
928.585	8693
928.69	8731
928.796	8819
928.901	8693
929.007	8545
929.112	8705
929.218	8697
929.323	8587
929.428	8560
929.533	8773
929.638	8503
929.743	8560
929.848	8636
929.953	8670
930.058	8503
930.163	8320
930.267	8366
930.372	8511
930.477	8396
930.581	8568
930.685	8389
930.79	8244
930.894	8290
930.998	8294
931.103	8492
931.207	8081
931.311	8031
931.415	7993
931.519	7772
931.623	7818
