Data from test_V78500241_992.txt Node
Date: Fri Mar 25 14:40:37 CST 2022
User: usil
Spectrometer: V785-0024
Trigger mode: 0
Integration Time (sec): 4.000000E-1
Scans to average: 1
Nonlinearity correction enabled: false
Boxcar width: 0
Storing dark spectrum: false
XAxis mode: Wavelengths
Number of Pixels in Spectrum: 1024
>>>>>Begin Spectral Data<<<<<
801.071	23204
801.214	23041
801.356	22786
801.499	22725
801.641	22577
801.783	22557
801.926	22523
802.068	22363
802.211	22443
802.353	22249
802.496	21987
802.638	22013
802.78	21975
802.923	21869
803.065	21793
803.208	21873
803.35	21873
803.492	21892
803.635	22055
803.777	21854
803.919	21983
804.061	22196
804.204	21934
804.346	21854
804.488	21732
804.63	21781
804.773	21705
804.915	21724
805.057	22040
805.199	21789
805.341	22074
805.483	21994
805.626	21899
805.768	21759
805.91	21812
806.052	21736
806.194	21679
806.336	21964
806.478	22002
806.62	21823
806.762	21960
806.904	22169
807.046	22371
807.188	22379
807.33	22337
807.472	22424
807.614	22367
807.756	22390
807.898	22405
808.04	22405
808.182	22554
808.324	22653
808.465	22934
808.607	23197
808.749	23471
808.891	23543
809.033	23687
809.174	23535
809.316	23280
809.458	23132
809.6	22873
809.741	22919
809.883	22603
810.025	22763
810.166	22706
810.308	22626
810.45	22455
810.591	22421
810.733	22287
810.875	22257
811.016	22154
811.158	22025
811.299	22257
811.441	22268
811.582	22211
811.724	22025
811.865	21941
812.007	22051
812.148	22006
812.29	22048
812.431	22303
812.573	22337
812.714	22481
812.855	22474
812.997	22634
813.138	22771
813.279	22679
813.421	22599
813.562	22409
813.703	22375
813.845	22230
813.986	21956
814.127	21785
814.268	21633
814.41	21515
814.551	21705
814.692	21534
814.833	21545
814.974	21447
815.115	21542
815.256	21348
815.397	21340
815.539	21355
815.68	21367
815.821	21287
815.962	21310
816.103	21192
816.244	21157
816.385	21013
816.526	20963
816.666	20929
816.807	20670
816.948	20906
817.089	20830
817.23	20746
817.371	20815
817.512	20720
817.653	20651
817.793	20663
817.934	20743
818.075	20830
818.216	20686
818.356	20765
818.497	20632
818.638	20457
818.778	20465
818.919	20396
819.06	20450
819.2	20495
819.341	20602
819.481	20450
819.622	20727
819.762	20952
819.903	20712
820.043	20731
820.184	20720
820.324	20705
820.465	20830
820.605	20724
820.746	20571
820.886	20564
821.026	20606
821.167	20651
821.307	20686
821.447	20533
821.588	20454
821.728	20305
821.868	20202
822.008	20138
822.149	20035
822.289	20016
822.429	19986
822.569	19738
822.709	19635
822.849	19689
822.99	19567
823.13	19556
823.27	19502
823.41	19396
823.55	19266
823.69	19438
823.83	19297
823.97	19187
824.11	19152
824.25	19122
824.389	19145
824.529	19145
824.669	19110
824.809	19285
824.949	19255
825.089	19168
825.228	19171
825.368	18852
825.508	18909
825.648	18932
825.787	19015
825.927	18996
826.067	18878
826.206	18935
826.346	18958
826.485	18829
826.625	18806
826.765	18935
826.904	18890
827.044	18684
827.183	18707
827.323	18555
827.462	18783
827.601	18601
827.741	18585
827.88	18544
828.02	18513
828.159	18597
828.298	18650
828.437	18684
828.577	18589
828.716	18707
828.855	18639
828.994	18464
829.134	18380
829.273	18426
829.412	18346
829.551	18338
829.69	18372
829.829	18330
829.968	18323
830.107	18418
830.246	18418
830.385	18319
830.524	18300
830.663	18159
830.802	18091
830.941	17984
831.08	18095
831.219	18102
831.357	18091
831.496	18174
831.635	18057
831.774	17786
831.913	17832
832.051	17783
832.19	17775
832.329	17794
832.467	17745
832.606	17741
832.744	17699
832.883	17665
833.022	17630
833.16	17745
833.299	17760
833.437	17741
833.576	17790
833.714	17779
833.852	17676
833.991	17783
834.129	17813
834.267	17866
834.406	17916
834.544	17813
834.682	17737
834.821	17733
834.959	17786
835.097	17657
835.235	17703
835.373	17661
835.511	17680
835.65	17680
835.788	17558
835.926	17383
836.064	17421
836.202	17379
836.34	17646
836.478	17703
836.615	17539
836.753	17551
836.891	17691
837.029	17699
837.167	17528
837.305	17524
837.443	17467
837.58	17292
837.718	17455
837.856	17455
837.993	17356
838.131	17463
838.269	17269
838.406	17341
838.544	17318
838.681	17052
838.819	17216
838.956	16987
839.094	16923
839.231	16968
839.369	17102
839.506	17341
839.643	17170
839.781	16999
839.918	16873
840.055	16976
840.193	16968
840.33	16915
840.467	16949
840.604	16980
840.742	17174
840.879	16843
841.016	16980
841.153	16759
841.29	16946
841.427	17014
841.564	17025
841.701	17003
841.838	16972
841.975	16873
842.112	16873
842.249	16763
842.385	16710
842.522	16919
842.659	16786
842.796	16672
842.933	16626
843.069	16752
843.206	16736
843.343	16706
843.479	16691
843.616	16687
843.752	16653
843.889	16531
844.025	16637
844.162	16504
844.298	16618
844.435	16531
844.571	16493
844.708	16653
844.844	16694
844.98	16771
845.117	16702
845.253	16512
845.389	16630
845.525	16946
845.661	17109
845.798	17444
845.934	17790
846.07	17961
846.206	17813
846.342	17680
846.478	17345
846.614	16748
846.75	16436
846.886	16310
847.022	16322
847.158	16215
847.294	16150
847.429	16154
847.565	16173
847.701	16322
847.837	15682
847.972	15759
848.108	15838
848.244	15979
848.379	15705
848.515	15553
848.65	15614
848.786	15641
848.921	15728
849.057	15926
849.192	15755
849.328	15686
849.463	15625
849.598	15667
849.734	15572
849.869	15504
850.004	15473
850.14	15519
850.275	15462
850.41	15370
850.545	15424
850.68	15420
850.815	15420
850.95	15382
851.085	15652
851.22	15485
851.355	15447
851.49	15412
851.625	15374
851.76	15420
851.895	15393
852.03	15260
852.165	15359
852.299	15412
852.434	15492
852.569	15435
852.703	15431
852.838	15477
852.973	15584
853.107	15466
853.242	15359
853.376	15313
853.511	15131
853.645	15207
853.78	15389
853.914	15230
854.048	15222
854.183	15127
854.317	15336
854.451	15359
854.585	15313
854.72	15211
854.854	15336
854.988	15245
855.122	15321
855.256	15138
855.39	15226
855.524	15325
855.658	15340
855.792	15260
855.926	15233
856.06	15241
856.194	15344
856.327	15264
856.461	15241
856.595	15237
856.729	15214
856.862	15389
856.996	15374
857.13	15435
857.263	15321
857.397	15382
857.53	15176
857.664	15382
857.797	15313
857.931	15393
858.064	15283
858.197	15268
858.331	15287
858.464	15184
858.597	15184
858.731	15218
858.864	15192
858.997	15283
859.13	15370
859.263	15192
859.396	15291
859.529	15192
859.662	15199
859.795	15233
859.928	15378
860.061	15363
860.194	15389
860.327	15184
860.46	15325
860.592	15374
860.725	15382
860.858	15321
860.99	15157
861.123	15123
861.256	15294
861.388	15272
861.521	15915
861.653	15184
861.786	15142
861.918	15062
862.05	15230
862.183	15306
862.315	15268
862.447	15291
862.58	15119
862.712	15085
862.844	15062
862.976	15085
863.108	15222
863.24	15466
863.372	14982
863.504	14990
863.636	15066
863.768	15036
863.9	15013
864.032	14861
864.164	15104
864.296	15020
864.428	15077
864.559	15058
864.691	15093
864.823	15051
864.954	15108
865.086	14998
865.217	15058
865.349	14986
865.48	14994
865.612	15024
865.743	15203
865.875	14918
866.006	14853
866.137	15013
866.269	14933
866.4	15028
866.531	15039
866.662	14864
866.793	14925
866.924	14883
867.055	15051
867.186	14967
867.317	14963
867.448	14941
867.579	14979
867.71	14864
867.841	14891
867.972	14971
868.103	14998
868.233	14994
868.364	15036
868.495	15131
868.625	15207
868.756	15294
868.886	15195
869.017	15184
869.147	15359
869.278	15329
869.408	15287
869.539	15237
869.669	15272
869.799	15310
869.929	15386
870.06	15325
870.19	15553
870.32	15530
870.45	15542
870.58	15644
870.71	15648
870.84	15804
870.97	15606
871.1	15568
871.23	15736
871.36	15831
871.489	15793
871.619	15675
871.749	15823
871.879	15884
872.008	15926
872.138	15816
872.267	15774
872.397	15698
872.526	15629
872.656	15591
872.785	15568
872.915	15850
873.044	15915
873.173	15895
873.303	15937
873.432	15998
873.561	15968
873.69	15873
873.819	15899
873.948	16025
874.077	15873
874.206	15884
874.335	15994
874.464	16090
874.593	16169
874.722	16124
874.851	16287
874.979	16325
875.108	16238
875.237	16173
875.365	16067
875.494	16086
875.623	16284
875.751	16287
875.88	16280
876.008	16344
876.136	16375
876.265	16656
876.393	16740
876.521	16721
876.65	16710
876.778	16717
876.906	16664
877.034	16607
877.162	16588
877.29	16561
877.418	16577
877.546	16721
877.674	16630
877.802	16656
877.93	16713
878.058	16592
878.185	16603
878.313	16626
878.441	16691
878.568	16706
878.696	16698
878.824	16869
878.951	17022
879.079	17083
879.206	17368
879.333	17395
879.461	17429
879.588	17474
879.715	17642
879.842	17573
879.97	17311
880.097	16972
880.224	16835
880.351	16915
880.478	16767
880.605	16702
880.732	16653
880.859	16892
880.986	16710
881.112	16694
881.239	16489
881.366	16474
881.493	16223
881.619	16322
881.746	16318
881.872	16310
881.999	16318
882.125	16379
882.252	16382
882.378	16360
882.505	16466
882.631	16344
882.757	16105
882.883	16265
883.01	16120
883.136	16051
883.262	15934
883.388	15911
883.514	16086
883.64	16169
883.766	16124
883.892	15956
884.018	15861
884.143	16120
884.269	16276
884.395	16036
884.52	15804
884.646	15812
884.772	15736
884.897	15736
885.023	15873
885.148	15819
885.274	15854
885.399	15903
885.524	15781
885.65	15766
885.775	15747
885.9	15739
886.025	15835
886.15	15831
886.275	15709
886.4	15663
886.525	15679
886.65	15679
886.775	15614
886.9	15964
887.025	15991
887.149	15751
887.274	15584
887.399	15519
887.523	15591
887.648	15439
887.773	15233
887.897	15564
888.021	15576
888.146	15481
888.27	15568
888.395	15614
888.519	15488
888.643	15576
888.767	15504
888.891	15496
889.015	15332
889.139	15344
889.263	15397
889.387	15447
889.511	15511
889.635	15386
889.759	15252
889.883	15291
890.006	15389
890.13	15447
890.254	15306
890.377	15252
890.501	15097
890.624	15135
890.748	15214
890.871	15085
890.995	14971
891.118	14876
891.241	14994
891.364	14971
891.488	15020
891.611	14998
891.734	14952
891.857	15081
891.98	15089
892.103	15017
892.226	15055
892.349	14967
892.471	14796
892.594	14948
892.717	15028
892.839	15055
892.962	14933
893.085	15047
893.207	14963
893.33	14819
893.452	14769
893.575	15039
893.697	14967
893.819	15184
893.941	15047
894.064	15116
894.186	14857
894.308	14887
894.43	15036
894.552	15169
894.674	15051
894.796	14971
894.918	14960
895.04	14929
895.161	15062
895.283	15131
895.405	14960
895.526	14994
895.648	15066
895.769	15097
895.891	15062
896.012	15188
896.134	15112
896.255	15100
896.376	15055
896.498	15116
896.619	15070
896.74	15123
896.861	15127
896.982	15481
897.103	15610
897.224	15386
897.345	15393
897.466	15222
897.587	15405
897.708	15370
897.828	15435
897.949	15245
898.07	15249
898.19	15332
898.311	15587
898.431	15405
898.552	15439
898.672	15481
898.792	15618
898.913	15549
899.033	15237
899.153	15264
899.273	15180
899.393	15226
899.513	15408
899.633	15329
899.753	15279
899.873	15287
899.993	15279
900.113	15302
900.232	15317
900.352	15310
900.472	15173
900.591	15070
900.711	15161
900.83	15051
900.95	15302
901.069	15332
901.189	15051
901.308	14853
901.427	14899
901.546	14769
901.665	14921
901.784	14921
901.904	14659
902.023	14648
902.141	14495
902.26	14305
902.379	14541
902.498	14347
902.617	14374
902.735	14393
902.854	14415
902.973	14298
903.091	14183
903.21	14096
903.328	14096
903.446	14054
903.565	13898
903.683	13989
903.801	13795
903.919	13940
904.038	13864
904.156	13723
904.274	13822
904.392	13712
904.51	13685
904.627	13772
904.745	13799
904.863	13868
904.981	13510
905.098	13392
905.216	13422
905.334	13472
905.451	13460
905.569	13354
905.686	13438
905.803	13514
905.921	13263
906.038	13400
906.155	13225
906.272	13149
906.389	13137
906.506	13015
906.623	12993
906.74	12966
906.857	12894
906.974	12970
907.091	13034
907.208	13152
907.324	13042
907.441	12920
907.557	12673
907.674	12681
907.79	12662
907.907	12715
908.023	12764
908.139	12806
908.256	12684
908.372	12620
908.488	12631
908.604	12525
908.72	12429
908.836	12486
908.952	12460
909.068	12490
909.184	12578
909.3	12441
909.415	12658
909.531	12540
909.647	12304
909.762	12136
909.878	12281
909.993	12216
910.108	12254
910.224	12213
910.339	12266
910.454	12190
910.57	12201
910.685	12072
910.8	12334
910.915	12304
911.03	12125
911.145	11996
911.259	11965
911.374	11939
911.489	11840
911.604	11783
911.718	11726
911.833	11596
911.947	11520
912.062	11474
912.176	11672
912.291	11710
912.405	11558
912.519	11843
912.633	11775
912.748	11722
912.862	11653
912.976	11604
913.09	11417
913.204	11478
913.318	11493
913.431	11638
913.545	11535
913.659	11668
913.772	11539
913.886	11452
914	11414
914.113	11512
914.226	11512
914.34	11497
914.453	11292
914.566	11444
914.68	11360
914.793	11376
914.906	11174
915.019	11162
915.132	11014
915.245	11102
915.358	11170
915.47	11128
915.583	11128
915.696	11216
915.809	11197
915.921	11292
916.034	11128
916.146	11003
916.259	11079
916.371	11296
916.483	11151
916.595	11033
916.708	11052
916.82	11014
916.932	11025
917.044	11041
917.156	11003
917.268	10896
917.38	10930
917.491	10953
917.603	10961
917.715	11105
917.826	11052
917.938	10889
918.049	10790
918.161	10968
918.272	11064
918.384	11037
918.495	10900
918.606	10809
918.717	10752
918.828	10847
918.939	10854
919.05	10702
919.161	10786
919.272	10637
919.383	10710
919.494	10885
919.604	11033
919.715	10820
919.826	10752
919.936	10767
920.047	10923
920.157	10862
920.267	10923
920.378	10774
920.488	10714
920.598	10987
920.708	11071
920.818	10949
920.928	11060
921.038	11155
921.148	11048
921.258	10847
921.368	10793
921.477	10740
921.587	10634
921.697	10523
921.806	10710
921.916	10535
922.025	10344
922.134	10299
922.244	10333
922.353	10390
922.462	10249
922.571	10166
922.68	10101
922.789	10017
922.898	10051
923.007	10017
923.116	10101
923.224	9975
923.333	10048
923.442	9895
923.55	9857
923.659	9926
923.767	9972
923.876	9888
923.984	10006
924.092	9895
924.201	9865
924.309	9880
924.417	9819
924.525	9812
924.633	9835
924.741	10694
924.849	9648
924.956	9850
925.064	9606
925.172	9648
925.279	9644
925.387	9614
925.494	9682
925.602	9774
925.709	9728
925.816	9526
925.924	9618
926.031	9682
926.138	9660
926.245	9720
926.352	9660
926.459	9713
926.566	9705
926.673	9690
926.779	9443
926.886	9530
926.993	9363
927.099	9332
927.206	9370
927.312	9294
927.419	9393
927.525	9458
927.631	9389
927.737	9302
927.843	9275
927.95	9154
928.056	9218
928.162	9310
928.267	9211
928.373	9861
928.479	9275
928.585	9135
928.69	9233
928.796	9237
928.901	9165
929.007	9058
929.112	9146
929.218	9066
929.323	9013
929.428	9039
929.533	9173
929.638	8994
929.743	9009
929.848	9108
929.953	9005
930.058	8952
930.163	8804
930.267	8834
930.372	8986
930.477	8804
930.581	9028
930.685	8864
930.79	8777
930.894	8724
930.998	8731
931.103	8849
931.207	8507
931.311	8511
931.415	8450
931.519	8237
931.623	8233
