Data from test_V78500241_3630.txt Node
Date: Fri Mar 25 14:58:59 CST 2022
User: usil
Spectrometer: V785-0024
Trigger mode: 0
Integration Time (sec): 4.000000E-1
Scans to average: 1
Nonlinearity correction enabled: false
Boxcar width: 0
Storing dark spectrum: false
XAxis mode: Wavelengths
Number of Pixels in Spectrum: 1024
>>>>>Begin Spectral Data<<<<<
801.071	21926
801.214	21671
801.356	21587
801.499	21496
801.641	21310
801.783	21264
801.926	21332
802.068	21199
802.211	21157
802.353	21127
802.496	20781
802.638	20796
802.78	20758
802.923	20606
803.065	20632
803.208	20564
803.35	20625
803.492	20644
803.635	20773
803.777	20655
803.919	20670
804.061	21005
804.204	20613
804.346	20431
804.488	20408
804.63	20598
804.773	20442
804.915	20412
805.057	20575
805.199	20499
805.341	20568
805.483	20743
805.626	20575
805.768	20507
805.91	20552
806.052	20541
806.194	20381
806.336	20693
806.478	20511
806.62	20511
806.762	20602
806.904	20697
807.046	20876
807.188	20765
807.33	20834
807.472	20785
807.614	20686
807.756	20800
807.898	20655
808.04	20541
808.182	20514
808.324	20514
808.465	20583
808.607	20735
808.749	20872
808.891	20868
809.033	21089
809.174	20967
809.316	20979
809.458	20788
809.6	20785
809.741	20849
809.883	20948
810.025	21009
810.166	20941
810.308	20967
810.45	20891
810.591	20861
810.733	20758
810.875	20667
811.016	20571
811.158	20655
811.299	20617
811.441	20716
811.582	20689
811.724	20606
811.865	20674
812.007	20640
812.148	20564
812.29	20689
812.431	20758
812.573	21051
812.714	21043
812.855	21154
812.997	21214
813.138	21298
813.279	21325
813.421	21142
813.562	21119
813.703	20868
813.845	20701
813.986	20556
814.127	20206
814.268	20191
814.41	20240
814.551	20252
814.692	20187
814.833	20058
814.974	20069
815.115	20294
815.256	19993
815.397	20084
815.539	20012
815.68	19894
815.821	19795
815.962	19818
816.103	19841
816.244	19738
816.385	19734
816.526	19605
816.666	19559
816.807	19297
816.948	19422
817.089	19502
817.23	19381
817.371	19232
817.512	19240
817.653	19152
817.793	19289
817.934	19304
818.075	19350
818.216	19316
818.356	19289
818.497	19076
818.638	18973
818.778	18996
818.919	19012
819.06	18878
819.2	19148
819.341	19187
819.481	19244
819.622	19266
819.762	19396
819.903	19419
820.043	19392
820.184	19072
820.324	19304
820.465	19373
820.605	19289
820.746	19187
820.886	19179
821.026	19297
821.167	19221
821.307	19308
821.447	19171
821.588	19088
821.728	18951
821.868	18768
822.008	18661
822.149	18726
822.289	18616
822.429	18426
822.569	18395
822.709	18403
822.849	18251
822.99	18186
823.13	18194
823.27	18091
823.41	18045
823.55	17923
823.69	18110
823.83	17961
823.97	17889
824.11	17649
824.25	17661
824.389	17653
824.529	17821
824.669	17729
824.809	17813
824.949	17760
825.089	17775
825.228	17646
825.368	17573
825.508	17558
825.648	17459
825.787	17524
825.927	17570
826.067	17497
826.206	17448
826.346	17608
826.485	17440
826.625	17532
826.765	17604
826.904	17486
827.044	17273
827.183	17395
827.323	17265
827.462	17330
827.601	17162
827.741	17223
827.88	17200
828.02	17181
828.159	17181
828.298	17261
828.437	17261
828.577	17083
828.716	17391
828.855	17162
828.994	16904
829.134	17102
829.273	17056
829.412	16885
829.551	16908
829.69	16949
829.829	16999
829.968	17151
830.107	17029
830.246	16908
830.385	16904
830.524	16896
830.663	16854
830.802	16725
830.941	16611
831.08	16493
831.219	16641
831.357	16580
831.496	16771
831.635	16679
831.774	16485
831.913	16341
832.051	16394
832.19	16356
832.329	16535
832.467	16295
832.606	16276
832.744	16242
832.883	16287
833.022	16219
833.16	16402
833.299	16280
833.437	16382
833.576	16363
833.714	16363
833.852	16363
833.991	16440
834.129	16481
834.267	16432
834.406	16352
834.544	16379
834.682	16329
834.821	16402
834.959	16500
835.097	16356
835.235	16538
835.373	16478
835.511	16367
835.65	16234
835.788	16318
835.926	16120
836.064	16139
836.202	16067
836.34	16333
836.478	16253
836.615	16215
836.753	16280
836.891	16314
837.029	16310
837.167	16249
837.305	16185
837.443	16036
837.58	16162
837.718	16226
837.856	16192
837.993	16112
838.131	16226
838.269	16112
838.406	16063
838.544	16025
838.681	15804
838.819	15865
838.956	15743
839.094	15709
839.231	15778
839.369	15892
839.506	16147
839.643	15888
839.781	15671
839.918	15675
840.055	15717
840.193	15686
840.33	15637
840.467	15720
840.604	15679
840.742	15956
840.879	15481
841.016	15515
841.153	15606
841.29	15812
841.427	15823
841.564	15736
841.701	15709
841.838	15667
841.975	15576
842.112	15648
842.249	15557
842.385	15485
842.522	15667
842.659	15629
842.796	15466
842.933	15443
843.069	15431
843.206	15435
843.343	15511
843.479	15504
843.616	15504
843.752	15302
843.889	15222
844.025	15363
844.162	15252
844.298	15443
844.435	15275
844.571	15279
844.708	15332
844.844	15428
844.98	15447
845.117	15412
845.253	15260
845.389	15203
845.525	15123
845.661	15188
845.798	15138
845.934	15237
846.07	15051
846.206	15237
846.342	15264
846.478	15188
846.614	14891
846.75	14838
846.886	14773
847.022	14967
847.158	14765
847.294	14960
847.429	14914
847.565	14830
847.701	15066
847.837	14667
847.972	14579
848.108	14792
848.244	14739
848.379	14537
848.515	14499
848.65	14488
848.786	14575
848.921	14518
849.057	14480
849.192	14564
849.328	14518
849.463	14495
849.598	14415
849.734	14419
849.869	14240
850.004	14320
850.14	14240
850.275	14305
850.41	14214
850.545	14259
850.68	14134
850.815	14275
850.95	14149
851.085	14431
851.22	14324
851.355	14210
851.49	14187
851.625	14214
851.76	14195
851.895	14134
852.03	14096
852.165	14172
852.299	14282
852.434	14370
852.569	14187
852.703	14248
852.838	14355
852.973	14374
853.107	14419
853.242	14259
853.376	14092
853.511	14035
853.645	14065
853.78	14153
853.914	14103
854.048	14020
854.183	14123
854.317	14043
854.451	14229
854.585	14172
854.72	14107
854.854	14111
854.988	14012
855.122	14096
855.256	13993
855.39	14119
855.524	14161
855.658	14164
855.792	14107
855.926	14172
856.06	14126
856.194	14278
856.327	14153
856.461	14142
856.595	14103
856.729	14012
856.862	14259
856.996	14088
857.13	14218
857.263	14271
857.397	14199
857.53	14050
857.664	14115
857.797	14195
857.931	14206
858.064	14119
858.197	14271
858.331	14111
858.464	13997
858.597	14024
858.731	14054
858.864	14157
858.997	14126
859.13	14134
859.263	14149
859.396	14134
859.529	14046
859.662	14081
859.795	14020
859.928	14050
860.061	14286
860.194	14282
860.327	14199
860.46	14100
860.592	14237
860.725	14237
860.858	14145
860.99	14092
861.123	14058
861.256	14039
861.388	14058
861.521	14982
861.653	14012
861.786	13883
861.918	13894
862.05	14001
862.183	14069
862.315	14168
862.447	14111
862.58	14005
862.712	13906
862.844	13879
862.976	13921
863.108	13955
863.24	14263
863.372	13845
863.504	13883
863.636	13932
863.768	13986
863.9	13803
864.032	13822
864.164	13913
864.296	13925
864.428	13974
864.559	13951
864.691	13970
864.823	13944
864.954	13913
865.086	13955
865.217	13932
865.349	13788
865.48	13883
865.612	13826
865.743	14020
865.875	13879
866.006	13753
866.137	13830
866.269	13887
866.4	13902
866.531	13860
866.662	13750
866.793	13811
866.924	13849
867.055	13875
867.186	13890
867.317	13807
867.448	13799
867.579	13761
867.71	13738
867.841	13704
867.972	13913
868.103	13925
868.233	13883
868.364	13856
868.495	13959
868.625	14115
868.756	14206
868.886	13989
869.017	14153
869.147	14244
869.278	14168
869.408	14187
869.539	14153
869.669	14263
869.799	14027
869.929	14301
870.06	14256
870.19	14423
870.32	14427
870.45	14339
870.58	14549
870.71	14686
870.84	14701
870.97	14598
871.1	14381
871.23	14705
871.36	14830
871.489	14575
871.619	14629
871.749	14743
871.879	14792
872.008	14800
872.138	14682
872.267	14762
872.397	14564
872.526	14526
872.656	14556
872.785	14522
872.915	14811
873.044	14826
873.173	14682
873.303	14807
873.432	14823
873.561	14902
873.69	14796
873.819	14762
873.948	14826
874.077	14807
874.206	14804
874.335	14708
874.464	14998
874.593	15070
874.722	15097
874.851	15131
874.979	15108
875.108	15161
875.237	15013
875.365	14960
875.494	15176
875.623	15192
875.751	15112
875.88	15165
876.008	15245
876.136	15329
876.265	15523
876.393	15717
876.521	15561
876.65	15538
876.778	15622
876.906	15492
877.034	15447
877.162	15420
877.29	15378
877.418	15454
877.546	15572
877.674	15469
877.802	15603
877.93	15519
878.058	15492
878.185	15317
878.313	15408
878.441	15469
878.568	15389
878.696	15340
878.824	15507
878.951	15606
879.079	15797
879.206	15907
879.333	15724
879.461	15564
879.588	15561
879.715	15610
879.842	15812
879.97	15492
880.097	15291
880.224	15317
880.351	15447
880.478	15355
880.605	15321
880.732	15466
880.859	15553
880.986	15500
881.112	15435
881.239	15317
881.366	15123
881.493	15112
881.619	14975
881.746	15009
881.872	14967
881.999	14986
882.125	14899
882.252	15081
882.378	15017
882.505	15116
882.631	15005
882.757	14819
882.883	14899
883.01	14902
883.136	14887
883.262	14724
883.388	14762
883.514	14891
883.64	14971
883.766	14785
883.892	14640
884.018	14648
884.143	14792
884.269	14967
884.395	14606
884.52	14590
884.646	14575
884.772	14492
884.897	14404
885.023	14632
885.148	14731
885.274	14811
885.399	14636
885.524	14457
885.65	14648
885.775	14473
885.9	14514
886.025	14682
886.15	14678
886.275	14492
886.4	14545
886.525	14503
886.65	14434
886.775	14545
886.9	14648
887.025	14746
887.149	14480
887.274	14457
887.399	14438
887.523	14347
887.648	14366
887.773	14366
887.897	14571
888.021	14442
888.146	14298
888.27	14415
888.395	14549
888.519	14457
888.643	14465
888.767	14377
888.891	14305
889.015	14240
889.139	14286
889.263	14202
889.387	14317
889.511	14393
889.635	14423
889.759	14229
889.883	14195
890.006	14252
890.13	14412
890.254	14103
890.377	14214
890.501	14119
890.624	13970
890.748	14111
890.871	13917
890.995	13940
891.118	13807
891.241	14024
891.364	14024
891.488	14062
891.611	13974
891.734	13936
891.857	13959
891.98	14084
892.103	13970
892.226	13944
892.349	13947
892.471	13746
892.594	13879
892.717	14027
892.839	13925
892.962	13898
893.085	14046
893.207	13955
893.33	13879
893.452	13868
893.575	14058
893.697	13959
893.819	14149
893.941	14092
894.064	14176
894.186	13890
894.308	13925
894.43	14107
894.552	14252
894.674	14130
894.796	13955
894.918	14001
895.04	14073
895.161	14107
895.283	14046
895.405	14138
895.526	14073
895.648	14058
895.769	14084
895.891	14103
896.012	14149
896.134	14138
896.255	14161
896.376	14115
896.498	14195
896.619	14100
896.74	14145
896.861	14221
896.982	14465
897.103	14556
897.224	14423
897.345	14377
897.466	14408
897.587	14423
897.708	14568
897.828	14545
897.949	14336
898.07	14271
898.19	14317
898.311	14571
898.431	14332
898.552	14530
898.672	14499
898.792	14556
898.913	14541
899.033	14499
899.153	14313
899.273	14278
899.393	14358
899.513	14324
899.633	14240
899.753	14347
899.873	14256
899.993	14347
900.113	14309
900.232	14339
900.352	14271
900.472	14244
900.591	14096
900.711	14202
900.83	14134
900.95	14362
901.069	14229
901.189	14111
901.308	13967
901.427	13894
901.546	13894
901.665	13944
901.784	13894
901.904	13761
902.023	13674
902.141	13552
902.26	13457
902.379	13578
902.498	13472
902.617	13480
902.735	13483
902.854	13449
902.973	13362
903.091	13194
903.21	13145
903.328	13198
903.446	13091
903.565	13076
903.683	13065
903.801	12886
903.919	13012
904.038	12962
904.156	12867
904.274	12844
904.392	12840
904.51	12859
904.627	12852
904.745	12871
904.863	12897
904.981	12681
905.098	12642
905.216	12506
905.334	12532
905.451	12639
905.569	12479
905.686	12593
905.803	12570
905.921	12437
906.038	12410
906.155	12346
906.272	12220
906.389	12247
906.506	12136
906.623	12064
906.74	12178
906.857	12015
906.974	12011
907.091	12201
907.208	12232
907.324	12163
907.441	12121
907.557	11939
907.674	11916
907.79	11802
907.907	11851
908.023	11954
908.139	11901
908.256	11843
908.372	11908
908.488	11748
908.604	11707
908.72	11627
908.836	11699
908.952	11554
909.068	11668
909.184	11718
909.3	11627
909.415	11649
909.531	11627
909.647	11398
909.762	11368
909.878	11277
909.993	11520
910.108	11387
910.224	11414
910.339	11387
910.454	11288
910.57	11261
910.685	11250
910.8	11444
910.915	11474
911.03	11254
911.145	11155
911.259	11041
911.374	11060
911.489	11022
911.604	11041
911.718	10942
911.833	10862
911.947	10755
912.062	10687
912.176	10858
912.291	10847
912.405	10911
912.519	11037
912.633	11086
912.748	10930
912.862	10949
912.976	10752
913.09	10626
913.204	10626
913.318	10820
913.431	10873
913.545	10828
913.659	10839
913.772	10824
913.886	10607
914	10592
914.113	10767
914.226	10679
914.34	10736
914.453	10588
914.566	10786
914.68	10599
914.793	10538
914.906	10398
915.019	10363
915.132	10394
915.245	10405
915.358	10413
915.47	10398
915.583	10371
915.696	10459
915.809	10542
915.921	10584
916.034	10318
916.146	10352
916.259	10299
916.371	10375
916.483	10466
916.595	10295
916.708	10295
916.82	10276
916.932	10310
917.044	10322
917.156	10318
917.268	10200
917.38	10227
917.491	10169
917.603	10253
917.715	10398
917.826	10318
917.938	10246
918.049	10120
918.161	10238
918.272	10360
918.384	10344
918.495	10207
918.606	10071
918.717	10063
918.828	10120
918.939	10154
919.05	9991
919.161	10128
919.272	9945
919.383	9987
919.494	10116
919.604	10303
919.715	10067
919.826	10082
919.936	10051
920.047	10147
920.157	10135
920.267	10322
920.378	10188
920.488	10048
920.598	10333
920.708	10466
920.818	10329
920.928	10246
921.038	10512
921.148	10405
921.258	10166
921.368	10055
921.477	9941
921.587	9903
921.697	9793
921.806	10013
921.916	9926
922.025	9724
922.134	9603
922.244	9599
922.353	9682
922.462	9534
922.571	9523
922.68	9431
922.789	9382
922.898	9382
923.007	9329
923.116	9435
923.224	9382
923.333	9408
923.442	9253
923.55	9279
923.659	9298
923.767	9321
923.876	9287
923.984	9291
924.092	9112
924.201	9192
924.309	9222
924.417	9260
924.525	9218
924.633	9256
924.741	9892
924.849	8990
924.956	9173
925.064	9001
925.172	8952
925.279	8960
925.387	9036
925.494	9020
925.602	9104
925.709	9195
925.816	8948
925.924	9097
926.031	9055
926.138	8990
926.245	9058
926.352	8986
926.459	9108
926.566	9081
926.673	9017
926.779	8914
926.886	8815
926.993	8724
927.099	8769
927.206	8750
927.312	8708
927.419	8746
927.525	8830
927.631	8861
927.737	8644
927.843	8686
927.95	8507
928.056	8560
928.162	8575
928.267	8769
928.373	9260
928.479	8735
928.585	8480
928.69	8648
928.796	8693
928.901	8587
929.007	8476
929.112	8514
929.218	8602
929.323	8469
929.428	8442
929.533	8594
929.638	8366
929.743	8438
929.848	8492
929.953	8385
930.058	8332
930.163	8252
930.267	8263
930.372	8412
930.477	8225
930.581	8450
930.685	8305
930.79	8149
930.894	8176
930.998	8149
931.103	8298
931.207	7959
931.311	7940
931.415	7860
931.519	7643
931.623	7677
