Data from test_V78500241_1541.txt Node
Date: Fri Mar 25 14:44:26 CST 2022
User: usil
Spectrometer: V785-0024
Trigger mode: 0
Integration Time (sec): 4.000000E-1
Scans to average: 1
Nonlinearity correction enabled: false
Boxcar width: 0
Storing dark spectrum: false
XAxis mode: Wavelengths
Number of Pixels in Spectrum: 1024
>>>>>Begin Spectral Data<<<<<
801.071	22531
801.214	22238
801.356	22036
801.499	21857
801.641	21675
801.783	21747
801.926	21846
802.068	21720
802.211	21652
802.353	21561
802.496	21260
802.638	21245
802.78	21336
802.923	21119
803.065	21032
803.208	21047
803.35	21104
803.492	21192
803.635	21195
803.777	21013
803.919	21203
804.061	21340
804.204	21188
804.346	21116
804.488	21028
804.63	21176
804.773	20941
804.915	21013
805.057	21298
805.199	20979
805.341	21043
805.483	21081
805.626	21214
805.768	21089
805.91	21062
806.052	20971
806.194	20990
806.336	21233
806.478	21070
806.62	21051
806.762	21135
806.904	21237
807.046	21458
807.188	21416
807.33	21313
807.472	21469
807.614	21332
807.756	21382
807.898	21237
808.04	21173
808.182	21089
808.324	21241
808.465	21367
808.607	21424
808.749	21447
808.891	21675
809.033	21644
809.174	21724
809.316	21595
809.458	21648
809.6	21435
809.741	21610
809.883	21675
810.025	21587
810.166	21709
810.308	21686
810.45	21530
810.591	21526
810.733	21207
810.875	21272
811.016	21112
811.158	21066
811.299	21291
811.441	21443
811.582	21313
811.724	21211
811.865	21188
812.007	21211
812.148	21230
812.29	21241
812.431	21389
812.573	21488
812.714	21568
812.855	21652
812.997	21781
813.138	21838
813.279	21903
813.421	21895
813.562	21637
813.703	21466
813.845	21401
813.986	21085
814.127	20872
814.268	20941
814.41	20708
814.551	20674
814.692	20754
814.833	20708
814.974	20697
815.115	20705
815.256	20609
815.397	20632
815.539	20674
815.68	20507
815.821	20389
815.962	20682
816.103	20530
816.244	20415
816.385	20252
816.526	20202
816.666	20012
816.807	19871
816.948	19959
817.089	20100
817.23	19890
817.371	19841
817.512	19997
817.653	19913
817.793	19890
817.934	20008
818.075	19928
818.216	19963
818.356	19902
818.497	19681
818.638	19594
818.778	19567
818.919	19624
819.06	19750
819.2	19822
819.341	19868
819.481	19803
819.622	19928
819.762	20103
819.903	20084
820.043	19986
820.184	19951
820.324	19871
820.465	19932
820.605	19913
820.746	19917
820.886	19818
821.026	19818
821.167	19799
821.307	19982
821.447	19849
821.588	19666
821.728	19559
821.868	19384
822.008	19308
822.149	19384
822.289	19308
822.429	19057
822.569	19000
822.709	18897
822.849	18760
822.99	18726
823.13	18753
823.27	18791
823.41	18612
823.55	18544
823.69	18601
823.83	18551
823.97	18506
824.11	18410
824.25	18323
824.389	18429
824.529	18563
824.669	18365
824.809	18395
824.949	18414
825.089	18395
825.228	18281
825.368	18171
825.508	18174
825.648	18129
825.787	18148
825.927	18273
826.067	18117
826.206	18144
826.346	18117
826.485	18167
826.625	18079
826.765	18258
826.904	18148
827.044	17980
827.183	18011
827.323	17855
827.462	17977
827.601	17817
827.741	17764
827.88	17767
828.02	17699
828.159	17828
828.298	17828
828.437	17973
828.577	17817
828.716	17977
828.855	17832
828.994	17646
829.134	17668
829.273	17539
829.412	17493
829.551	17452
829.69	17471
829.829	17551
829.968	17585
830.107	17608
830.246	17558
830.385	17532
830.524	17551
830.663	17429
830.802	17178
830.941	17185
831.08	17155
831.219	17242
831.357	17151
831.496	17421
831.635	17143
831.774	17010
831.913	17029
832.051	17029
832.19	16938
832.329	16965
832.467	16877
832.606	16797
832.744	16828
832.883	16866
833.022	16786
833.16	16873
833.299	16995
833.437	16869
833.576	16850
833.714	16858
833.852	16850
833.991	16953
834.129	17029
834.267	16930
834.406	16953
834.544	16927
834.682	16919
834.821	16892
834.959	16976
835.097	16908
835.235	16961
835.373	16976
835.511	16839
835.65	16847
835.788	16713
835.926	16675
836.064	16599
836.202	16527
836.34	16744
836.478	16919
836.615	16854
836.753	16782
836.891	16824
837.029	16854
837.167	16706
837.305	16790
837.443	16634
837.58	16599
837.718	16748
837.856	16649
837.993	16535
838.131	16778
838.269	16653
838.406	16580
838.544	16470
838.681	16348
838.819	16272
838.956	16261
839.094	16188
839.231	16291
839.369	16325
839.506	16622
839.643	16421
839.781	16329
839.918	16158
840.055	16249
840.193	16234
840.33	16173
840.467	16162
840.604	16314
840.742	16382
840.879	16036
841.016	16109
841.153	16071
841.29	16265
841.427	16341
841.564	16265
841.701	16200
841.838	16226
841.975	16143
842.112	16147
842.249	15956
842.385	16006
842.522	16166
842.659	15911
842.796	15888
842.933	15926
843.069	16013
843.206	15922
843.343	16017
843.479	15979
843.616	16071
843.752	15850
843.889	15747
844.025	15937
844.162	15728
844.298	15899
844.435	15762
844.571	15812
844.708	15800
844.844	15960
844.98	15987
845.117	15945
845.253	15724
845.389	15660
845.525	15766
845.661	15743
845.798	15778
845.934	15812
846.07	15576
846.206	15755
846.342	15770
846.478	15739
846.614	15462
846.75	15260
846.886	15329
847.022	15469
847.158	15336
847.294	15351
847.429	15291
847.565	15302
847.701	15542
847.837	15074
847.972	15028
848.108	15195
848.244	15180
848.379	15077
848.515	14864
848.65	14910
848.786	14937
848.921	14971
849.057	15039
849.192	15032
849.328	15024
849.463	15032
849.598	14868
849.734	14864
849.869	14773
850.004	14659
850.14	14796
850.275	14693
850.41	14526
850.545	14659
850.68	14720
850.815	14701
850.95	14606
851.085	14857
851.22	14788
851.355	14739
851.49	14705
851.625	14644
851.76	14663
851.895	14568
852.03	14610
852.165	14663
852.299	14727
852.434	14754
852.569	14674
852.703	14632
852.838	14887
852.973	14826
853.107	14796
853.242	14769
853.376	14606
853.511	14434
853.645	14518
853.78	14648
853.914	14533
854.048	14636
854.183	14514
854.317	14518
854.451	14746
854.585	14499
854.72	14621
854.854	14594
854.988	14476
855.122	14488
855.256	14393
855.39	14480
855.524	14568
855.658	14590
855.792	14518
855.926	14568
856.06	14651
856.194	14632
856.327	14526
856.461	14545
856.595	14484
856.729	14533
856.862	14625
856.996	14518
857.13	14632
857.263	14705
857.397	14606
857.53	14590
857.664	14621
857.797	14697
857.931	14640
858.064	14632
858.197	14716
858.331	14480
858.464	14454
858.597	14499
858.731	14610
858.864	14552
858.997	14526
859.13	14545
859.263	14575
859.396	14678
859.529	14518
859.662	14610
859.795	14552
859.928	14629
860.061	14712
860.194	14819
860.327	14522
860.46	14488
860.592	14674
860.725	14720
860.858	14663
860.99	14575
861.123	14457
861.256	14621
861.388	14518
861.521	15180
861.653	14450
861.786	14370
861.918	14518
862.05	14518
862.183	14427
862.315	14583
862.447	14636
862.58	14442
862.712	14370
862.844	14294
862.976	14408
863.108	14389
863.24	14785
863.372	14263
863.504	14370
863.636	14374
863.768	14347
863.9	14275
864.032	14263
864.164	14313
864.296	14438
864.428	14446
864.559	14450
864.691	14423
864.823	14377
864.954	14358
865.086	14389
865.217	14358
865.349	14176
865.48	14339
865.612	14370
865.743	14438
865.875	14298
866.006	14282
866.137	14355
866.269	14358
866.4	14244
866.531	14298
866.662	14294
866.793	14237
866.924	14332
867.055	14385
867.186	14225
867.317	14202
867.448	14225
867.579	14259
867.71	14301
867.841	14202
867.972	14305
868.103	14320
868.233	14271
868.364	14290
868.495	14347
868.625	14598
868.756	14644
868.886	14434
869.017	14533
869.147	14674
869.278	14617
869.408	14560
869.539	14488
869.669	14617
869.799	14659
869.929	14788
870.06	14632
870.19	14933
870.32	14902
870.45	14948
870.58	15001
870.71	14982
870.84	15127
870.97	14902
871.1	15047
871.23	15116
871.36	15085
871.489	15043
871.619	15009
871.749	15112
871.879	15169
872.008	15367
872.138	15173
872.267	15123
872.397	15055
872.526	14975
872.656	15013
872.785	15001
872.915	15077
873.044	15226
873.173	15161
873.303	15184
873.432	15272
873.561	15226
873.69	15207
873.819	15203
873.948	15233
874.077	15233
874.206	15165
874.335	15256
874.464	15313
874.593	15405
874.722	15435
874.851	15466
874.979	15481
875.108	15568
875.237	15534
875.365	15435
875.494	15447
875.623	15504
875.751	15523
875.88	15584
876.008	15644
876.136	15641
876.265	15972
876.393	16048
876.521	16048
876.65	15972
876.778	15842
876.906	15926
877.034	15842
877.162	15835
877.29	15774
877.418	15918
877.546	16013
877.674	15865
877.802	15922
877.93	15953
878.058	15876
878.185	15831
878.313	15953
878.441	15979
878.568	15835
878.696	15838
878.824	15918
878.951	16025
879.079	16169
879.206	16238
879.333	16166
879.461	16078
879.588	16109
879.715	16158
879.842	16360
879.97	16082
880.097	15797
880.224	15823
880.351	15812
880.478	15781
880.605	15762
880.732	15759
880.859	16154
880.986	15808
881.112	15850
881.239	15686
881.366	15561
881.493	15515
881.619	15447
881.746	15485
881.872	15405
881.999	15363
882.125	15382
882.252	15549
882.378	15450
882.505	15557
882.631	15466
882.757	15317
882.883	15275
883.01	15272
883.136	15085
883.262	15119
883.388	15108
883.514	15256
883.64	15317
883.766	15245
883.892	15097
884.018	15161
884.143	15302
884.269	15336
884.395	15062
884.52	14960
884.646	15074
884.772	15039
884.897	14933
885.023	14929
885.148	15020
885.274	15032
885.399	15039
885.524	15020
885.65	14944
885.775	15066
885.9	14883
886.025	15066
886.15	14975
886.275	14941
886.4	14830
886.525	14906
886.65	14929
886.775	14823
886.9	15062
887.025	15218
887.149	15013
887.274	14781
887.399	14849
887.523	14765
887.648	14754
887.773	14682
887.897	14880
888.021	14819
888.146	14724
888.27	14887
888.395	14883
888.519	14773
888.643	14853
888.767	14842
888.891	14648
889.015	14552
889.139	14746
889.263	14606
889.387	14788
889.511	14910
889.635	14739
889.759	14644
889.883	14648
890.006	14697
890.13	14826
890.254	14590
890.377	14754
890.501	14404
890.624	14400
890.748	14571
890.871	14362
890.995	14476
891.118	14317
891.241	14336
891.364	14290
891.488	14431
891.611	14362
891.734	14305
891.857	14328
891.98	14343
892.103	14381
892.226	14393
892.349	14412
892.471	14180
892.594	14210
892.717	14355
892.839	14298
892.962	14366
893.085	14351
893.207	14343
893.33	14145
893.452	14263
893.575	14370
893.697	14290
893.819	14404
893.941	14454
894.064	14541
894.186	14256
894.308	14263
894.43	14514
894.552	14507
894.674	14431
894.796	14313
894.918	14377
895.04	14358
895.161	14473
895.283	14343
895.405	14431
895.526	14446
895.648	14427
895.769	14400
895.891	14393
896.012	14571
896.134	14427
896.255	14415
896.376	14484
896.498	14465
896.619	14636
896.74	14537
896.861	14629
896.982	14937
897.103	15062
897.224	14785
897.345	14731
897.466	14655
897.587	14804
897.708	14830
897.828	14754
897.949	14686
898.07	14571
898.19	14678
898.311	14861
898.431	14811
898.552	14887
898.672	14941
898.792	14914
898.913	14902
899.033	14807
899.153	14625
899.273	14625
899.393	14598
899.513	14602
899.633	14663
899.753	14659
899.873	14670
899.993	14712
900.113	14712
900.232	14735
900.352	14625
900.472	14625
900.591	14587
900.711	14579
900.83	14514
900.95	14632
901.069	14621
901.189	14560
901.308	14286
901.427	14233
901.546	14229
901.665	14271
901.784	14259
901.904	14077
902.023	14027
902.141	13928
902.26	13738
902.379	13849
902.498	13761
902.617	13750
902.735	13947
902.854	13799
902.973	13757
903.091	13567
903.21	13457
903.328	13578
903.446	13476
903.565	13320
903.683	13343
903.801	13362
903.919	13350
904.038	13377
904.156	13149
904.274	13217
904.392	13320
904.51	13202
904.627	13160
904.745	13217
904.863	13282
904.981	12913
905.098	12924
905.216	12814
905.334	12871
905.451	12932
905.569	12886
905.686	12791
905.803	12867
905.921	12639
906.038	12768
906.155	12703
906.272	12570
906.389	12612
906.506	12483
906.623	12475
906.74	12361
906.857	12342
906.974	12334
907.091	12445
907.208	12509
907.324	12540
907.441	12395
907.557	12289
907.674	12163
907.79	12026
907.907	12095
908.023	12201
908.139	12228
908.256	12098
908.372	12121
908.488	12201
908.604	11969
908.72	11927
908.836	11859
908.952	11851
909.068	11942
909.184	11992
909.3	11878
909.415	12034
909.531	11988
909.647	11794
909.762	11764
909.878	11676
909.993	11718
910.108	11665
910.224	11672
910.339	11707
910.454	11672
910.57	11570
910.685	11490
910.8	11748
910.915	11745
911.03	11592
911.145	11410
911.259	11398
911.374	11383
911.489	11337
911.604	11292
911.718	11201
911.833	11231
911.947	10984
912.062	10995
912.176	11136
912.291	11193
912.405	11155
912.519	11360
912.633	11356
912.748	11227
912.862	11185
912.976	11079
913.09	10957
913.204	10976
913.318	11029
913.431	11227
913.545	11075
913.659	11151
913.772	11075
913.886	10919
914	10919
914.113	10946
914.226	11090
914.34	11003
914.453	10858
914.566	11010
914.68	10736
914.793	10828
914.906	10622
915.019	10626
915.132	10535
915.245	10599
915.358	10725
915.47	10641
915.583	10714
915.696	10691
915.809	10771
915.921	10900
916.034	10634
916.146	10493
916.259	10615
916.371	10668
916.483	10710
916.595	10519
916.708	10634
916.82	10577
916.932	10626
917.044	10531
917.156	10603
917.268	10493
917.38	10512
917.491	10462
917.603	10580
917.715	10645
917.826	10512
917.938	10481
918.049	10344
918.161	10512
918.272	10672
918.384	10653
918.495	10497
918.606	10329
918.717	10284
918.828	10375
918.939	10390
919.05	10284
919.161	10318
919.272	10150
919.383	10211
919.494	10390
919.604	10535
919.715	10390
919.826	10196
919.936	10333
920.047	10436
920.157	10341
920.267	10577
920.378	10386
920.488	10322
920.598	10504
920.708	10797
920.818	10656
920.928	10580
921.038	10744
921.148	10634
921.258	10474
921.368	10291
921.477	10234
921.587	10234
921.697	10059
921.806	10280
921.916	10116
922.025	9983
922.134	9964
922.244	9854
922.353	9953
922.462	9854
922.571	9743
922.68	9599
922.789	9530
922.898	9671
923.007	9610
923.116	9663
923.224	9584
923.333	9618
923.442	9519
923.55	9515
923.659	9477
923.767	9629
923.876	9466
923.984	9614
924.092	9428
924.201	9504
924.309	9450
924.417	9500
924.525	9397
924.633	9416
924.741	10375
924.849	9237
924.956	9420
925.064	9222
925.172	9165
925.279	9154
925.387	9249
925.494	9260
925.602	9374
925.709	9389
925.816	9256
925.924	9336
926.031	9294
926.138	9253
926.245	9279
926.352	9176
926.459	9302
926.566	9348
926.673	9241
926.779	9176
926.886	9097
926.993	9005
927.099	8899
927.206	8853
927.312	8979
927.419	8963
927.525	8963
927.631	9089
927.737	8941
927.843	8925
927.95	8804
928.056	8807
928.162	8910
928.267	8960
928.373	9351
928.479	8960
928.585	8731
928.69	8861
928.796	8921
928.901	8735
929.007	8648
929.112	8739
929.218	8815
929.323	8735
929.428	8667
929.533	8785
929.638	8663
929.743	8674
929.848	8754
929.953	8617
930.058	8545
930.163	8412
930.267	8404
930.372	8598
930.477	8492
930.581	8644
930.685	8571
930.79	8438
930.894	8412
930.998	8339
931.103	8549
931.207	8176
931.311	8081
931.415	8065
931.519	7860
931.623	7883
