Data from test_V78500241_1913.txt Node
Date: Fri Mar 25 14:47:02 CST 2022
User: usil
Spectrometer: V785-0024
Trigger mode: 0
Integration Time (sec): 4.000000E-1
Scans to average: 1
Nonlinearity correction enabled: false
Boxcar width: 0
Storing dark spectrum: false
XAxis mode: Wavelengths
Number of Pixels in Spectrum: 1024
>>>>>Begin Spectral Data<<<<<
801.071	22067
801.214	21907
801.356	21857
801.499	21701
801.641	21595
801.783	21447
801.926	21549
802.068	21367
802.211	21359
802.353	21363
802.496	21058
802.638	20857
802.78	20952
802.923	20838
803.065	20754
803.208	20804
803.35	20724
803.492	20826
803.635	21043
803.777	20769
803.919	20785
804.061	21131
804.204	20952
804.346	20708
804.488	20636
804.63	20701
804.773	20727
804.915	20701
805.057	20796
805.199	20724
805.341	20712
805.483	20883
805.626	20769
805.768	20655
805.91	20758
806.052	20663
806.194	20663
806.336	20743
806.478	20609
806.62	20651
806.762	20769
806.904	20925
807.046	21150
807.188	21085
807.33	20994
807.472	20994
807.614	20960
807.756	20906
807.898	20838
808.04	20655
808.182	20773
808.324	20834
808.465	20785
808.607	20925
808.749	21017
808.891	21222
809.033	21211
809.174	21093
809.316	21062
809.458	21036
809.6	21036
809.741	21192
809.883	21070
810.025	21154
810.166	21260
810.308	21199
810.45	21180
810.591	21119
810.733	20937
810.875	20883
811.016	20727
811.158	20788
811.299	20857
811.441	20990
811.582	20895
811.724	20899
811.865	20876
812.007	20689
812.148	20834
812.29	20857
812.431	20842
812.573	21161
812.714	21192
812.855	21321
812.997	21405
813.138	21469
813.279	21420
813.421	21279
813.562	21104
813.703	21055
813.845	20925
813.986	20701
814.127	20571
814.268	20457
814.41	20457
814.551	20419
814.692	20446
814.833	20301
814.974	20256
815.115	20225
815.256	20233
815.397	20214
815.539	20054
815.68	20054
815.821	19997
815.962	20164
816.103	20092
816.244	19955
816.385	19822
816.526	19788
816.666	19704
816.807	19525
816.948	19605
817.089	19651
817.23	19483
817.371	19495
817.512	19438
817.653	19453
817.793	19468
817.934	19480
818.075	19525
818.216	19628
818.356	19540
818.497	19270
818.638	19156
818.778	19278
818.919	19164
819.06	19285
819.2	19335
819.341	19407
819.481	19339
819.622	19525
819.762	19738
819.903	19723
820.043	19525
820.184	19502
820.324	19540
820.465	19632
820.605	19464
820.746	19441
820.886	19400
821.026	19472
821.167	19582
821.307	19704
821.447	19495
821.588	19392
821.728	19122
821.868	19118
822.008	18954
822.149	18966
822.289	18817
822.429	18623
822.569	18521
822.709	18593
822.849	18365
822.99	18445
823.13	18395
823.27	18334
823.41	18224
823.55	18171
823.69	18300
823.83	18254
823.97	18178
824.11	18076
824.25	17965
824.389	17961
824.529	18060
824.669	18019
824.809	18167
824.949	18053
825.089	18022
825.228	17935
825.368	17859
825.508	17745
825.648	17802
825.787	17805
825.927	17874
826.067	17729
826.206	17764
826.346	17775
826.485	17764
826.625	17691
826.765	17802
826.904	17733
827.044	17551
827.183	17551
827.323	17551
827.462	17490
827.601	17520
827.741	17383
827.88	17444
828.02	17395
828.159	17414
828.298	17532
828.437	17558
828.577	17448
828.716	17509
828.855	17440
828.994	17334
829.134	17204
829.273	17200
829.412	17246
829.551	17140
829.69	17155
829.829	17212
829.968	17311
830.107	17292
830.246	17254
830.385	17170
830.524	17151
830.663	17113
830.802	16965
830.941	16949
831.08	16862
831.219	16866
831.357	16847
831.496	17094
831.635	16843
831.774	16675
831.913	16896
832.051	16630
832.19	16607
832.329	16637
832.467	16664
832.606	16447
832.744	16622
832.883	16535
833.022	16577
833.16	16523
833.299	16577
833.437	16538
833.576	16721
833.714	16660
833.852	16611
833.991	16550
834.129	16607
834.267	16755
834.406	16588
834.544	16729
834.682	16611
834.821	16527
834.959	16778
835.097	16554
835.235	16759
835.373	16630
835.511	16516
835.65	16485
835.788	16443
835.926	16493
836.064	16325
836.202	16314
836.34	16546
836.478	16584
836.615	16413
836.753	16584
836.891	16653
837.029	16470
837.167	16497
837.305	16390
837.443	16382
837.58	16337
837.718	16504
837.856	16409
837.993	16379
838.131	16451
838.269	16230
838.406	16287
838.544	16280
838.681	16234
838.819	16063
838.956	15945
839.094	15884
839.231	15930
839.369	16067
839.506	16394
839.643	16291
839.781	16036
839.918	16006
840.055	15968
840.193	15937
840.33	15918
840.467	16002
840.604	15956
840.742	16158
840.879	15831
841.016	15892
841.153	15854
841.29	16032
841.427	15941
841.564	16006
841.701	15907
841.838	15960
841.975	15941
842.112	15823
842.249	15850
842.385	15781
842.522	15911
842.659	15747
842.796	15732
842.933	15747
843.069	15690
843.206	15637
843.343	15854
843.479	15755
843.616	15713
843.752	15515
843.889	15591
844.025	15732
844.162	15443
844.298	15694
844.435	15488
844.571	15481
844.708	15534
844.844	15728
844.98	15701
845.117	15671
845.253	15435
845.389	15329
845.525	15408
845.661	15378
845.798	15298
845.934	15359
846.07	15195
846.206	15340
846.342	15424
846.478	15336
846.614	15051
846.75	15020
846.886	15009
847.022	15211
847.158	14986
847.294	15100
847.429	15138
847.565	14998
847.701	15306
847.837	14876
847.972	14830
848.108	14902
848.244	14834
848.379	14697
848.515	14731
848.65	14674
848.786	14727
848.921	14663
849.057	14746
849.192	14697
849.328	14743
849.463	14667
849.598	14705
849.734	14568
849.869	14583
850.004	14454
850.14	14590
850.275	14412
850.41	14305
850.545	14507
850.68	14507
850.815	14537
850.95	14461
851.085	14632
851.22	14499
851.355	14469
851.49	14431
851.625	14511
851.76	14450
851.895	14404
852.03	14286
852.165	14419
852.299	14457
852.434	14545
852.569	14507
852.703	14530
852.838	14602
852.973	14583
853.107	14617
853.242	14347
853.376	14317
853.511	14183
853.645	14282
853.78	14366
853.914	14339
854.048	14362
854.183	14275
854.317	14351
854.451	14495
854.585	14267
854.72	14267
854.854	14415
854.988	14187
855.122	14286
855.256	14183
855.39	14309
855.524	14332
855.658	14320
855.792	14336
855.926	14419
856.06	14412
856.194	14355
856.327	14351
856.461	14305
856.595	14267
856.729	14324
856.862	14427
856.996	14374
857.13	14434
857.263	14423
857.397	14423
857.53	14339
857.664	14381
857.797	14328
857.931	14347
858.064	14396
858.197	14431
858.331	14309
858.464	14294
858.597	14233
858.731	14351
858.864	14229
858.997	14267
859.13	14324
859.263	14324
859.396	14400
859.529	14305
859.662	14377
859.795	14294
859.928	14374
860.061	14465
860.194	14503
860.327	14275
860.46	14317
860.592	14400
860.725	14473
860.858	14381
860.99	14267
861.123	14206
861.256	14176
861.388	14389
861.521	15142
861.653	14252
861.786	14134
861.918	14252
862.05	14199
862.183	14294
862.315	14229
862.447	14347
862.58	14259
862.712	14145
862.844	14050
862.976	14256
863.108	14195
863.24	14450
863.372	14012
863.504	14145
863.636	14172
863.768	14145
863.9	14039
864.032	14115
864.164	14092
864.296	14024
864.428	14259
864.559	14221
864.691	14210
864.823	14176
864.954	14126
865.086	14130
865.217	14073
865.349	14016
865.48	14115
865.612	14077
865.743	14332
865.875	14008
866.006	13951
866.137	14069
866.269	14161
866.4	14092
866.531	14081
866.662	13974
866.793	14084
866.924	14069
867.055	14031
867.186	14130
867.317	14100
867.448	14008
867.579	13909
867.71	14050
867.841	13955
867.972	14039
868.103	14024
868.233	14062
868.364	14100
868.495	14153
868.625	14313
868.756	14488
868.886	14157
869.017	14332
869.147	14408
869.278	14461
869.408	14404
869.539	14396
869.669	14393
869.799	14442
869.929	14396
870.06	14484
870.19	14629
870.32	14659
870.45	14705
870.58	14727
870.71	14845
870.84	14864
870.97	14682
871.1	14788
871.23	14967
871.36	15036
871.489	14834
871.619	14910
871.749	14948
871.879	14994
872.008	15043
872.138	14979
872.267	14929
872.397	14746
872.526	14765
872.656	14735
872.785	14758
872.915	14933
873.044	15020
873.173	14921
873.303	15032
873.432	14956
873.561	15123
873.69	14982
873.819	14998
873.948	15093
874.077	14960
874.206	14929
874.335	15020
874.464	15211
874.593	15302
874.722	15264
874.851	15332
874.979	15401
875.108	15317
875.237	15268
875.365	15283
875.494	15195
875.623	15370
875.751	15393
875.88	15367
876.008	15542
876.136	15496
876.265	15755
876.393	15838
876.521	15827
876.65	15728
876.778	15785
876.906	15751
877.034	15637
877.162	15751
877.29	15622
877.418	15686
877.546	15720
877.674	15728
877.802	15686
877.93	15732
878.058	15633
878.185	15606
878.313	15576
878.441	15751
878.568	15618
878.696	15568
878.824	15736
878.951	15831
879.079	15907
879.206	16086
879.333	15823
879.461	15781
879.588	15838
879.715	15869
879.842	15991
879.97	15789
880.097	15530
880.224	15534
880.351	15591
880.478	15549
880.605	15561
880.732	15511
880.859	15823
880.986	15671
881.112	15606
881.239	15424
881.366	15393
881.493	15275
881.619	15184
881.746	15218
881.872	15222
881.999	15195
882.125	15199
882.252	15298
882.378	15241
882.505	15268
882.631	15093
882.757	15043
882.883	15199
883.01	15013
883.136	14872
883.262	14880
883.388	14864
883.514	15112
883.64	15131
883.766	14982
883.892	14956
884.018	14971
884.143	14967
884.269	15036
884.395	14796
884.52	14750
884.646	14720
884.772	14720
884.897	14587
885.023	14826
885.148	14895
885.274	14781
885.399	14819
885.524	14765
885.65	14746
885.775	14693
885.9	14746
886.025	14902
886.15	14815
886.275	14686
886.4	14724
886.525	14678
886.65	14701
886.775	14587
886.9	14876
887.025	14960
887.149	14678
887.274	14644
887.399	14632
887.523	14522
887.648	14473
887.773	14636
887.897	14651
888.021	14602
888.146	14503
888.27	14708
888.395	14796
888.519	14682
888.643	14682
888.767	14644
888.891	14568
889.015	14343
889.139	14434
889.263	14324
889.387	14537
889.511	14731
889.635	14602
889.759	14301
889.883	14469
890.006	14495
890.13	14617
890.254	14381
890.377	14442
890.501	14187
890.624	14317
890.748	14309
890.871	14199
890.995	14039
891.118	13997
891.241	14092
891.364	14107
891.488	14225
891.611	14069
891.734	14218
891.857	14225
891.98	14221
892.103	14195
892.226	14100
892.349	14145
892.471	13921
892.594	14134
892.717	14157
892.839	14157
892.962	14229
893.085	14240
893.207	14145
893.33	13989
893.452	14077
893.575	14164
893.697	14024
893.819	14328
893.941	14278
894.064	14206
894.186	14119
894.308	14130
894.43	14294
894.552	14362
894.674	14126
894.796	14062
894.918	14172
895.04	14153
895.161	14225
895.283	14210
895.405	14092
895.526	14073
895.648	14248
895.769	14286
895.891	14229
896.012	14415
896.134	14282
896.255	14259
896.376	14286
896.498	14336
896.619	14393
896.74	14366
896.861	14332
896.982	14594
897.103	14762
897.224	14621
897.345	14587
897.466	14514
897.587	14533
897.708	14720
897.828	14632
897.949	14613
898.07	14377
898.19	14480
898.311	14686
898.431	14602
898.552	14667
898.672	14716
898.792	14769
898.913	14663
899.033	14613
899.153	14507
899.273	14415
899.393	14545
899.513	14518
899.633	14457
899.753	14526
899.873	14431
899.993	14507
900.113	14556
900.232	14495
900.352	14423
900.472	14404
900.591	14248
900.711	14393
900.83	14370
900.95	14446
901.069	14400
901.189	14317
901.308	14100
901.427	14073
901.546	14073
901.665	14084
901.784	14020
901.904	13944
902.023	13830
902.141	13597
902.26	13518
902.379	13651
902.498	13567
902.617	13601
902.735	13723
902.854	13620
902.973	13655
903.091	13270
903.21	13373
903.328	13316
903.446	13255
903.565	13129
903.683	13149
903.801	13069
903.919	13183
904.038	13160
904.156	12939
904.274	13091
904.392	12943
904.51	12924
904.627	12958
904.745	13080
904.863	13034
904.981	12726
905.098	12627
905.216	12707
905.334	12722
905.451	12574
905.569	12654
905.686	12578
905.803	12730
905.921	12547
906.038	12601
906.155	12555
906.272	12418
906.389	12422
906.506	12277
906.623	12361
906.74	12224
906.857	12144
906.974	12182
907.091	12342
907.208	12384
907.324	12327
907.441	12194
907.557	12110
907.674	12053
907.79	11961
907.907	11999
908.023	12076
908.139	12114
908.256	11912
908.372	11870
908.488	11897
908.604	11863
908.72	11771
908.836	11847
908.952	11779
909.068	11745
909.184	11847
909.3	11870
909.415	11824
909.531	11805
909.647	11562
909.762	11642
909.878	11562
909.993	11505
910.108	11589
910.224	11539
910.339	11573
910.454	11478
910.57	11387
910.685	11360
910.8	11562
910.915	11600
911.03	11463
911.145	11269
911.259	11201
911.374	11197
911.489	11189
911.604	11166
911.718	11128
911.833	11033
911.947	10862
912.062	10866
912.176	11014
912.291	11014
912.405	11018
912.519	11269
912.633	11212
912.748	11094
912.862	11041
912.976	10850
913.09	10782
913.204	10801
913.318	10919
913.431	11029
913.545	10991
913.659	11003
913.772	10908
913.886	10793
914	10839
914.113	10854
914.226	10919
914.34	10896
914.453	10645
914.566	10930
914.68	10694
914.793	10801
914.906	10519
915.019	10481
915.132	10360
915.245	10478
915.358	10516
915.47	10493
915.583	10592
915.696	10527
915.809	10607
915.921	10748
916.034	10519
916.146	10455
916.259	10432
916.371	10637
916.483	10519
916.595	10451
916.708	10466
916.82	10459
916.932	10386
917.044	10493
917.156	10398
917.268	10341
917.38	10352
917.491	10295
917.603	10360
917.715	10348
917.826	10333
917.938	10249
918.049	10268
918.161	10322
918.272	10508
918.384	10428
918.495	10409
918.606	10246
918.717	10188
918.828	10287
918.939	10299
919.05	10090
919.161	10253
919.272	10036
919.383	10067
919.494	10299
919.604	10394
919.715	10188
919.826	10124
919.936	10158
920.047	10390
920.157	10230
920.267	10451
920.378	10329
920.488	10242
920.598	10451
920.708	10588
920.818	10382
920.928	10451
921.038	10523
921.148	10565
921.258	10253
921.368	10325
921.477	10112
921.587	10097
921.697	9972
921.806	10143
921.916	10025
922.025	9854
922.134	9774
922.244	9736
922.353	9895
922.462	9690
922.571	9656
922.68	9511
922.789	9561
922.898	9538
923.007	9481
923.116	9564
923.224	9515
923.333	9549
923.442	9351
923.55	9443
923.659	9386
923.767	9454
923.876	9279
923.984	9428
924.092	9291
924.201	9340
924.309	9279
924.417	9317
924.525	9272
924.633	9351
924.741	10169
924.849	9093
924.956	9218
925.064	9176
925.172	9036
925.279	9169
925.387	9154
925.494	9180
925.602	9230
925.709	9199
925.816	9066
925.924	9097
926.031	9253
926.138	9188
926.245	9195
926.352	9093
926.459	9218
926.566	9272
926.673	9123
926.779	9028
926.886	9013
926.993	8891
927.099	8807
927.206	8796
927.312	8887
927.419	8937
927.525	8914
927.631	8910
927.737	8773
927.843	8712
927.95	8625
928.056	8746
928.162	8773
928.267	8845
928.373	9359
928.479	8830
928.585	8606
928.69	8743
928.796	8773
928.901	8724
929.007	8541
929.112	8670
929.218	8670
929.323	8549
929.428	8571
929.533	8686
929.638	8556
929.743	8511
929.848	8590
929.953	8518
930.058	8461
930.163	8343
930.267	8324
930.372	8480
930.477	8282
930.581	8473
930.685	8396
930.79	8301
930.894	8290
930.998	8252
931.103	8374
931.207	8100
931.311	8005
931.415	7959
931.519	7753
931.623	7822
