Data from test_V78500241_3621.txt Node
Date: Fri Mar 25 14:58:55 CST 2022
User: usil
Spectrometer: V785-0024
Trigger mode: 0
Integration Time (sec): 4.000000E-1
Scans to average: 1
Nonlinearity correction enabled: false
Boxcar width: 0
Storing dark spectrum: false
XAxis mode: Wavelengths
Number of Pixels in Spectrum: 1024
>>>>>Begin Spectral Data<<<<<
801.071	21842
801.214	21774
801.356	21488
801.499	21393
801.641	21230
801.783	21348
801.926	21397
802.068	21272
802.211	21180
802.353	21062
802.496	20906
802.638	20769
802.78	20765
802.923	20667
803.065	20503
803.208	20575
803.35	20617
803.492	20667
803.635	20769
803.777	20522
803.919	20598
804.061	21032
804.204	20583
804.346	20530
804.488	20461
804.63	20613
804.773	20609
804.915	20530
805.057	20587
805.199	20476
805.341	20552
805.483	20674
805.626	20537
805.768	20404
805.91	20579
806.052	20617
806.194	20488
806.336	20727
806.478	20537
806.62	20499
806.762	20609
806.904	20716
807.046	20880
807.188	20838
807.33	20777
807.472	20925
807.614	20682
807.756	20769
807.898	20625
808.04	20560
808.182	20667
808.324	20632
808.465	20644
808.607	20758
808.749	20792
808.891	21017
809.033	21077
809.174	20861
809.316	20735
809.458	20902
809.6	20739
809.741	20933
809.883	20921
810.025	21005
810.166	20956
810.308	20994
810.45	20921
810.591	20872
810.733	20804
810.875	20663
811.016	20556
811.158	20598
811.299	20560
811.441	20651
811.582	20644
811.724	20701
811.865	20564
812.007	20545
812.148	20571
812.29	20556
812.431	20773
812.573	20910
812.714	21085
812.855	21169
812.997	21252
813.138	21325
813.279	21268
813.421	21173
813.562	20925
813.703	20918
813.845	20739
813.986	20446
814.127	20199
814.268	20263
814.41	20142
814.551	20145
814.692	20256
814.833	20001
814.974	20088
815.115	20111
815.256	20111
815.397	19944
815.539	19936
815.68	19959
815.821	20001
815.962	19913
816.103	19864
816.244	19727
816.385	19639
816.526	19578
816.666	19487
816.807	19312
816.948	19415
817.089	19247
817.23	19346
817.371	19339
817.512	19266
817.653	19259
817.793	19289
817.934	19225
818.075	19316
818.216	19354
818.356	19331
818.497	19095
818.638	18993
818.778	18924
818.919	18989
819.06	18966
819.2	19084
819.341	19122
819.481	19183
819.622	19407
819.762	19506
819.903	19411
820.043	19350
820.184	19316
820.324	19278
820.465	19251
820.605	19293
820.746	19213
820.886	19168
821.026	19084
821.167	19240
821.307	19339
821.447	19076
821.588	19012
821.728	19012
821.868	18916
822.008	18791
822.149	18604
822.289	18726
822.429	18429
822.569	18372
822.709	18369
822.849	18178
822.99	18228
823.13	18114
823.27	18045
823.41	17999
823.55	17916
823.69	17893
823.83	18068
823.97	17889
824.11	17729
824.25	17714
824.389	17866
824.529	17684
824.669	17680
824.809	17714
824.949	17783
825.089	17786
825.228	17745
825.368	17524
825.508	17524
825.648	17596
825.787	17623
825.927	17509
826.067	17478
826.206	17505
826.346	17646
826.485	17474
826.625	17551
826.765	17665
826.904	17600
827.044	17337
827.183	17227
827.323	17216
827.462	17269
827.601	17193
827.741	17143
827.88	17212
828.02	17162
828.159	17208
828.298	17208
828.437	17311
828.577	17109
828.716	17391
828.855	17181
828.994	16885
829.134	17079
829.273	17037
829.412	16934
829.551	16835
829.69	16915
829.829	16995
829.968	17117
830.107	17052
830.246	16968
830.385	16927
830.524	16904
830.663	16854
830.802	16596
830.941	16588
831.08	16516
831.219	16672
831.357	16675
831.496	16797
831.635	16512
831.774	16489
831.913	16485
832.051	16386
832.19	16329
832.329	16379
832.467	16356
832.606	16257
832.744	16257
832.883	16249
833.022	16246
833.16	16314
833.299	16284
833.437	16246
833.576	16402
833.714	16352
833.852	16424
833.991	16367
834.129	16413
834.267	16344
834.406	16333
834.544	16348
834.682	16405
834.821	16310
834.959	16447
835.097	16352
835.235	16409
835.373	16348
835.511	16295
835.65	16280
835.788	16215
835.926	16185
836.064	16147
836.202	16078
836.34	16284
836.478	16322
836.615	16238
836.753	16344
836.891	16421
837.029	16253
837.167	16253
837.305	16242
837.443	16238
837.58	16105
837.718	16173
837.856	16154
837.993	16143
838.131	16219
838.269	16067
838.406	16101
838.544	16010
838.681	15892
838.819	15865
838.956	15770
839.094	15671
839.231	15747
839.369	15873
839.506	16074
839.643	15945
839.781	15827
839.918	15808
840.055	15793
840.193	15709
840.33	15732
840.467	15823
840.604	15667
840.742	16021
840.879	15679
841.016	15648
841.153	15625
841.29	15823
841.427	15842
841.564	15789
841.701	15842
841.838	15641
841.975	15557
842.112	15720
842.249	15526
842.385	15450
842.522	15709
842.659	15538
842.796	15370
842.933	15408
843.069	15488
843.206	15412
843.343	15549
843.479	15511
843.616	15534
843.752	15367
843.889	15195
844.025	15431
844.162	15260
844.298	15363
844.435	15294
844.571	15241
844.708	15260
844.844	15447
844.98	15462
845.117	15306
845.253	15214
845.389	15161
845.525	15230
845.661	15112
845.798	15070
845.934	15100
846.07	15001
846.206	15070
846.342	15214
846.478	15020
846.614	14872
846.75	14781
846.886	14785
847.022	15047
847.158	14815
847.294	14887
847.429	14849
847.565	14792
847.701	15138
847.837	14602
847.972	14629
848.108	14769
848.244	14739
848.379	14503
848.515	14507
848.65	14507
848.786	14514
848.921	14438
849.057	14564
849.192	14545
849.328	14427
849.463	14488
849.598	14434
849.734	14305
849.869	14275
850.004	14244
850.14	14286
850.275	14248
850.41	14149
850.545	14115
850.68	14233
850.815	14210
850.95	14149
851.085	14400
851.22	14332
851.355	14187
851.49	14218
851.625	14221
851.76	14153
851.895	14092
852.03	14123
852.165	14225
852.299	14123
852.434	14301
852.569	14259
852.703	14271
852.838	14256
852.973	14396
853.107	14328
853.242	14240
853.376	14168
853.511	13993
853.645	13947
853.78	14218
853.914	14164
854.048	13982
854.183	14092
854.317	14092
854.451	14263
854.585	14027
854.72	14050
854.854	14126
854.988	13963
855.122	14100
855.256	13982
855.39	14050
855.524	14195
855.658	14164
855.792	14123
855.926	14191
856.06	14134
856.194	14282
856.327	14046
856.461	14062
856.595	14024
856.729	14084
856.862	14161
856.996	14161
857.13	14138
857.263	14214
857.397	14199
857.53	14046
857.664	14149
857.797	14183
857.931	14206
858.064	14111
858.197	14237
858.331	14111
858.464	13989
858.597	14088
858.731	14073
858.864	14073
858.997	14119
859.13	14123
859.263	14149
859.396	14149
859.529	14065
859.662	14077
859.795	14115
859.928	14168
860.061	14271
860.194	14263
860.327	14145
860.46	14096
860.592	14176
860.725	14218
860.858	14263
860.99	14092
861.123	14123
861.256	14058
861.388	14252
861.521	14906
861.653	13974
861.786	13947
861.918	14001
862.05	14020
862.183	14016
862.315	14123
862.447	14096
862.58	14012
862.712	13849
862.844	13906
862.976	13951
863.108	13932
863.24	14218
863.372	13803
863.504	13894
863.636	13890
863.768	13951
863.9	13944
864.032	13906
864.164	13826
864.296	13940
864.428	13989
864.559	13997
864.691	13989
864.823	13868
864.954	13917
865.086	13856
865.217	13928
865.349	13826
865.48	13909
865.612	13818
865.743	14050
865.875	13879
866.006	13795
866.137	13849
866.269	13761
866.4	13849
866.531	13894
866.662	13761
866.793	13784
866.924	13852
867.055	13875
867.186	13871
867.317	13883
867.448	13696
867.579	13799
867.71	13788
867.841	13784
867.972	13864
868.103	13830
868.233	13860
868.364	13868
868.495	13974
868.625	14130
868.756	14145
868.886	14008
869.017	14142
869.147	14130
869.278	14221
869.408	14145
869.539	14157
869.669	14153
869.799	14107
869.929	14286
870.06	14275
870.19	14530
870.32	14450
870.45	14503
870.58	14530
870.71	14640
870.84	14568
870.97	14560
871.1	14492
871.23	14842
871.36	14689
871.489	14697
871.619	14743
871.749	14777
871.879	14739
872.008	14800
872.138	14743
872.267	14716
872.397	14640
872.526	14507
872.656	14530
872.785	14629
872.915	14716
873.044	14785
873.173	14857
873.303	14788
873.432	14670
873.561	14849
873.69	14689
873.819	14743
873.948	14906
874.077	14758
874.206	14697
874.335	14849
874.464	14937
874.593	15119
874.722	14960
874.851	15100
874.979	15131
875.108	15176
875.237	15089
875.365	14941
875.494	15077
875.623	15203
875.751	15112
875.88	15062
876.008	15245
876.136	15393
876.265	15462
876.393	15648
876.521	15610
876.65	15572
876.778	15618
876.906	15488
877.034	15405
877.162	15306
877.29	15485
877.418	15504
877.546	15473
877.674	15534
877.802	15492
877.93	15496
878.058	15481
878.185	15336
878.313	15389
878.441	15447
878.568	15378
878.696	15477
878.824	15439
878.951	15580
879.079	15743
879.206	15804
879.333	15701
879.461	15591
879.588	15644
879.715	15641
879.842	15751
879.97	15663
880.097	15310
880.224	15329
880.351	15310
880.478	15389
880.605	15344
880.732	15355
880.859	15549
880.986	15393
881.112	15332
881.239	15268
881.366	15165
881.493	15135
881.619	15051
881.746	14998
881.872	14967
881.999	14933
882.125	14891
882.252	15085
882.378	15123
882.505	15146
882.631	14971
882.757	14842
882.883	14872
883.01	14876
883.136	14838
883.262	14731
883.388	14651
883.514	14899
883.64	14811
883.766	14701
883.892	14606
884.018	14708
884.143	14823
884.269	14800
884.395	14598
884.52	14583
884.646	14556
884.772	14530
884.897	14503
885.023	14575
885.148	14640
885.274	14636
885.399	14590
885.524	14689
885.65	14495
885.775	14594
885.9	14526
886.025	14651
886.15	14640
886.275	14583
886.4	14469
886.525	14507
886.65	14507
886.775	14355
886.9	14640
887.025	14788
887.149	14533
887.274	14324
887.399	14267
887.523	14336
887.648	14381
887.773	14240
887.897	14446
888.021	14412
888.146	14324
888.27	14473
888.395	14480
888.519	14454
888.643	14446
888.767	14377
888.891	14339
889.015	14202
889.139	14187
889.263	14202
889.387	14355
889.511	14427
889.635	14408
889.759	14218
889.883	14206
890.006	14237
890.13	14434
890.254	14168
890.377	14271
890.501	14027
890.624	14050
890.748	14100
890.871	14012
890.995	13940
891.118	13879
891.241	13864
891.364	13974
891.488	14027
891.611	13978
891.734	13936
891.857	14058
891.98	14096
892.103	14016
892.226	13974
892.349	14031
892.471	13769
892.594	13864
892.717	13944
892.839	13970
892.962	13944
893.085	13974
893.207	14020
893.33	13921
893.452	13871
893.575	13959
893.697	13944
893.819	14069
893.941	14191
894.064	14161
894.186	13887
894.308	13936
894.43	14092
894.552	14153
894.674	14115
894.796	13864
894.918	14016
895.04	14046
895.161	14183
895.283	14096
895.405	13982
895.526	14130
895.648	14084
895.769	14005
895.891	14054
896.012	14202
896.134	14111
896.255	14077
896.376	14161
896.498	14008
896.619	14225
896.74	14161
896.861	14218
896.982	14457
897.103	14579
897.224	14400
897.345	14446
897.466	14351
897.587	14419
897.708	14568
897.828	14438
897.949	14438
898.07	14294
898.19	14305
898.311	14492
898.431	14423
898.552	14461
898.672	14552
898.792	14602
898.913	14530
899.033	14495
899.153	14332
899.273	14298
899.393	14229
899.513	14313
899.633	14313
899.753	14343
899.873	14324
899.993	14358
900.113	14374
900.232	14355
900.352	14290
900.472	14214
900.591	14134
900.711	14210
900.83	14065
900.95	14267
901.069	14294
901.189	14164
901.308	13986
901.427	13868
901.546	13807
901.665	13875
901.784	13875
901.904	13757
902.023	13658
902.141	13483
902.26	13354
902.379	13552
902.498	13388
902.617	13324
902.735	13502
902.854	13445
902.973	13411
903.091	13179
903.21	13190
903.328	13244
903.446	13042
903.565	12966
903.683	13129
903.801	12894
903.919	12977
904.038	12962
904.156	12894
904.274	12928
904.392	12825
904.51	12829
904.627	12871
904.745	12856
904.863	12867
904.981	12650
905.098	12620
905.216	12540
905.334	12525
905.451	12555
905.569	12513
905.686	12570
905.803	12536
905.921	12311
906.038	12448
906.155	12372
906.272	12296
906.389	12213
906.506	12213
906.623	12106
906.74	12175
906.857	12049
906.974	11980
907.091	12091
907.208	12270
907.324	12121
907.441	12003
907.557	11832
907.674	11904
907.79	11794
907.907	11870
908.023	11908
908.139	11817
908.256	11779
908.372	11817
908.488	11817
908.604	11600
908.72	11581
908.836	11589
908.952	11642
909.068	11653
909.184	11718
909.3	11611
909.415	11707
909.531	11600
909.647	11493
909.762	11414
909.878	11429
909.993	11425
910.108	11349
910.224	11406
910.339	11353
910.454	11318
910.57	11250
910.685	11212
910.8	11562
910.915	11436
911.03	11273
911.145	11121
911.259	11208
911.374	11041
911.489	11102
911.604	11086
911.718	10881
911.833	10850
911.947	10847
912.062	10668
912.176	10908
912.291	10839
912.405	10858
912.519	10995
912.633	11132
912.748	11003
912.862	10862
912.976	10767
913.09	10744
913.204	10660
913.318	10744
913.431	10812
913.545	10816
913.659	10881
913.772	10752
913.886	10675
914	10565
914.113	10740
914.226	10714
914.34	10748
914.453	10554
914.566	10729
914.68	10535
914.793	10558
914.906	10382
915.019	10272
915.132	10314
915.245	10394
915.358	10348
915.47	10436
915.583	10390
915.696	10493
915.809	10512
915.921	10497
916.034	10386
916.146	10291
916.259	10257
916.371	10436
916.483	10382
916.595	10329
916.708	10303
916.82	10371
916.932	10238
917.044	10344
917.156	10360
917.268	10173
917.38	10181
917.491	10185
917.603	10169
917.715	10211
917.826	10287
917.938	10112
918.049	10051
918.161	10268
918.272	10424
918.384	10394
918.495	10246
918.606	10048
918.717	9968
918.828	10135
918.939	10181
919.05	10116
919.161	10074
919.272	9937
919.383	9937
919.494	10131
919.604	10337
919.715	10040
919.826	9983
919.936	10109
920.047	10192
920.157	10074
920.267	10344
920.378	10124
920.488	10097
920.598	10363
920.708	10500
920.818	10318
920.928	10341
921.038	10424
921.148	10459
921.258	10173
921.368	10021
921.477	9991
921.587	9953
921.697	9857
921.806	9968
921.916	9846
922.025	9671
922.134	9709
922.244	9599
922.353	9759
922.462	9530
922.571	9492
922.68	9405
922.789	9287
922.898	9321
923.007	9332
923.116	9405
923.224	9287
923.333	9363
923.442	9291
923.55	9218
923.659	9256
923.767	9428
923.876	9226
923.984	9302
924.092	9176
924.201	9249
924.309	9253
924.417	9237
924.525	9135
924.633	9192
924.741	9922
924.849	9017
924.956	9184
925.064	9009
925.172	9036
925.279	9001
925.387	9039
925.494	8998
925.602	9154
925.709	9154
925.816	8929
925.924	9036
926.031	9081
926.138	9055
926.245	9100
926.352	8880
926.459	9131
926.566	9127
926.673	8925
926.779	8941
926.886	8876
926.993	8766
927.099	8785
927.206	8731
927.312	8743
927.419	8727
927.525	8712
927.631	8861
927.737	8667
927.843	8689
927.95	8522
928.056	8598
928.162	8655
928.267	8708
928.373	9142
928.479	8800
928.585	8503
928.69	8579
928.796	8663
928.901	8507
929.007	8495
929.112	8579
929.218	8564
929.323	8461
929.428	8526
929.533	8518
929.638	8457
929.743	8415
929.848	8545
929.953	8473
930.058	8332
930.163	8244
930.267	8210
930.372	8324
930.477	8252
930.581	8476
930.685	8267
930.79	8214
930.894	8161
930.998	8157
931.103	8279
931.207	7982
931.311	7913
931.415	7875
931.519	7788
931.623	7662
