Data from test_V78500241_1446.txt Node
Date: Fri Mar 25 14:43:47 CST 2022
User: usil
Spectrometer: V785-0024
Trigger mode: 0
Integration Time (sec): 4.000000E-1
Scans to average: 1
Nonlinearity correction enabled: false
Boxcar width: 0
Storing dark spectrum: false
XAxis mode: Wavelengths
Number of Pixels in Spectrum: 1024
>>>>>Begin Spectral Data<<<<<
801.071	22542
801.214	22272
801.356	22177
801.499	22021
801.641	21873
801.783	21766
801.926	21797
802.068	21804
802.211	21808
802.353	21561
802.496	21473
802.638	21386
802.78	21313
802.923	21264
803.065	21180
803.208	21039
803.35	21256
803.492	21298
803.635	21268
803.777	21074
803.919	21275
804.061	21606
804.204	21260
804.346	21165
804.488	20994
804.63	21051
804.773	21066
804.915	20975
805.057	21192
805.199	21032
805.341	21237
805.483	21138
805.626	21222
805.768	20986
805.91	21154
806.052	21157
806.194	21043
806.336	21214
806.478	21089
806.62	20967
806.762	21020
806.904	21180
807.046	21523
807.188	21393
807.33	21367
807.472	21511
807.614	21397
807.756	21420
807.898	21317
808.04	21176
808.182	21317
808.324	21272
808.465	21351
808.607	21610
808.749	21907
808.891	21762
809.033	21835
809.174	21819
809.316	21492
809.458	21618
809.6	21481
809.741	21606
809.883	21660
810.025	21648
810.166	21610
810.308	21485
810.45	21625
810.591	21401
810.733	21420
810.875	21389
811.016	21135
811.158	21237
811.299	21367
811.441	21447
811.582	21538
811.724	21321
811.865	21184
812.007	21332
812.148	21283
812.29	21317
812.431	21435
812.573	21720
812.714	21610
812.855	21709
812.997	21903
813.138	21949
813.279	21838
813.421	21751
813.562	21732
813.703	21416
813.845	21424
813.986	21089
814.127	20838
814.268	20906
814.41	20960
814.551	20804
814.692	20857
814.833	20823
814.974	20758
815.115	20861
815.256	20594
815.397	20594
815.539	20724
815.68	20442
815.821	20450
815.962	20598
816.103	20541
816.244	20404
816.385	20256
816.526	20290
816.666	20077
816.807	19974
816.948	19925
817.089	20043
817.23	20012
817.371	19959
817.512	20024
817.653	20046
817.793	19989
817.934	19932
818.075	20001
818.216	19932
818.356	19951
818.497	19731
818.638	19518
818.778	19559
818.919	19590
819.06	19639
819.2	19734
819.341	19830
819.481	19761
819.622	19963
819.762	20263
819.903	20065
820.043	19967
820.184	19875
820.324	19921
820.465	19826
820.605	19921
820.746	19936
820.886	19639
821.026	19856
821.167	19837
821.307	19841
821.447	19864
821.588	19620
821.728	19693
821.868	19419
822.008	19259
822.149	19327
822.289	19308
822.429	19129
822.569	18935
822.709	19050
822.849	18848
822.99	18806
823.13	18840
823.27	18760
823.41	18608
823.55	18563
823.69	18585
823.83	18639
823.97	18563
824.11	18448
824.25	18319
824.389	18281
824.529	18399
824.669	18350
824.809	18574
824.949	18513
825.089	18464
825.228	18319
825.368	18258
825.508	18186
825.648	18102
825.787	18308
825.927	18159
826.067	18098
826.206	18144
826.346	18129
826.485	18235
826.625	18144
826.765	18186
826.904	18201
827.044	17927
827.183	17882
827.323	17855
827.462	17988
827.601	17836
827.741	17916
827.88	17760
828.02	17783
828.159	17802
828.298	17840
828.437	17965
828.577	17897
828.716	18007
828.855	17710
828.994	17619
829.134	17657
829.273	17634
829.412	17570
829.551	17642
829.69	17600
829.829	17600
829.968	17684
830.107	17604
830.246	17649
830.385	17604
830.524	17463
830.663	17402
830.802	17311
830.941	17296
831.08	17242
831.219	17330
831.357	17337
831.496	17421
831.635	17159
831.774	17117
831.913	17193
832.051	17113
832.19	16934
832.329	17029
832.467	17010
832.606	16831
832.744	17056
832.883	16892
833.022	16733
833.16	16892
833.299	17025
833.437	17052
833.576	16980
833.714	16953
833.852	17086
833.991	17037
834.129	17022
834.267	16968
834.406	16923
834.544	16968
834.682	16995
834.821	16930
834.959	16991
835.097	16919
835.235	17155
835.373	17003
835.511	16961
835.65	16706
835.788	16866
835.926	16740
836.064	16637
836.202	16664
836.34	16850
836.478	16729
836.615	16755
836.753	16820
836.891	16900
837.029	16736
837.167	16839
837.305	16755
837.443	16706
837.58	16729
837.718	16748
837.856	16740
837.993	16683
838.131	16607
838.269	16713
838.406	16554
838.544	16497
838.681	16375
838.819	16337
838.956	16200
839.094	16177
839.231	16253
839.369	16409
839.506	16664
839.643	16531
839.781	16299
839.918	16238
840.055	16333
840.193	16318
840.33	16196
840.467	16287
840.604	16230
840.742	16569
840.879	16154
841.016	16147
841.153	16284
841.29	16299
841.427	16280
841.564	16185
841.701	16200
841.838	16173
841.975	16135
842.112	16219
842.249	16074
842.385	15998
842.522	16188
842.659	16078
842.796	16013
842.933	15975
843.069	15975
843.206	15922
843.343	16131
843.479	15983
843.616	15975
843.752	15827
843.889	15789
844.025	15953
844.162	15751
844.298	15941
844.435	15835
844.571	15804
844.708	15892
844.844	16044
844.98	16051
845.117	15937
845.253	15800
845.389	15800
845.525	15846
845.661	15899
845.798	15755
845.934	15823
846.07	15774
846.206	16021
846.342	15960
846.478	15819
846.614	15507
846.75	15374
846.886	15431
847.022	15557
847.158	15306
847.294	15443
847.429	15450
847.565	15325
847.701	15557
847.837	15184
847.972	15089
848.108	15199
848.244	15161
848.379	15036
848.515	14979
848.65	14982
848.786	14967
848.921	15055
849.057	15119
849.192	15051
849.328	15066
849.463	15104
849.598	14944
849.734	14921
849.869	14777
850.004	14758
850.14	14731
850.275	14861
850.41	14602
850.545	14651
850.68	14697
850.815	14697
850.95	14762
851.085	14956
851.22	14891
851.355	14754
851.49	14678
851.625	14708
851.76	14644
851.895	14613
852.03	14590
852.165	14712
852.299	14743
852.434	14857
852.569	14777
852.703	14708
852.838	14807
852.973	14967
853.107	14929
853.242	14739
853.376	14720
853.511	14465
853.645	14476
853.78	14682
853.914	14541
854.048	14522
854.183	14594
854.317	14667
854.451	14754
854.585	14602
854.72	14541
854.854	14636
854.988	14579
855.122	14587
855.256	14530
855.39	14492
855.524	14708
855.658	14632
855.792	14625
855.926	14659
856.06	14701
856.194	14762
856.327	14587
856.461	14526
856.595	14511
856.729	14434
856.862	14689
856.996	14689
857.13	14678
857.263	14754
857.397	14796
857.53	14617
857.664	14674
857.797	14731
857.931	14765
858.064	14632
858.197	14693
858.331	14602
858.464	14640
858.597	14571
858.731	14541
858.864	14541
858.997	14533
859.13	14648
859.263	14632
859.396	14590
859.529	14571
859.662	14549
859.795	14579
859.928	14667
860.061	14758
860.194	14849
860.327	14659
860.46	14636
860.592	14667
860.725	14777
860.858	14686
860.99	14556
861.123	14511
861.256	14583
861.388	14583
861.521	15252
861.653	14393
861.786	14427
861.918	14499
862.05	14476
862.183	14613
862.315	14598
862.447	14655
862.58	14522
862.712	14377
862.844	14343
862.976	14419
863.108	14393
863.24	14891
863.372	14320
863.504	14381
863.636	14370
863.768	14385
863.9	14400
864.032	14317
864.164	14267
864.296	14415
864.428	14476
864.559	14495
864.691	14499
864.823	14412
864.954	14454
865.086	14412
865.217	14377
865.349	14256
865.48	14290
865.612	14343
865.743	14450
865.875	14374
866.006	14313
866.137	14347
866.269	14328
866.4	14412
866.531	14210
866.662	14358
866.793	14370
866.924	14294
867.055	14347
867.186	14347
867.317	14256
867.448	14267
867.579	14336
867.71	14278
867.841	14199
867.972	14290
868.103	14290
868.233	14396
868.364	14305
868.495	14396
868.625	14613
868.756	14716
868.886	14514
869.017	14568
869.147	14674
869.278	14705
869.408	14636
869.539	14602
869.669	14594
869.799	14613
869.929	14686
870.06	14693
870.19	14956
870.32	14834
870.45	14998
870.58	15001
870.71	15161
870.84	15093
870.97	14990
871.1	14910
871.23	15195
871.36	15256
871.489	15116
871.619	15169
871.749	15241
871.879	15173
872.008	15226
872.138	15230
872.267	15116
872.397	15089
872.526	14921
872.656	15062
872.785	15055
872.915	15165
873.044	15287
873.173	15142
873.303	15283
873.432	15279
873.561	15332
873.69	15249
873.819	15169
873.948	15378
874.077	15154
874.206	15291
874.335	15237
874.464	15370
874.593	15561
874.722	15431
874.851	15564
874.979	15564
875.108	15553
875.237	15526
875.365	15473
875.494	15439
875.623	15675
875.751	15576
875.88	15576
876.008	15743
876.136	15724
876.265	16002
876.393	16097
876.521	16090
876.65	16017
876.778	15956
876.906	15899
877.034	15869
877.162	15926
877.29	15964
877.418	15922
877.546	15979
877.674	15918
877.802	16067
877.93	15899
878.058	15869
878.185	15850
878.313	15930
878.441	15991
878.568	15880
878.696	15934
878.824	16059
878.951	16006
879.079	16147
879.206	16356
879.333	16287
879.461	16086
879.588	16211
879.715	16276
879.842	16348
879.97	16063
880.097	15949
880.224	15937
880.351	15911
880.478	15949
880.605	15831
880.732	15739
880.859	16105
880.986	15903
881.112	15922
881.239	15724
881.366	15781
881.493	15553
881.619	15496
881.746	15519
881.872	15458
881.999	15397
882.125	15572
882.252	15534
882.378	15549
882.505	15641
882.631	15500
882.757	15302
882.883	15431
883.01	15424
883.136	15222
883.262	15230
883.388	15085
883.514	15355
883.64	15443
883.766	15241
883.892	15157
884.018	15157
884.143	15279
884.269	15462
884.395	14990
884.52	14990
884.646	15055
884.772	14887
884.897	14849
885.023	15020
885.148	15077
885.274	15119
885.399	15062
885.524	15036
885.65	15154
885.775	14956
885.9	14937
886.025	15138
886.15	15055
886.275	14994
886.4	14842
886.525	14857
886.65	14880
886.775	14967
886.9	15157
887.025	15252
887.149	14998
887.274	14933
887.399	14807
887.523	14720
887.648	14777
887.773	14739
887.897	14944
888.021	14925
888.146	14727
888.27	14998
888.395	14929
888.519	14872
888.643	14910
888.767	14929
888.891	14804
889.015	14560
889.139	14727
889.263	14602
889.387	14807
889.511	14861
889.635	14758
889.759	14697
889.883	14632
890.006	14716
890.13	14701
890.254	14594
890.377	14667
890.501	14438
890.624	14473
890.748	14499
890.871	14434
890.995	14320
891.118	14328
891.241	14374
891.364	14469
891.488	14446
891.611	14385
891.734	14381
891.857	14511
891.98	14366
892.103	14415
892.226	14454
892.349	14381
892.471	14229
892.594	14385
892.717	14370
892.839	14309
892.962	14389
893.085	14461
893.207	14415
893.33	14218
893.452	14305
893.575	14526
893.697	14290
893.819	14537
893.941	14590
894.064	14480
894.186	14256
894.308	14286
894.43	14511
894.552	14606
894.674	14541
894.796	14351
894.918	14492
895.04	14442
895.161	14571
895.283	14549
895.405	14339
895.526	14469
895.648	14522
895.769	14492
895.891	14530
896.012	14583
896.134	14560
896.255	14507
896.376	14526
896.498	14495
896.619	14560
896.74	14549
896.861	14678
896.982	14834
897.103	15169
897.224	14857
897.345	14731
897.466	14807
897.587	14857
897.708	14868
897.828	14826
897.949	14804
898.07	14720
898.19	14720
898.311	14921
898.431	14743
898.552	14883
898.672	14960
898.792	14929
898.913	14952
899.033	14773
899.153	14750
899.273	14594
899.393	14629
899.513	14800
899.633	14785
899.753	14670
899.873	14724
899.993	14731
900.113	14670
900.232	14765
900.352	14636
900.472	14674
900.591	14602
900.711	14575
900.83	14602
900.95	14689
901.069	14629
901.189	14530
901.308	14309
901.427	14191
901.546	14248
901.665	14301
901.784	14298
901.904	14225
902.023	14005
902.141	13753
902.26	13822
902.379	13780
902.498	13856
902.617	13833
902.735	13879
902.854	13864
902.973	13814
903.091	13521
903.21	13575
903.328	13525
903.446	13502
903.565	13346
903.683	13346
903.801	13365
903.919	13354
904.038	13282
904.156	13251
904.274	13331
904.392	13297
904.51	13187
904.627	13293
904.745	13209
904.863	13221
904.981	13004
905.098	12897
905.216	12989
905.334	12859
905.451	12829
905.569	12825
905.686	12924
905.803	12844
905.921	12616
906.038	12688
906.155	12757
906.272	12673
906.389	12726
906.506	12426
906.623	12414
906.74	12418
906.857	12357
906.974	12403
907.091	12620
907.208	12677
907.324	12528
907.441	12433
907.557	12224
907.674	12300
907.79	12178
907.907	12133
908.023	12194
908.139	12251
908.256	12136
908.372	12110
908.488	12091
908.604	11965
908.72	11920
908.836	11961
908.952	11965
909.068	11984
909.184	12098
909.3	11984
909.415	11984
909.531	11958
909.647	11794
909.762	11809
909.878	11680
909.993	11764
910.108	11741
910.224	11668
910.339	11733
910.454	11619
910.57	11570
910.685	11512
910.8	11779
910.915	11623
911.03	11638
911.145	11334
911.259	11387
911.374	11379
911.489	11387
911.604	11334
911.718	11212
911.833	11265
911.947	11048
912.062	11067
912.176	11102
912.291	11178
912.405	11254
912.519	11398
912.633	11349
912.748	11284
912.862	11185
912.976	11033
913.09	10961
913.204	11071
913.318	11102
913.431	11124
913.545	11162
913.659	11185
913.772	10995
913.886	11033
914	10877
914.113	11060
914.226	11128
914.34	11056
914.453	10862
914.566	11079
914.68	10965
914.793	10862
914.906	10683
915.019	10649
915.132	10630
915.245	10687
915.358	10706
915.47	10637
915.583	10763
915.696	10755
915.809	10786
915.921	10763
916.034	10748
916.146	10679
916.259	10656
916.371	10725
916.483	10752
916.595	10603
916.708	10569
916.82	10645
916.932	10637
917.044	10554
917.156	10580
917.268	10421
917.38	10512
917.491	10512
917.603	10577
917.715	10550
917.826	10634
917.938	10455
918.049	10272
918.161	10489
918.272	10561
918.384	10596
918.495	10436
918.606	10402
918.717	10382
918.828	10344
918.939	10436
919.05	10394
919.161	10371
919.272	10169
919.383	10295
919.494	10436
919.604	10588
919.715	10341
919.826	10287
919.936	10325
920.047	10485
920.157	10417
920.267	10618
920.378	10382
920.488	10379
920.598	10573
920.708	10752
920.818	10664
920.928	10561
921.038	10763
921.148	10664
921.258	10478
921.368	10310
921.477	10284
921.587	10188
921.697	10166
921.806	10219
921.916	10139
922.025	10040
922.134	10044
922.244	9873
922.353	10036
922.462	9854
922.571	9751
922.68	9667
922.789	9606
922.898	9705
923.007	9599
923.116	9698
923.224	9610
923.333	9633
923.442	9477
923.55	9549
923.659	9557
923.767	9568
923.876	9561
923.984	9526
924.092	9500
924.201	9542
924.309	9553
924.417	9523
924.525	9382
924.633	9450
924.741	10363
924.849	9291
924.956	9351
925.064	9317
925.172	9192
925.279	9222
925.387	9268
925.494	9253
925.602	9416
925.709	9355
925.816	9214
925.924	9313
926.031	9351
926.138	9226
926.245	9370
926.352	9241
926.459	9348
926.566	9454
926.673	9287
926.779	9211
926.886	9108
926.993	9074
927.099	9028
927.206	8960
927.312	8895
927.419	9043
927.525	9074
927.631	9017
927.737	8910
927.843	8914
927.95	8773
928.056	8826
928.162	8899
928.267	8941
928.373	9481
928.479	9043
928.585	8712
928.69	8929
928.796	8868
928.901	8838
929.007	8674
929.112	8823
929.218	8796
929.323	8785
929.428	8705
929.533	8842
929.638	8667
929.743	8708
929.848	8773
929.953	8712
930.058	8617
930.163	8465
930.267	8492
930.372	8556
930.477	8442
930.581	8667
930.685	8552
930.79	8412
930.894	8431
930.998	8408
931.103	8587
931.207	8267
931.311	8187
931.415	8119
931.519	7902
931.623	7860
