Data from test_V78500241_2315.txt Node
Date: Fri Mar 25 14:49:49 CST 2022
User: usil
Spectrometer: V785-0024
Trigger mode: 0
Integration Time (sec): 4.000000E-1
Scans to average: 1
Nonlinearity correction enabled: false
Boxcar width: 0
Storing dark spectrum: false
XAxis mode: Wavelengths
Number of Pixels in Spectrum: 1024
>>>>>Begin Spectral Data<<<<<
801.071	22162
801.214	21960
801.356	21755
801.499	21819
801.641	21606
801.783	21553
801.926	21477
802.068	21515
802.211	21351
802.353	21302
802.496	21131
802.638	21100
802.78	21077
802.923	20971
803.065	20758
803.208	20838
803.35	20815
803.492	20986
803.635	21062
803.777	20960
803.919	21058
804.061	21203
804.204	21047
804.346	20811
804.488	20750
804.63	20868
804.773	20716
804.915	20971
805.057	20979
805.199	20746
805.341	20883
805.483	20975
805.626	20887
805.768	20800
805.91	20800
806.052	20811
806.194	20689
806.336	20963
806.478	20724
806.62	20773
806.762	20887
806.904	21032
807.046	21123
807.188	21116
807.33	21173
807.472	21165
807.614	21074
807.756	20986
807.898	21005
808.04	20864
808.182	20914
808.324	20830
808.465	20906
808.607	21074
808.749	21310
808.891	21359
809.033	21370
809.174	21252
809.316	21184
809.458	21275
809.6	21150
809.741	21351
809.883	21203
810.025	21420
810.166	21302
810.308	21317
810.45	21264
810.591	21150
810.733	21039
810.875	20998
811.016	20842
811.158	20998
811.299	21085
811.441	21100
811.582	21131
811.724	20925
811.865	20891
812.007	20914
812.148	20853
812.29	20914
812.431	21157
812.573	21252
812.714	21462
812.855	21367
812.997	21485
813.138	21637
813.279	21553
813.421	21538
813.562	21199
813.703	21245
813.845	20956
813.986	20982
814.127	20670
814.268	20533
814.41	20575
814.551	20514
814.692	20522
814.833	20404
814.974	20450
815.115	20488
815.256	20206
815.397	20271
815.539	20332
815.68	20218
815.821	20233
815.962	20282
816.103	20145
816.244	19989
816.385	19921
816.526	20027
816.666	19738
816.807	19704
816.948	19826
817.089	19769
817.23	19696
817.371	19624
817.512	19651
817.653	19651
817.793	19563
817.934	19548
818.075	19609
818.216	19689
818.356	19601
818.497	19403
818.638	19289
818.778	19278
818.919	19392
819.06	19487
819.2	19384
819.341	19510
819.481	19510
819.622	19655
819.762	19753
819.903	19693
820.043	19776
820.184	19601
820.324	19597
820.465	19658
820.605	19662
820.746	19590
820.886	19480
821.026	19620
821.167	19575
821.307	19670
821.447	19457
821.588	19445
821.728	19240
821.868	19156
822.008	19042
822.149	19118
822.289	19027
822.429	18787
822.569	18722
822.709	18654
822.849	18479
822.99	18471
823.13	18483
823.27	18330
823.41	18304
823.55	18285
823.69	18391
823.83	18357
823.97	18114
824.11	18076
824.25	18098
824.389	18117
824.529	18155
824.669	18152
824.809	18251
824.949	18102
825.089	18098
825.228	18022
825.368	17961
825.508	17809
825.648	17893
825.787	17958
825.927	17832
826.067	17828
826.206	17821
826.346	17828
826.485	17893
826.625	17775
826.765	17901
826.904	17722
827.044	17623
827.183	17535
827.323	17634
827.462	17657
827.601	17497
827.741	17532
827.88	17535
828.02	17417
828.159	17516
828.298	17577
828.437	17532
828.577	17482
828.716	17604
828.855	17512
828.994	17315
829.134	17383
829.273	17299
829.412	17284
829.551	17273
829.69	17189
829.829	17341
829.968	17345
830.107	17326
830.246	17296
830.385	17159
830.524	17212
830.663	17083
830.802	17060
830.941	16885
831.08	16873
831.219	16942
831.357	16980
831.496	16976
831.635	16881
831.774	16793
831.913	16820
832.051	16660
832.19	16615
832.329	16839
832.467	16618
832.606	16455
832.744	16500
832.883	16504
833.022	16538
833.16	16622
833.299	16626
833.437	16558
833.576	16603
833.714	16618
833.852	16653
833.991	16702
834.129	16630
834.267	16755
834.406	16675
834.544	16577
834.682	16531
834.821	16615
834.959	16797
835.097	16580
835.235	16656
835.373	16744
835.511	16664
835.65	16527
835.788	16531
835.926	16367
836.064	16276
836.202	16356
836.34	16554
836.478	16683
836.615	16493
836.753	16596
836.891	16599
837.029	16470
837.167	16356
837.305	16478
837.443	16436
837.58	16356
837.718	16375
837.856	16348
837.993	16424
838.131	16398
838.269	16303
838.406	16329
838.544	16295
838.681	16109
838.819	15960
838.956	15899
839.094	15922
839.231	15991
839.369	16055
839.506	16242
839.643	16143
839.781	15915
839.918	15972
840.055	15972
840.193	15918
840.33	15869
840.467	15945
840.604	15945
840.742	16192
840.879	15884
841.016	15800
841.153	15789
841.29	15968
841.427	15953
841.564	15941
841.701	15983
841.838	15953
841.975	15766
842.112	15736
842.249	15705
842.385	15599
842.522	15888
842.659	15641
842.796	15644
842.933	15751
843.069	15599
843.206	15599
843.343	15682
843.479	15652
843.616	15766
843.752	15447
843.889	15553
844.025	15610
844.162	15359
844.298	15591
844.435	15428
844.571	15431
844.708	15488
844.844	15545
844.98	15599
845.117	15580
845.253	15439
845.389	15367
845.525	15405
845.661	15401
845.798	15313
845.934	15256
846.07	15207
846.206	15370
846.342	15393
846.478	15241
846.614	15089
846.75	14975
846.886	15081
847.022	15062
847.158	15009
847.294	14990
847.429	15024
847.565	14967
847.701	15275
847.837	14880
847.972	14838
848.108	14872
848.244	14899
848.379	14708
848.515	14659
848.65	14594
848.786	14663
848.921	14625
849.057	14686
849.192	14640
849.328	14758
849.463	14712
849.598	14610
849.734	14499
849.869	14434
850.004	14396
850.14	14488
850.275	14476
850.41	14290
850.545	14381
850.68	14309
850.815	14480
850.95	14317
851.085	14533
851.22	14518
851.355	14332
851.49	14294
851.625	14343
851.76	14415
851.895	14271
852.03	14298
852.165	14454
852.299	14355
852.434	14549
852.569	14347
852.703	14457
852.838	14446
852.973	14621
853.107	14590
853.242	14370
853.376	14381
853.511	14187
853.645	14267
853.78	14400
853.914	14275
854.048	14259
854.183	14271
854.317	14290
854.451	14488
854.585	14138
854.72	14202
854.854	14328
854.988	14210
855.122	14225
855.256	14278
855.39	14130
855.524	14358
855.658	14336
855.792	14278
855.926	14355
856.06	14351
856.194	14370
856.327	14328
856.461	14252
856.595	14168
856.729	14252
856.862	14355
856.996	14317
857.13	14301
857.263	14389
857.397	14469
857.53	14347
857.664	14286
857.797	14404
857.931	14396
858.064	14271
858.197	14396
858.331	14252
858.464	14252
858.597	14195
858.731	14142
858.864	14263
858.997	14320
859.13	14282
859.263	14294
859.396	14290
859.529	14275
859.662	14301
859.795	14142
859.928	14294
860.061	14400
860.194	14533
860.327	14259
860.46	14267
860.592	14415
860.725	14317
860.858	14434
860.99	14282
861.123	14320
861.256	14324
861.388	14290
861.521	14864
861.653	14084
861.786	14157
861.918	14168
862.05	14180
862.183	14298
862.315	14237
862.447	14221
862.58	14286
862.712	14134
862.844	14016
862.976	14134
863.108	14172
863.24	14450
863.372	13959
863.504	13982
863.636	14058
863.768	14103
863.9	14081
864.032	14027
864.164	14016
864.296	14020
864.428	14119
864.559	14168
864.691	14081
864.823	14145
864.954	14050
865.086	14115
865.217	14062
865.349	14065
865.48	14012
865.612	14008
865.743	14214
865.875	14050
866.006	14050
866.137	14035
866.269	14050
866.4	13993
866.531	14024
866.662	13947
866.793	14043
866.924	14035
867.055	14062
867.186	14103
867.317	13967
867.448	13902
867.579	14008
867.71	13978
867.841	13978
867.972	14065
868.103	13932
868.233	14043
868.364	14012
868.495	14062
868.625	14244
868.756	14465
868.886	14168
869.017	14195
869.147	14381
869.278	14317
869.408	14301
869.539	14263
869.669	14347
869.799	14339
869.929	14320
870.06	14415
870.19	14613
870.32	14583
870.45	14636
870.58	14697
870.71	14762
870.84	14830
870.97	14678
871.1	14678
871.23	14834
871.36	14857
871.489	14712
871.619	14883
871.749	14857
871.879	14925
872.008	14967
872.138	14868
872.267	14762
872.397	14834
872.526	14750
872.656	14663
872.785	14678
872.915	14971
873.044	15013
873.173	14963
873.303	15020
873.432	15009
873.561	15051
873.69	14975
873.819	14933
873.948	14979
874.077	15005
874.206	14899
874.335	14918
874.464	15081
874.593	15321
874.722	15135
874.851	15245
874.979	15287
875.108	15230
875.237	15256
875.365	15066
875.494	15161
875.623	15378
875.751	15268
875.88	15302
876.008	15473
876.136	15481
876.265	15637
876.393	15720
876.521	15770
876.65	15686
876.778	15759
876.906	15538
877.034	15633
877.162	15667
877.29	15648
877.418	15690
877.546	15618
877.674	15652
877.802	15656
877.93	15732
878.058	15542
878.185	15542
878.313	15618
878.441	15603
878.568	15515
878.696	15679
878.824	15713
878.951	15827
879.079	15918
879.206	15979
879.333	15823
879.461	15701
879.588	15774
879.715	15743
879.842	15876
879.97	15804
880.097	15515
880.224	15477
880.351	15557
880.478	15561
880.605	15428
880.732	15485
880.859	15663
880.986	15523
881.112	15374
881.239	15378
881.366	15321
881.493	15165
881.619	15100
881.746	15180
881.872	15135
881.999	15112
882.125	15066
882.252	15275
882.378	15142
882.505	15370
882.631	15222
882.757	15051
882.883	14937
883.01	14918
883.136	14982
883.262	14887
883.388	14804
883.514	15123
883.64	14963
883.766	15017
883.892	14918
884.018	14853
884.143	14994
884.269	15009
884.395	14724
884.52	14636
884.646	14746
884.772	14678
884.897	14564
885.023	14708
885.148	14796
885.274	14765
885.399	14792
885.524	14621
885.65	14708
885.775	14800
885.9	14750
886.025	14868
886.15	14750
886.275	14613
886.4	14629
886.525	14606
886.65	14583
886.775	14579
886.9	14777
887.025	14944
887.149	14697
887.274	14568
887.399	14545
887.523	14415
887.648	14427
887.773	14317
887.897	14492
888.021	14629
888.146	14522
888.27	14579
888.395	14667
888.519	14575
888.643	14552
888.767	14648
888.891	14606
889.015	14377
889.139	14404
889.263	14328
889.387	14446
889.511	14526
889.635	14381
889.759	14339
889.883	14324
890.006	14454
890.13	14598
890.254	14275
890.377	14278
890.501	14157
890.624	14225
890.748	14214
890.871	14035
890.995	14084
891.118	14035
891.241	14081
891.364	14100
891.488	14225
891.611	14043
891.734	14145
891.857	14233
891.98	14134
892.103	14145
892.226	14103
892.349	14100
892.471	13978
892.594	14092
892.717	14058
892.839	14039
892.962	14180
893.085	14252
893.207	14126
893.33	14001
893.452	13963
893.575	14180
893.697	14073
893.819	14294
893.941	14237
894.064	14221
894.186	14142
894.308	13974
894.43	14233
894.552	14214
894.674	14199
894.796	14054
894.918	14130
895.04	14062
895.161	14271
895.283	14187
895.405	14119
895.526	14123
895.648	14183
895.769	14233
895.891	14256
896.012	14309
896.134	14286
896.255	14336
896.376	14206
896.498	14221
896.619	14290
896.74	14355
896.861	14374
896.982	14621
897.103	14750
897.224	14568
897.345	14450
897.466	14503
897.587	14556
897.708	14693
897.828	14564
897.949	14564
898.07	14324
898.19	14583
898.311	14674
898.431	14549
898.552	14507
898.672	14724
898.792	14674
898.913	14693
899.033	14507
899.153	14488
899.273	14366
899.393	14469
899.513	14552
899.633	14560
899.753	14537
899.873	14434
899.993	14552
900.113	14522
900.232	14465
900.352	14480
900.472	14366
900.591	14286
900.711	14320
900.83	14237
900.95	14415
901.069	14431
901.189	14275
901.308	14111
901.427	14027
901.546	14039
901.665	14062
901.784	14050
901.904	13951
902.023	13799
902.141	13639
902.26	13571
902.379	13651
902.498	13548
902.617	13510
902.735	13594
902.854	13605
902.973	13582
903.091	13350
903.21	13320
903.328	13240
903.446	13304
903.565	13228
903.683	13171
903.801	13072
903.919	13194
904.038	13103
904.156	12852
904.274	13000
904.392	12943
904.51	12951
904.627	12947
904.745	13034
904.863	13012
904.981	12779
905.098	12722
905.216	12608
905.334	12589
905.451	12684
905.569	12612
905.686	12715
905.803	12681
905.921	12532
906.038	12616
906.155	12521
906.272	12372
906.389	12380
906.506	12190
906.623	12251
906.74	12209
906.857	12247
906.974	12159
907.091	12262
907.208	12281
907.324	12273
907.441	12136
907.557	12026
907.674	12015
907.79	11931
907.907	11961
908.023	12045
908.139	11973
908.256	11931
908.372	11897
908.488	11916
908.604	11779
908.72	11577
908.836	11752
908.952	11703
909.068	11783
909.184	11840
909.3	11710
909.415	11718
909.531	11824
909.647	11539
909.762	11528
909.878	11459
909.993	11585
910.108	11459
910.224	11463
910.339	11535
910.454	11391
910.57	11341
910.685	11360
910.8	11585
910.915	11524
911.03	11356
911.145	11273
911.259	11258
911.374	11094
911.489	11181
911.604	11048
911.718	10965
911.833	10995
911.947	10938
912.062	10786
912.176	10900
912.291	10953
912.405	11052
912.519	11109
912.633	11170
912.748	11037
912.862	10965
912.976	10892
913.09	10675
913.204	10778
913.318	10896
913.431	10927
913.545	10968
913.659	10892
913.772	10866
913.886	10664
914	10702
914.113	10755
914.226	10919
914.34	10839
914.453	10607
914.566	10812
914.68	10683
914.793	10714
914.906	10504
915.019	10500
915.132	10417
915.245	10497
915.358	10451
915.47	10485
915.583	10523
915.696	10546
915.809	10599
915.921	10580
916.034	10455
916.146	10447
916.259	10363
916.371	10561
916.483	10542
916.595	10367
916.708	10409
916.82	10500
916.932	10363
917.044	10443
917.156	10375
917.268	10272
917.38	10268
917.491	10348
917.603	10367
917.715	10363
917.826	10382
917.938	10352
918.049	10223
918.161	10299
918.272	10405
918.384	10447
918.495	10337
918.606	10219
918.717	10128
918.828	10227
918.939	10227
919.05	10078
919.161	10166
919.272	10048
919.383	10067
919.494	10223
919.604	10398
919.715	10154
919.826	10116
919.936	10257
920.047	10325
920.157	10295
920.267	10443
920.378	10272
920.488	10253
920.598	10299
920.708	10546
920.818	10363
920.928	10413
921.038	10565
921.148	10485
921.258	10215
921.368	10116
921.477	10139
921.587	10059
921.697	9941
921.806	10135
921.916	9953
922.025	9823
922.134	9759
922.244	9698
922.353	9819
922.462	9591
922.571	9728
922.68	9515
922.789	9481
922.898	9447
923.007	9389
923.116	9504
923.224	9481
923.333	9496
923.442	9386
923.55	9386
923.659	9306
923.767	9317
923.876	9313
923.984	9439
924.092	9275
924.201	9302
924.309	9275
924.417	9302
924.525	9237
924.633	9195
924.741	10257
924.849	9218
924.956	9272
925.064	9085
925.172	9047
925.279	9077
925.387	9116
925.494	9131
925.602	9329
925.709	9226
925.816	9108
925.924	9135
926.031	9241
926.138	9161
926.245	9203
926.352	9043
926.459	9184
926.566	9264
926.673	9043
926.779	8960
926.886	8944
926.993	8887
927.099	8883
927.206	8830
927.312	8762
927.419	8906
927.525	8811
927.631	8834
927.737	8788
927.843	8682
927.95	8590
928.056	8705
928.162	8689
928.267	8796
928.373	9374
928.479	8849
928.585	8610
928.69	8762
928.796	8758
928.901	8674
929.007	8575
929.112	8655
929.218	8575
929.323	8537
929.428	8522
929.533	8667
929.638	8442
929.743	8533
929.848	8598
929.953	8552
930.058	8438
930.163	8294
930.267	8267
930.372	8415
930.477	8332
930.581	8476
930.685	8355
930.79	8256
930.894	8313
930.998	8374
931.103	8381
931.207	8077
931.311	8069
931.415	7917
931.519	7780
931.623	7712
