Data from test_V78500241_447.txt Node
Date: Fri Mar 25 14:36:50 CST 2022
User: usil
Spectrometer: V785-0024
Trigger mode: 0
Integration Time (sec): 4.000000E-1
Scans to average: 1
Nonlinearity correction enabled: false
Boxcar width: 0
Storing dark spectrum: false
XAxis mode: Wavelengths
Number of Pixels in Spectrum: 1024
>>>>>Begin Spectral Data<<<<<
801.071	26590
801.214	26541
801.356	26149
801.499	26278
801.641	25833
801.783	26065
801.926	26062
802.068	25936
802.211	25909
802.353	25757
802.496	25674
802.638	25533
802.78	25662
802.923	25499
803.065	25502
803.208	25506
803.35	25403
803.492	25392
803.635	25715
803.777	25491
803.919	25609
804.061	26008
804.204	25499
804.346	25483
804.488	25426
804.63	25540
804.773	25529
804.915	25479
805.057	25552
805.199	25460
805.341	25571
805.483	25548
805.626	25582
805.768	25392
805.91	25544
806.052	25635
806.194	25426
806.336	25674
806.478	25430
806.62	25472
806.762	25685
806.904	25784
807.046	26020
807.188	25826
807.33	25795
807.472	25993
807.614	25795
807.756	25849
807.898	25613
808.04	25632
808.182	25651
808.324	25655
808.465	25757
808.607	25841
808.749	26005
808.891	26259
809.033	26142
809.174	26328
809.316	26027
809.458	25966
809.6	25906
809.741	26084
809.883	26065
810.025	26130
810.166	26134
810.308	26214
810.45	26107
810.591	26058
810.733	25883
810.875	25856
811.016	25799
811.158	25731
811.299	25944
811.441	25841
811.582	25978
811.724	25852
811.865	25841
812.007	25921
812.148	25830
812.29	25791
812.431	25944
812.573	26183
812.714	26210
812.855	26317
812.997	26389
813.138	26541
813.279	26267
813.421	26408
813.562	26134
813.703	26100
813.845	26092
813.986	25685
814.127	25590
814.268	25316
814.41	25521
814.551	25289
814.692	25472
814.833	25289
814.974	25217
815.115	25289
815.256	25164
815.397	25244
815.539	25327
815.68	25107
815.821	25164
815.962	25141
816.103	25091
816.244	24996
816.385	24844
816.526	24958
816.666	24597
816.807	24517
816.948	24635
817.089	24760
817.23	24639
817.371	24559
817.512	24646
817.653	24486
817.793	24479
817.934	24559
818.075	24532
818.216	24475
818.356	24475
818.497	24414
818.638	24258
818.778	24319
818.919	24277
819.06	24178
819.2	24311
819.341	24433
819.481	24247
819.622	24525
819.762	24673
819.903	24749
820.043	24547
820.184	24544
820.324	24654
820.465	24631
820.605	24513
820.746	24536
820.886	24338
821.026	24505
821.167	24479
821.307	24616
821.447	24437
821.588	24353
821.728	24209
821.868	24064
822.008	23824
822.149	23843
822.289	23767
822.429	23619
822.569	23490
822.709	23547
822.849	23433
822.99	23406
823.13	23417
823.27	23216
823.41	23064
823.55	23140
823.69	23162
823.83	23128
823.97	22934
824.11	22930
824.25	22862
824.389	22904
824.529	23162
824.669	22850
824.809	22995
824.949	22976
825.089	23113
825.228	22984
825.368	22733
825.508	22668
825.648	22801
825.787	22679
825.927	22710
826.067	22656
826.206	22660
826.346	22710
826.485	22744
826.625	22656
826.765	22744
826.904	22691
827.044	22459
827.183	22519
827.323	22367
827.462	22409
827.601	22379
827.741	22352
827.88	22341
828.02	22310
828.159	22371
828.298	22474
828.437	22348
828.577	22238
828.716	22470
828.855	22367
828.994	22032
829.134	22181
829.273	22101
829.412	21956
829.551	22010
829.69	21964
829.829	22177
829.968	22128
830.107	22135
830.246	22048
830.385	22051
830.524	21991
830.663	21869
830.802	21808
830.941	21690
831.08	21515
831.219	21652
831.357	21747
831.496	21823
831.635	21538
831.774	21515
831.913	21530
832.051	21363
832.19	21287
832.329	21511
832.467	21386
832.606	21264
832.744	21169
832.883	21264
833.022	21245
833.16	21264
833.299	21344
833.437	21348
833.576	21515
833.714	21260
833.852	21363
833.991	21268
834.129	21420
834.267	21462
834.406	21317
834.544	21294
834.682	21332
834.821	21195
834.959	21496
835.097	21226
835.235	21420
835.373	21264
835.511	21260
835.65	21180
835.788	21256
835.926	21089
836.064	20944
836.202	21093
836.34	21176
836.478	21264
836.615	21218
836.753	21127
836.891	21093
837.029	21108
837.167	21150
837.305	21062
837.443	21081
837.58	21024
837.718	21077
837.856	20971
837.993	21066
838.131	21150
838.269	20948
838.406	20906
838.544	20819
838.681	20746
838.819	20632
838.956	20568
839.094	20503
839.231	20530
839.369	20556
839.506	20887
839.643	20625
839.781	20412
839.918	20404
840.055	20438
840.193	20309
840.33	20282
840.467	20457
840.604	20385
840.742	20689
840.879	20320
841.016	20199
841.153	20305
841.29	20492
841.427	20298
841.564	20446
841.701	20412
841.838	20240
841.975	20267
842.112	20339
842.249	20157
842.385	20111
842.522	20320
842.659	20069
842.796	20142
842.933	20134
843.069	20054
843.206	20218
843.343	20176
843.479	20088
843.616	20077
843.752	19989
843.889	19883
844.025	19989
844.162	19807
844.298	19879
844.435	19837
844.571	19734
844.708	19822
844.844	19989
844.98	19940
845.117	19940
845.253	19841
845.389	19753
845.525	19784
845.661	19635
845.798	19487
845.934	19590
846.07	19693
846.206	19715
846.342	19799
846.478	19525
846.614	19358
846.75	19304
846.886	19358
847.022	19483
847.158	19407
847.294	19426
847.429	19377
847.565	19285
847.701	19563
847.837	19050
847.972	18962
848.108	19084
848.244	19141
848.379	18897
848.515	18859
848.65	18913
848.786	19000
848.921	18844
849.057	19061
849.192	18977
849.328	18829
849.463	18928
849.598	18913
849.734	18882
849.869	18722
850.004	18654
850.14	18673
850.275	18635
850.41	18528
850.545	18525
850.68	18620
850.815	18673
850.95	18525
851.085	18715
851.22	18703
851.355	18639
851.49	18661
851.625	18589
851.76	18532
851.895	18452
852.03	18517
852.165	18559
852.299	18635
852.434	18498
852.569	18719
852.703	18601
852.838	18677
852.973	18631
853.107	18661
853.242	18585
853.376	18410
853.511	18342
853.645	18353
853.78	18597
853.914	18346
854.048	18422
854.183	18369
854.317	18429
854.451	18589
854.585	18456
854.72	18342
854.854	18452
854.988	18285
855.122	18399
855.256	18289
855.39	18403
855.524	18506
855.658	18448
855.792	18456
855.926	18441
856.06	18437
856.194	18525
856.327	18429
856.461	18361
856.595	18357
856.729	18369
856.862	18532
856.996	18422
857.13	18422
857.263	18536
857.397	18506
857.53	18426
857.664	18521
857.797	18437
857.931	18502
858.064	18384
858.197	18490
858.331	18437
858.464	18372
858.597	18277
858.731	18327
858.864	18342
858.997	18243
859.13	18266
859.263	18388
859.396	18441
859.529	18254
859.662	18270
859.795	18277
859.928	18338
860.061	18528
860.194	18563
860.327	18342
860.46	18262
860.592	18460
860.725	18486
860.858	18445
860.99	18509
861.123	18277
861.256	18410
861.388	18372
861.521	19179
861.653	18285
861.786	18289
861.918	18361
862.05	18323
862.183	18445
862.315	18494
862.447	18342
862.58	18467
862.712	18140
862.844	18102
862.976	18182
863.108	18194
863.24	18422
863.372	18057
863.504	18159
863.636	18155
863.768	18152
863.9	18057
864.032	18095
864.164	18079
864.296	18068
864.428	18232
864.559	18133
864.691	18159
864.823	18155
864.954	18125
865.086	18026
865.217	17961
865.349	18011
865.48	17988
865.612	18022
865.743	18228
865.875	18007
866.006	18041
866.137	17927
866.269	17923
866.4	17961
866.531	17923
866.662	17870
866.793	17901
866.924	17965
867.055	18083
867.186	17942
867.317	17931
867.448	17866
867.579	17916
867.71	17878
867.841	17927
867.972	17836
868.103	17999
868.233	18022
868.364	18019
868.495	18030
868.625	18232
868.756	18277
868.886	18041
869.017	18213
869.147	18213
869.278	18327
869.408	18220
869.539	18300
869.669	18201
869.799	18228
869.929	18350
870.06	18346
870.19	18498
870.32	18479
870.45	18479
870.58	18650
870.71	18631
870.84	18681
870.97	18585
871.1	18521
871.23	18665
871.36	18639
871.489	18669
871.619	18722
871.749	18749
871.879	18677
872.008	18958
872.138	18757
872.267	18764
872.397	18604
872.526	18646
872.656	18669
872.785	18555
872.915	18772
873.044	18833
873.173	18745
873.303	18920
873.432	18897
873.561	18909
873.69	18764
873.819	18798
873.948	18985
874.077	18848
874.206	18783
874.335	18795
874.464	18962
874.593	19069
874.722	19088
874.851	19107
874.979	19095
875.108	19122
875.237	19080
875.365	19118
875.494	19072
875.623	19057
875.751	18981
875.88	19084
876.008	19122
876.136	19335
876.265	19415
876.393	19582
876.521	19510
876.65	19518
876.778	19597
876.906	19491
877.034	19396
877.162	19472
877.29	19457
877.418	19521
877.546	19396
877.674	19533
877.802	19510
877.93	19419
878.058	19457
878.185	19388
878.313	19457
878.441	19445
878.568	19400
878.696	19373
878.824	19510
878.951	19529
879.079	19670
879.206	19734
879.333	19662
879.461	19544
879.588	19559
879.715	19632
879.842	19776
879.97	19449
880.097	19274
880.224	19373
880.351	19369
880.478	19274
880.605	19324
880.732	19190
880.859	19559
880.986	19403
881.112	19358
881.239	19187
881.366	19179
881.493	18947
881.619	18947
881.746	18890
881.872	18985
881.999	18901
882.125	18943
882.252	18958
882.378	18943
882.505	19053
882.631	18890
882.757	18681
882.883	18795
883.01	18726
883.136	18646
883.262	18646
883.388	18532
883.514	18677
883.64	18722
883.766	18726
883.892	18498
884.018	18502
884.143	18669
884.269	18837
884.395	18441
884.52	18422
884.646	18388
884.772	18300
884.897	18262
885.023	18357
885.148	18467
885.274	18486
885.399	18410
885.524	18357
885.65	18391
885.775	18479
885.9	18247
886.025	18517
886.15	18448
886.275	18365
886.4	18247
886.525	18277
886.65	18178
886.775	18262
886.9	18452
887.025	18475
887.149	18315
887.274	18091
887.399	18129
887.523	18159
887.648	18076
887.773	18064
887.897	18251
888.021	18213
888.146	18083
888.27	18182
888.395	18304
888.519	18209
888.643	18068
888.767	18098
888.891	18030
889.015	17927
889.139	18076
889.263	17946
889.387	18003
889.511	18079
889.635	18041
889.759	17908
889.883	17798
890.006	17942
890.13	17984
890.254	17866
890.377	17912
890.501	17714
890.624	17691
890.748	17737
890.871	17638
890.995	17452
891.118	17634
891.241	17490
891.364	17608
891.488	17649
891.611	17589
891.734	17520
891.857	17630
891.98	17551
892.103	17680
892.226	17627
892.349	17543
892.471	17444
892.594	17452
892.717	17474
892.839	17611
892.962	17535
893.085	17585
893.207	17490
893.33	17334
893.452	17398
893.575	17528
893.697	17410
893.819	17695
893.941	17710
894.064	17741
894.186	17345
894.308	17406
894.43	17615
894.552	17661
894.674	17581
894.796	17493
894.918	17520
895.04	17486
895.161	17623
895.283	17585
895.405	17368
895.526	17463
895.648	17501
895.769	17581
895.891	17554
896.012	17642
896.134	17627
896.255	17661
896.376	17627
896.498	17524
896.619	17737
896.74	17570
896.861	17619
896.982	17973
897.103	18140
897.224	17992
897.345	17874
897.466	17733
897.587	17908
897.708	17874
897.828	17817
897.949	17798
898.07	17691
898.19	17779
898.311	17946
898.431	17828
898.552	17889
898.672	17904
898.792	17863
898.913	17863
899.033	17665
899.153	17665
899.273	17547
899.393	17512
899.513	17672
899.633	17604
899.753	17573
899.873	17566
899.993	17596
900.113	17589
900.232	17680
900.352	17646
900.472	17406
900.591	17478
900.711	17455
900.83	17421
900.95	17672
901.069	17547
901.189	17383
901.308	17140
901.427	17071
901.546	17052
901.665	17094
901.784	17022
901.904	16949
902.023	16767
902.141	16668
902.26	16607
902.379	16664
902.498	16634
902.617	16531
902.735	16626
902.854	16679
902.973	16459
903.091	16287
903.21	16211
903.328	16268
903.446	16166
903.565	16143
903.683	16086
903.801	16006
903.919	16044
904.038	16131
904.156	15873
904.274	16097
904.392	15876
904.51	15941
904.627	15884
904.745	15941
904.863	15907
904.981	15709
905.098	15519
905.216	15599
905.334	15603
905.451	15542
905.569	15523
905.686	15572
905.803	15469
905.921	15325
906.038	15431
906.155	15336
906.272	15199
906.389	15249
906.506	15146
906.623	15085
906.74	15093
906.857	14929
906.974	15036
907.091	15119
907.208	15348
907.324	15203
907.441	14891
907.557	14811
907.674	14781
907.79	14693
907.907	14735
908.023	14746
908.139	14906
908.256	14804
908.372	14644
908.488	14644
908.604	14514
908.72	14545
908.836	14488
908.952	14473
909.068	14545
909.184	14457
909.3	14499
909.415	14533
909.531	14465
909.647	14275
909.762	14252
909.878	14248
909.993	14339
910.108	14149
910.224	14164
910.339	14161
910.454	14142
910.57	13978
910.685	13993
910.8	14298
910.915	14183
911.03	14073
911.145	13849
911.259	13879
911.374	13955
911.489	13734
911.604	13761
911.718	13632
911.833	13734
911.947	13586
912.062	13445
912.176	13578
912.291	13567
912.405	13529
912.519	13784
912.633	13715
912.748	13613
912.862	13616
912.976	13499
913.09	13354
913.204	13441
913.318	13449
913.431	13514
913.545	13533
913.659	13578
913.772	13460
913.886	13316
914	13270
914.113	13327
914.226	13434
914.34	13464
914.453	13244
914.566	13354
914.68	13263
914.793	13202
914.906	13012
915.019	13000
915.132	12951
915.245	12943
915.358	13004
915.47	12981
915.583	12973
915.696	13023
915.809	13118
915.921	13076
916.034	12848
916.146	12829
916.259	12905
916.371	12977
916.483	12947
916.595	12810
916.708	12814
916.82	12897
916.932	12825
917.044	12844
917.156	12768
917.268	12635
917.38	12734
917.491	12791
917.603	12673
917.715	12837
917.826	12798
917.938	12734
918.049	12494
918.161	12658
918.272	12722
918.384	12806
918.495	12688
918.606	12483
918.717	12433
918.828	12582
918.939	12559
919.05	12357
919.161	12441
919.272	12296
919.383	12304
919.494	12574
919.604	12703
919.715	12464
919.826	12365
919.936	12486
920.047	12555
920.157	12502
920.267	12547
920.378	12483
920.488	12361
920.598	12623
920.708	12757
920.818	12582
920.928	12662
921.038	12791
921.148	12791
921.258	12490
921.368	12308
921.477	12243
921.587	12289
921.697	12140
921.806	12224
921.916	12030
922.025	11939
922.134	11916
922.244	11931
922.353	12079
922.462	11828
922.571	11726
922.68	11547
922.789	11501
922.898	11604
923.007	11463
923.116	11604
923.224	11604
923.333	11505
923.442	11482
923.55	11387
923.659	11433
923.767	11471
923.876	11379
923.984	11467
924.092	11318
924.201	11395
924.309	11288
924.417	11364
924.525	11288
924.633	11273
924.741	12209
924.849	11201
924.956	11311
925.064	11140
925.172	10968
925.279	11128
925.387	11181
925.494	11067
925.602	11216
925.709	11181
925.816	11022
925.924	11075
926.031	11216
926.138	11052
926.245	11143
926.352	11029
926.459	11090
926.566	11083
926.673	10946
926.779	10854
926.886	10858
926.993	10752
927.099	10733
927.206	10634
927.312	10660
927.419	10862
927.525	10759
927.631	10767
927.737	10512
927.843	10611
927.95	10493
928.056	10630
928.162	10660
928.267	10630
928.373	11162
928.479	10622
928.585	10459
928.69	10508
928.796	10550
928.901	10493
929.007	10360
929.112	10497
929.218	10409
929.323	10356
929.428	10314
929.533	10443
929.638	10238
929.743	10230
929.848	10272
929.953	10249
930.058	10291
930.163	9998
930.267	10029
930.372	10215
930.477	10029
930.581	10257
930.685	10093
930.79	9987
930.894	9953
930.998	10036
931.103	10055
931.207	9679
931.311	9538
931.415	9557
931.519	9382
931.623	9389
