Data from test_V78500241_93.txt Node
Date: Fri Mar 25 14:34:22 CST 2022
User: usil
Spectrometer: V785-0024
Trigger mode: 0
Integration Time (sec): 4.000000E-1
Scans to average: 1
Nonlinearity correction enabled: false
Boxcar width: 0
Storing dark spectrum: false
XAxis mode: Wavelengths
Number of Pixels in Spectrum: 1024
>>>>>Begin Spectral Data<<<<<
801.071	28763
801.214	28786
801.356	28428
801.499	28344
801.641	28318
801.783	28390
801.926	28310
802.068	28185
802.211	28139
802.353	28166
802.496	27930
802.638	27941
802.78	27934
802.923	27701
803.065	27804
803.208	27812
803.35	27778
803.492	27857
803.635	28093
803.777	27838
803.919	27975
804.061	28276
804.204	28074
804.346	27895
804.488	27823
804.63	27880
804.773	27797
804.915	27835
805.057	27918
805.199	27888
805.341	27975
805.483	28074
805.626	28032
805.768	27960
805.91	28101
806.052	28139
806.194	27987
806.336	28299
806.478	28097
806.62	28063
806.762	28078
806.904	28379
807.046	28546
807.188	28440
807.33	28367
807.472	28489
807.614	28493
807.756	28497
807.898	28462
808.04	28325
808.182	28504
808.324	28557
808.465	28649
808.607	28900
808.749	29197
808.891	29265
809.033	29448
809.174	29277
809.316	29143
809.458	28923
809.6	28812
809.741	28892
809.883	28854
810.025	28828
810.166	28934
810.308	28847
810.45	28812
810.591	28740
810.733	28577
810.875	28493
811.016	28337
811.158	28287
811.299	28462
811.441	28622
811.582	28512
811.724	28413
811.865	28424
812.007	28261
812.148	28367
812.29	28504
812.431	28504
812.573	28672
812.714	28778
812.855	28949
812.997	28949
813.138	29155
813.279	28984
813.421	29018
813.562	28858
813.703	28812
813.845	28557
813.986	28310
814.127	28116
814.268	28109
814.41	28242
814.551	27930
814.692	28105
814.833	27979
814.974	27903
815.115	27922
815.256	27922
815.397	27766
815.539	27846
815.68	27701
815.821	27751
815.962	27705
816.103	27717
816.244	27595
816.385	27488
816.526	27363
816.666	27062
816.807	27047
816.948	27218
817.089	27230
817.23	27154
817.371	27135
817.512	27020
817.653	27062
817.793	27017
817.934	26998
818.075	27074
818.216	27036
818.356	26975
818.497	27039
818.638	26853
818.778	26834
818.919	26788
819.06	26838
819.2	26861
819.341	26899
819.481	26925
819.622	27142
819.762	27252
819.903	27226
820.043	27180
820.184	27017
820.324	27055
820.465	27214
820.605	26914
820.746	26948
820.886	26815
821.026	26998
821.167	26979
821.307	27047
821.447	26857
821.588	26849
821.728	26594
821.868	26526
822.008	26282
822.149	26389
822.289	26324
822.429	26046
822.569	26077
822.709	25982
822.849	25841
822.99	25845
823.13	25772
823.27	25807
823.41	25655
823.55	25518
823.69	25681
823.83	25594
823.97	25582
824.11	25354
824.25	25320
824.389	25346
824.529	25521
824.669	25495
824.809	25472
824.949	25518
825.089	25499
825.228	25502
825.368	25190
825.508	25194
825.648	25278
825.787	25247
825.927	25206
826.067	25046
826.206	25247
826.346	25320
826.485	25335
826.625	25240
826.765	25179
826.904	25221
827.044	24833
827.183	25042
827.323	24871
827.462	24909
827.601	24776
827.741	25008
827.88	24802
828.02	24673
828.159	24696
828.298	24791
828.437	24837
828.577	24852
828.716	25057
828.855	24741
828.994	24627
829.134	24532
829.273	24544
829.412	24490
829.551	24517
829.69	24494
829.829	24342
829.968	24498
830.107	24673
830.246	24407
830.385	24429
830.524	24330
830.663	24357
830.802	24186
830.941	24190
831.08	24102
831.219	24140
831.357	24144
831.496	24228
831.635	24102
831.774	23920
831.913	23927
832.051	23946
832.19	23798
832.329	23756
832.467	23668
832.606	23802
832.744	23733
832.883	23783
833.022	23642
833.16	23684
833.299	23695
833.437	23733
833.576	23733
833.714	23672
833.852	23821
833.991	23760
834.129	23802
834.267	23824
834.406	23741
834.544	23863
834.682	23668
834.821	23745
834.959	23878
835.097	23642
835.235	23745
835.373	23687
835.511	23699
835.65	23459
835.788	23440
835.926	23353
836.064	23235
836.202	23239
836.34	23497
836.478	23554
836.615	23478
836.753	23585
836.891	23387
837.029	23478
837.167	23433
837.305	23410
837.443	23414
837.58	23235
837.718	23387
837.856	23421
837.993	23322
838.131	23239
838.269	23220
838.406	23212
838.544	23075
838.681	22995
838.819	22915
838.956	22752
839.094	22866
839.231	22816
839.369	22889
839.506	23041
839.643	22995
839.781	22763
839.918	22797
840.055	22725
840.193	22733
840.33	22557
840.467	22725
840.604	22687
840.742	22824
840.879	22459
841.016	22519
841.153	22493
841.29	22763
841.427	22622
841.564	22611
841.701	22554
841.838	22634
841.975	22409
842.112	22485
842.249	22394
842.385	22348
842.522	22557
842.659	22356
842.796	22280
842.933	22379
843.069	22348
843.206	22291
843.343	22565
843.479	22257
843.616	22333
843.752	22029
843.889	22223
844.025	22303
844.162	22070
844.298	22181
844.435	21983
844.571	21998
844.708	21998
844.844	22192
844.98	22287
845.117	22223
845.253	22051
845.389	22116
845.525	22158
845.661	22371
845.798	22489
845.934	22641
846.07	22626
846.206	22717
846.342	22573
846.478	22188
846.614	21998
846.75	21751
846.886	21663
847.022	21720
847.158	21458
847.294	21530
847.429	21511
847.565	21526
847.701	21709
847.837	21245
847.972	21135
848.108	21275
848.244	21252
848.379	21093
848.515	21020
848.65	21017
848.786	21074
848.921	21180
849.057	21093
849.192	21161
849.328	20960
849.463	21043
849.598	20956
849.734	20925
849.869	20902
850.004	20727
850.14	20857
850.275	20838
850.41	20568
850.545	20659
850.68	20811
850.815	20754
850.95	20693
851.085	20948
851.22	20785
851.355	20781
851.49	20765
851.625	20590
851.76	20609
851.895	20587
852.03	20583
852.165	20663
852.299	20674
852.434	20769
852.569	20686
852.703	20769
852.838	20678
852.973	20864
853.107	20902
853.242	20609
853.376	20560
853.511	20381
853.645	20545
853.78	20590
853.914	20640
854.048	20537
854.183	20514
854.317	20552
854.451	20670
854.585	20598
854.72	20415
854.854	20594
854.988	20450
855.122	20674
855.256	20317
855.39	20427
855.524	20670
855.658	20503
855.792	20450
855.926	20590
856.06	20419
856.194	20606
856.327	20571
856.461	20446
856.595	20564
856.729	20465
856.862	20590
856.996	20431
857.13	20514
857.263	20533
857.397	20579
857.53	20602
857.664	20511
857.797	20507
857.931	20686
858.064	20590
858.197	20644
858.331	20465
858.464	20374
858.597	20450
858.731	20427
858.864	20469
858.997	20431
859.13	20423
859.263	20423
859.396	20629
859.529	20351
859.662	20267
859.795	20412
859.928	20434
860.061	20518
860.194	20655
860.327	20450
860.46	20442
860.592	20552
860.725	20609
860.858	20571
860.99	20301
861.123	20240
861.256	20313
861.388	20336
861.521	21036
861.653	20210
861.786	20191
861.918	20286
862.05	20351
862.183	20552
862.315	20446
862.447	20484
862.58	20488
862.712	20271
862.844	20210
862.976	20298
863.108	20180
863.24	20549
863.372	20187
863.504	20172
863.636	20172
863.768	20199
863.9	20069
864.032	20145
864.164	20062
864.296	20130
864.428	20130
864.559	20111
864.691	20164
864.823	20126
864.954	20138
865.086	20218
865.217	20069
865.349	19947
865.48	20046
865.612	20035
865.743	20145
865.875	20043
866.006	19955
866.137	20092
866.269	19982
866.4	20039
866.531	19849
866.662	19993
866.793	19898
866.924	19928
867.055	19986
867.186	19947
867.317	19921
867.448	19909
867.579	19944
867.71	19868
867.841	19818
867.972	20069
868.103	19936
868.233	19906
868.364	20008
868.495	20122
868.625	20157
868.756	20324
868.886	20100
869.017	20107
869.147	20218
869.278	20210
869.408	20183
869.539	20225
869.669	20275
869.799	20282
869.929	20202
870.06	20225
870.19	20514
870.32	20381
870.45	20518
870.58	20590
870.71	20731
870.84	20655
870.97	20575
871.1	20522
871.23	20842
871.36	20864
871.489	20773
871.619	20731
871.749	20731
871.879	20758
872.008	20853
872.138	20754
872.267	20743
872.397	20564
872.526	20590
872.656	20629
872.785	20564
872.915	20868
873.044	20872
873.173	20773
873.303	20758
873.432	20800
873.561	20975
873.69	20842
873.819	20769
873.948	20948
874.077	20754
874.206	20845
874.335	20739
874.464	20971
874.593	21077
874.722	21024
874.851	21157
874.979	21176
875.108	21058
875.237	21077
875.365	20925
875.494	21028
875.623	21154
875.751	21146
875.88	21222
876.008	21268
876.136	21249
876.265	21580
876.393	21614
876.521	21610
876.65	21435
876.778	21534
876.906	21408
877.034	21363
877.162	21447
877.29	21252
877.418	21473
877.546	21481
877.674	21492
877.802	21538
877.93	21496
878.058	21428
878.185	21416
878.313	21576
878.441	21534
878.568	21332
878.696	21622
878.824	21580
878.951	21641
879.079	21778
879.206	21964
879.333	21903
879.461	21823
879.588	21949
879.715	21983
879.842	22055
879.97	21994
880.097	21591
880.224	21523
880.351	21534
880.478	21481
880.605	21370
880.732	21310
880.859	21686
880.986	21325
881.112	21488
881.239	21268
881.366	21077
881.493	21077
881.619	21020
881.746	20956
881.872	21051
881.999	20853
882.125	20872
882.252	21112
882.378	20925
882.505	21108
882.631	20830
882.757	20762
882.883	20872
883.01	20800
883.136	20712
883.262	20507
883.388	20522
883.514	20739
883.64	20800
883.766	20617
883.892	20492
884.018	20625
884.143	20731
884.269	20815
884.395	20511
884.52	20442
884.646	20514
884.772	20419
884.897	20328
885.023	20404
885.148	20412
885.274	20549
885.399	20423
885.524	20374
885.65	20366
885.775	20381
885.9	20271
886.025	20492
886.15	20423
886.275	20317
886.4	20294
886.525	20233
886.65	20145
886.775	20218
886.9	20381
887.025	20438
887.149	20164
887.274	20176
887.399	20084
887.523	20122
887.648	20001
887.773	19989
887.897	20103
888.021	20149
888.146	20008
888.27	20145
888.395	20050
888.519	19978
888.643	20077
888.767	20035
888.891	19997
889.015	19765
889.139	19909
889.263	19852
889.387	19864
889.511	20065
889.635	19860
889.759	19719
889.883	19845
890.006	19807
890.13	19951
890.254	19742
890.377	19670
890.501	19480
890.624	19552
890.748	19510
890.871	19514
890.995	19346
891.118	19354
891.241	19441
891.364	19419
891.488	19476
891.611	19350
891.734	19388
891.857	19411
891.98	19343
892.103	19403
892.226	19460
892.349	19183
892.471	19259
892.594	19293
892.717	19339
892.839	19331
892.962	19270
893.085	19483
893.207	19107
893.33	19156
893.452	19183
893.575	19289
893.697	19251
893.819	19396
893.941	19445
894.064	19362
894.186	19339
894.308	19164
894.43	19422
894.552	19483
894.674	19365
894.796	19198
894.918	19312
895.04	19187
895.161	19339
895.283	19244
895.405	19304
895.526	19228
895.648	19350
895.769	19194
895.891	19426
896.012	19324
896.134	19346
896.255	19327
896.376	19308
896.498	19362
896.619	19365
896.74	19304
896.861	19441
896.982	19620
897.103	19674
897.224	19628
897.345	19495
897.466	19548
897.587	19510
897.708	19674
897.828	19586
897.949	19548
898.07	19308
898.19	19464
898.311	19582
898.431	19537
898.552	19529
898.672	19521
898.792	19582
898.913	19499
899.033	19403
899.153	19327
899.273	19194
899.393	19198
899.513	19335
899.633	19335
899.753	19285
899.873	19175
899.993	19247
900.113	19266
900.232	19251
900.352	19091
900.472	19148
900.591	18939
900.711	19080
900.83	19023
900.95	19221
901.069	19171
901.189	18951
901.308	18688
901.427	18589
901.546	18612
901.665	18635
901.784	18688
901.904	18536
902.023	18464
902.141	18266
902.26	18163
902.379	18174
902.498	18144
902.617	18152
902.735	18224
902.854	18038
902.973	18045
903.091	17931
903.21	17775
903.328	17764
903.446	17680
903.565	17653
903.683	17722
903.801	17528
903.919	17661
904.038	17551
904.156	17478
904.274	17497
904.392	17368
904.51	17440
904.627	17429
904.745	17459
904.863	17433
904.981	17181
905.098	17071
905.216	17010
905.334	17086
905.451	17075
905.569	17056
905.686	17048
905.803	16968
905.921	16915
906.038	16869
906.155	16873
906.272	16694
906.389	16793
906.506	16630
906.623	16596
906.74	16550
906.857	16470
906.974	16466
907.091	16546
907.208	16622
907.324	16538
907.441	16394
907.557	16268
907.674	16261
907.79	16166
907.907	16230
908.023	16230
908.139	16344
908.256	16112
908.372	16090
908.488	16109
908.604	15968
908.72	15899
908.836	15915
908.952	15892
909.068	15922
909.184	16006
909.3	15888
909.415	15983
909.531	15937
909.647	15625
909.762	15686
909.878	15610
909.993	15584
910.108	15545
910.224	15587
910.339	15625
910.454	15568
910.57	15557
910.685	15386
910.8	15720
910.915	15595
911.03	15382
911.145	15287
911.259	15157
911.374	15211
911.489	15146
911.604	15112
911.718	15119
911.833	15036
911.947	14956
912.062	14773
912.176	14895
912.291	14929
912.405	14960
912.519	15131
912.633	15165
912.748	14990
912.862	14952
912.976	14883
913.09	14792
913.204	14754
913.318	14811
913.431	14830
913.545	14804
913.659	14872
913.772	14705
913.886	14731
914	14705
914.113	14746
914.226	14785
914.34	14674
914.453	14606
914.566	14530
914.68	14530
914.793	14514
914.906	14343
915.019	14309
915.132	14187
915.245	14195
915.358	14324
915.47	14278
915.583	14244
915.696	14362
915.809	14393
915.921	14461
916.034	14206
916.146	14183
916.259	14218
916.371	14233
916.483	14218
916.595	14046
916.708	14119
916.82	14142
916.932	14126
917.044	14092
917.156	14005
917.268	13932
917.38	13909
917.491	13936
917.603	13970
917.715	14092
917.826	14024
917.938	13974
918.049	13822
918.161	13982
918.272	14043
918.384	13963
918.495	13951
918.606	13712
918.717	13674
918.828	13734
918.939	13746
919.05	13597
919.161	13529
919.272	13487
919.383	13552
919.494	13681
919.604	13871
919.715	13674
919.826	13582
919.936	13643
920.047	13670
920.157	13655
920.267	13738
920.378	13784
920.488	13643
920.598	13849
920.708	13860
920.818	13765
920.928	13799
921.038	13871
921.148	13925
921.258	13537
921.368	13563
921.477	13396
921.587	13278
921.697	13244
921.806	13464
921.916	13225
922.025	13103
922.134	13103
922.244	13065
922.353	13061
922.462	12859
922.571	12867
922.68	12684
922.789	12700
922.898	12760
923.007	12711
923.116	12741
923.224	12662
923.333	12578
923.442	12582
923.55	12555
923.659	12555
923.767	12601
923.876	12395
923.984	12528
924.092	12323
924.201	12380
924.309	12426
924.417	12357
924.525	12433
924.633	12426
924.741	13400
924.849	12266
924.956	12369
925.064	12258
925.172	12095
925.279	12190
925.387	12159
925.494	12186
925.602	12239
925.709	12201
925.816	12148
925.924	12155
926.031	12213
926.138	12068
926.245	12152
926.352	11897
926.459	12136
926.566	12133
926.673	12125
926.779	11870
926.886	11889
926.993	11843
927.099	11733
927.206	11665
927.312	11611
927.419	11737
927.525	11771
927.631	11794
927.737	11596
927.843	11554
927.95	11509
928.056	11596
928.162	11623
928.267	11608
928.373	12167
928.479	11649
928.585	11398
928.69	11532
928.796	11524
928.901	11486
929.007	11277
929.112	11520
929.218	11349
929.323	11288
929.428	11330
929.533	11448
929.638	11318
929.743	11311
929.848	11296
929.953	11216
930.058	11193
930.163	11041
930.267	11025
930.372	11124
930.477	10984
930.581	11239
930.685	11056
930.79	10942
930.894	10793
930.998	10904
931.103	10965
931.207	10691
931.311	10637
931.415	10504
931.519	10356
931.623	10219
