Data from test_V78500241_2408.txt Node
Date: Fri Mar 25 14:50:28 CST 2022
User: usil
Spectrometer: V785-0024
Trigger mode: 0
Integration Time (sec): 4.000000E-1
Scans to average: 1
Nonlinearity correction enabled: false
Boxcar width: 0
Storing dark spectrum: false
XAxis mode: Wavelengths
Number of Pixels in Spectrum: 1024
>>>>>Begin Spectral Data<<<<<
801.071	22097
801.214	22063
801.356	21755
801.499	21644
801.641	21515
801.783	21393
801.926	21481
802.068	21302
802.211	21329
802.353	21370
802.496	21032
802.638	21020
802.78	20990
802.923	20933
803.065	20720
803.208	20887
803.35	20830
803.492	20918
803.635	20960
803.777	20792
803.919	20861
804.061	21146
804.204	20880
804.346	20731
804.488	20743
804.63	20765
804.773	20613
804.915	20697
805.057	20838
805.199	20697
805.341	20804
805.483	20811
805.626	20823
805.768	20648
805.91	20693
806.052	20750
806.194	20632
806.336	20769
806.478	20697
806.62	20743
806.762	20667
806.904	20986
807.046	21005
807.188	21074
807.33	20982
807.472	21146
807.614	20986
807.756	20986
807.898	20792
808.04	20807
808.182	20830
808.324	20800
808.465	20857
808.607	21047
808.749	21066
808.891	21192
809.033	21256
809.174	21108
809.316	21119
809.458	21108
809.6	21104
809.741	21165
809.883	21161
810.025	21298
810.166	21310
810.308	21252
810.45	21154
810.591	21127
810.733	20998
810.875	20876
811.016	20834
811.158	20754
811.299	20853
811.441	21096
811.582	21093
811.724	20956
811.865	20811
812.007	20880
812.148	20781
812.29	20990
812.431	21066
812.573	21169
812.714	21252
812.855	21469
812.997	21515
813.138	21663
813.279	21519
813.421	21359
813.562	21313
813.703	21127
813.845	21036
813.986	20716
814.127	20674
814.268	20431
814.41	20434
814.551	20465
814.692	20511
814.833	20381
814.974	20400
815.115	20374
815.256	20275
815.397	20309
815.539	20214
815.68	20317
815.821	20195
815.962	20176
816.103	20062
816.244	19970
816.385	19940
816.526	19822
816.666	19708
816.807	19658
816.948	19761
817.089	19769
817.23	19647
817.371	19556
817.512	19548
817.653	19632
817.793	19533
817.934	19552
818.075	19571
818.216	19590
818.356	19609
818.497	19396
818.638	19285
818.778	19301
818.919	19327
819.06	19362
819.2	19384
819.341	19339
819.481	19449
819.622	19590
819.762	19719
819.903	19635
820.043	19750
820.184	19563
820.324	19514
820.465	19712
820.605	19556
820.746	19521
820.886	19403
821.026	19438
821.167	19373
821.307	19521
821.447	19521
821.588	19384
821.728	19164
821.868	19023
822.008	18905
822.149	18958
822.289	18985
822.429	18684
822.569	18665
822.709	18559
822.849	18479
822.99	18395
823.13	18429
823.27	18372
823.41	18319
823.55	18266
823.69	18273
823.83	18144
823.97	18262
824.11	18026
824.25	18102
824.389	17980
824.529	18011
824.669	17977
824.809	18102
824.949	18079
825.089	18057
825.228	17954
825.368	17729
825.508	17779
825.648	17794
825.787	17832
825.927	17794
826.067	17756
826.206	17748
826.346	17874
826.485	17805
826.625	17745
826.765	17999
826.904	17802
827.044	17642
827.183	17501
827.323	17516
827.462	17482
827.601	17421
827.741	17512
827.88	17543
828.02	17334
828.159	17387
828.298	17410
828.437	17524
828.577	17360
828.716	17623
828.855	17425
828.994	17261
829.134	17208
829.273	17296
829.412	17048
829.551	17128
829.69	17162
829.829	17261
829.968	17303
830.107	17174
830.246	17197
830.385	17128
830.524	17079
830.663	17052
830.802	17006
830.941	16911
831.08	16767
831.219	17014
831.357	16892
831.496	17029
831.635	16858
831.774	16774
831.913	16755
832.051	16729
832.19	16561
832.329	16713
832.467	16489
832.606	16440
832.744	16561
832.883	16489
833.022	16470
833.16	16512
833.299	16573
833.437	16561
833.576	16565
833.714	16478
833.852	16603
833.991	16508
834.129	16618
834.267	16691
834.406	16508
834.544	16550
834.682	16577
834.821	16584
834.959	16774
835.097	16561
835.235	16618
835.373	16596
835.511	16641
835.65	16519
835.788	16455
835.926	16291
836.064	16242
836.202	16318
836.34	16630
836.478	16611
836.615	16402
836.753	16466
836.891	16607
837.029	16512
837.167	16443
837.305	16371
837.443	16344
837.58	16322
837.718	16367
837.856	16318
837.993	16177
838.131	16417
838.269	16253
838.406	16291
838.544	16109
838.681	16090
838.819	16074
838.956	15888
839.094	15907
839.231	15960
839.369	16074
839.506	16329
839.643	16147
839.781	15865
839.918	15808
840.055	15899
840.193	15812
840.33	15850
840.467	15907
840.604	15926
840.742	16162
840.879	15690
841.016	15709
841.153	15793
841.29	15945
841.427	15850
841.564	15865
841.701	15880
841.838	15911
841.975	15873
842.112	15781
842.249	15762
842.385	15580
842.522	15800
842.659	15724
842.796	15686
842.933	15785
843.069	15656
843.206	15538
843.343	15755
843.479	15732
843.616	15663
843.752	15435
843.889	15477
844.025	15584
844.162	15412
844.298	15466
844.435	15431
844.571	15416
844.708	15519
844.844	15549
844.98	15500
845.117	15511
845.253	15393
845.389	15195
845.525	15412
845.661	15367
845.798	15180
845.934	15264
846.07	15207
846.206	15363
846.342	15310
846.478	15249
846.614	15074
846.75	15039
846.886	14956
847.022	15135
847.158	15055
847.294	15017
847.429	15108
847.565	14979
847.701	15211
847.837	14823
847.972	14697
848.108	14925
848.244	14845
848.379	14735
848.515	14610
848.65	14522
848.786	14560
848.921	14693
849.057	14746
849.192	14731
849.328	14625
849.463	14659
849.598	14636
849.734	14594
849.869	14495
850.004	14412
850.14	14446
850.275	14374
850.41	14358
850.545	14320
850.68	14355
850.815	14389
850.95	14351
851.085	14568
851.22	14419
851.355	14415
851.49	14362
851.625	14381
851.76	14301
851.895	14347
852.03	14183
852.165	14313
852.299	14385
852.434	14465
852.569	14400
852.703	14423
852.838	14480
852.973	14438
853.107	14480
853.242	14351
853.376	14240
853.511	14157
853.645	14195
853.78	14343
853.914	14313
854.048	14210
854.183	14161
854.317	14199
854.451	14415
854.585	14294
854.72	14214
854.854	14313
854.988	14126
855.122	14210
855.256	14130
855.39	14317
855.524	14389
855.658	14275
855.792	14305
855.926	14324
856.06	14377
856.194	14351
856.327	14351
856.461	14172
856.595	14298
856.729	14229
856.862	14362
856.996	14286
857.13	14393
857.263	14454
857.397	14244
857.53	14168
857.664	14347
857.797	14336
857.931	14301
858.064	14301
858.197	14415
858.331	14233
858.464	14259
858.597	14191
858.731	14157
858.864	14206
858.997	14267
859.13	14282
859.263	14294
859.396	14393
859.529	14267
859.662	14298
859.795	14244
859.928	14248
860.061	14469
860.194	14415
860.327	14332
860.46	14229
860.592	14343
860.725	14377
860.858	14408
860.99	14191
861.123	14149
861.256	14183
861.388	14252
861.521	14948
861.653	14168
861.786	14062
861.918	14183
862.05	14157
862.183	14164
862.315	14206
862.447	14313
862.58	14195
862.712	13989
862.844	14012
862.976	14073
863.108	14046
863.24	14370
863.372	13986
863.504	14027
863.636	13940
863.768	14077
863.9	14096
864.032	14039
864.164	14008
864.296	13978
864.428	14134
864.559	14145
864.691	14149
864.823	14168
864.954	14081
865.086	14157
865.217	14024
865.349	14016
865.48	14020
865.612	14035
865.743	14180
865.875	14043
866.006	14054
866.137	13982
866.269	14008
866.4	14020
866.531	13974
866.662	13967
866.793	14088
866.924	14020
867.055	14001
867.186	14039
867.317	13963
867.448	13856
867.579	13909
867.71	13947
867.841	13925
867.972	14073
868.103	14073
868.233	14058
868.364	14107
868.495	14126
868.625	14244
868.756	14317
868.886	14271
869.017	14237
869.147	14332
869.278	14434
869.408	14191
869.539	14313
869.669	14336
869.799	14248
869.929	14362
870.06	14385
870.19	14488
870.32	14549
870.45	14545
870.58	14686
870.71	14826
870.84	14785
870.97	14678
871.1	14648
871.23	14792
871.36	14849
871.489	14891
871.619	14864
871.749	14971
871.879	14895
872.008	14925
872.138	14895
872.267	14967
872.397	14746
872.526	14689
872.656	14670
872.785	14807
872.915	14941
873.044	14956
873.173	14906
873.303	14944
873.432	14925
873.561	15028
873.69	14895
873.819	14975
873.948	15085
874.077	14933
874.206	14834
874.335	14902
874.464	15055
874.593	15184
874.722	15127
874.851	15245
874.979	15256
875.108	15351
875.237	15192
875.365	15188
875.494	15157
875.623	15275
875.751	15264
875.88	15344
876.008	15382
876.136	15389
876.265	15660
876.393	15751
876.521	15781
876.65	15743
876.778	15587
876.906	15625
877.034	15652
877.162	15561
877.29	15561
877.418	15561
877.546	15641
877.674	15603
877.802	15591
877.93	15526
878.058	15641
878.185	15625
878.313	15618
878.441	15557
878.568	15443
878.696	15637
878.824	15770
878.951	15644
879.079	15831
879.206	15972
879.333	15789
879.461	15766
879.588	15732
879.715	15816
879.842	15835
879.97	15774
880.097	15526
880.224	15500
880.351	15511
880.478	15553
880.605	15473
880.732	15466
880.859	15660
880.986	15435
881.112	15587
881.239	15382
881.366	15245
881.493	15218
881.619	15131
881.746	15108
881.872	15146
881.999	15070
882.125	15116
882.252	15237
882.378	15154
882.505	15260
882.631	15062
882.757	14952
882.883	15028
883.01	14956
883.136	14921
883.262	14819
883.388	14906
883.514	14998
883.64	15055
883.766	14868
883.892	14796
884.018	14746
884.143	14906
884.269	14979
884.395	14773
884.52	14686
884.646	14632
884.772	14632
884.897	14648
885.023	14644
885.148	14765
885.274	14785
885.399	14826
885.524	14750
885.65	14663
885.775	14689
885.9	14640
886.025	14777
886.15	14758
886.275	14587
886.4	14640
886.525	14701
886.65	14606
886.775	14598
886.9	14765
887.025	14887
887.149	14762
887.274	14518
887.399	14541
887.523	14476
887.648	14423
887.773	14427
887.897	14632
888.021	14537
888.146	14442
888.27	14587
888.395	14659
888.519	14632
888.643	14533
888.767	14541
888.891	14370
889.015	14259
889.139	14408
889.263	14385
889.387	14511
889.511	14617
889.635	14484
889.759	14313
889.883	14301
890.006	14332
890.13	14511
890.254	14290
890.377	14309
890.501	14168
890.624	14180
890.748	14248
890.871	14138
890.995	14107
891.118	14069
891.241	14168
891.364	14145
891.488	14225
891.611	14111
891.734	14043
891.857	14043
891.98	14088
892.103	14100
892.226	14115
892.349	13978
892.471	13871
892.594	14081
892.717	14145
892.839	13997
892.962	13997
893.085	14157
893.207	14054
893.33	13925
893.452	13955
893.575	14062
893.697	14107
893.819	14374
893.941	14305
894.064	14214
894.186	14020
894.308	13963
894.43	14256
894.552	14294
894.674	14172
894.796	14039
894.918	14088
895.04	14058
895.161	14282
895.283	14134
895.405	14115
895.526	14210
895.648	14206
895.769	14153
895.891	14282
896.012	14252
896.134	14252
896.255	14248
896.376	14153
896.498	14233
896.619	14275
896.74	14161
896.861	14377
896.982	14598
897.103	14705
897.224	14590
897.345	14446
897.466	14469
897.587	14446
897.708	14678
897.828	14587
897.949	14469
898.07	14511
898.19	14522
898.311	14674
898.431	14568
898.552	14629
898.672	14655
898.792	14682
898.913	14705
899.033	14556
899.153	14476
899.273	14336
899.393	14488
899.513	14427
899.633	14423
899.753	14499
899.873	14537
899.993	14564
900.113	14514
900.232	14556
900.352	14480
900.472	14457
900.591	14419
900.711	14366
900.83	14320
900.95	14465
901.069	14480
901.189	14267
901.308	14020
901.427	14073
901.546	13974
901.665	13963
901.784	14081
901.904	13868
902.023	13807
902.141	13666
902.26	13605
902.379	13655
902.498	13620
902.617	13529
902.735	13620
902.854	13559
902.973	13460
903.091	13335
903.21	13244
903.328	13270
903.446	13244
903.565	13183
903.683	13099
903.801	13069
903.919	13126
904.038	13133
904.156	12970
904.274	13118
904.392	12890
904.51	12916
904.627	13004
904.745	12985
904.863	12993
904.981	12764
905.098	12616
905.216	12730
905.334	12688
905.451	12722
905.569	12738
905.686	12696
905.803	12646
905.921	12410
906.038	12623
906.155	12471
906.272	12300
906.389	12407
906.506	12270
906.623	12300
906.74	12216
906.857	12087
906.974	12148
907.091	12323
907.208	12391
907.324	12353
907.441	12182
907.557	12015
907.674	11927
907.79	11840
907.907	11961
908.023	11931
908.139	12003
908.256	11904
908.372	11942
908.488	11912
908.604	11798
908.72	11707
908.836	11707
908.952	11703
909.068	11718
909.184	11805
909.3	11722
909.415	11805
909.531	11802
909.647	11497
909.762	11543
909.878	11417
909.993	11566
910.108	11497
910.224	11501
910.339	11520
910.454	11356
910.57	11387
910.685	11311
910.8	11570
910.915	11486
911.03	11376
911.145	11185
911.259	11220
911.374	11265
911.489	11098
911.604	11086
911.718	10904
911.833	10946
911.947	10885
912.062	10748
912.176	10965
912.291	10984
912.405	10927
912.519	11067
912.633	11212
912.748	11052
912.862	10957
912.976	10843
913.09	10797
913.204	10809
913.318	10786
913.431	10987
913.545	11006
913.659	10919
913.772	10839
913.886	10694
914	10782
914.113	10793
914.226	10801
914.34	10778
914.453	10656
914.566	10816
914.68	10733
914.793	10626
914.906	10538
915.019	10451
915.132	10375
915.245	10443
915.358	10447
915.47	10493
915.583	10447
915.696	10516
915.809	10630
915.921	10607
916.034	10390
916.146	10504
916.259	10424
916.371	10519
916.483	10497
916.595	10333
916.708	10394
916.82	10481
916.932	10394
917.044	10440
917.156	10409
917.268	10234
917.38	10303
917.491	10253
917.603	10211
917.715	10382
917.826	10344
917.938	10238
918.049	10112
918.161	10344
918.272	10493
918.384	10405
918.495	10280
918.606	10215
918.717	10116
918.828	10223
918.939	10204
919.05	10154
919.161	10120
919.272	9922
919.383	10059
919.494	10223
919.604	10421
919.715	10192
919.826	10105
919.936	10120
920.047	10303
920.157	10204
920.267	10386
920.378	10219
920.488	10234
920.598	10295
920.708	10550
920.818	10356
920.928	10390
921.038	10554
921.148	10462
921.258	10223
921.368	10192
921.477	10059
921.587	9991
921.697	9960
921.806	10112
921.916	10010
922.025	9835
922.134	9736
922.244	9762
922.353	9831
922.462	9690
922.571	9591
922.68	9481
922.789	9401
922.898	9492
923.007	9408
923.116	9500
923.224	9511
923.333	9428
923.442	9329
923.55	9367
923.659	9348
923.767	9435
923.876	9291
923.984	9393
924.092	9310
924.201	9351
924.309	9355
924.417	9435
924.525	9298
924.633	9298
924.741	10017
924.849	9169
924.956	9268
925.064	9104
925.172	9100
925.279	9123
925.387	9123
925.494	9131
925.602	9325
925.709	9173
925.816	9001
925.924	9131
926.031	9188
926.138	9165
926.245	9226
926.352	9108
926.459	9283
926.566	9256
926.673	9104
926.779	9036
926.886	8979
926.993	8864
927.099	8842
927.206	8781
927.312	8819
927.419	8895
927.525	8895
927.631	8921
927.737	8796
927.843	8750
927.95	8716
928.056	8716
928.162	8693
928.267	8785
928.373	9416
928.479	8849
928.585	8613
928.69	8712
928.796	8853
928.901	8762
929.007	8598
929.112	8701
929.218	8659
929.323	8587
929.428	8552
929.533	8743
929.638	8530
929.743	8545
929.848	8655
929.953	8590
930.058	8476
930.163	8313
930.267	8358
930.372	8465
930.477	8244
930.581	8583
930.685	8434
930.79	8313
930.894	8298
930.998	8298
931.103	8415
931.207	8012
931.311	8077
931.415	8001
931.519	7761
931.623	7750
