Data from test_V78500241_3084.txt Node
Date: Fri Mar 25 14:55:11 CST 2022
User: usil
Spectrometer: V785-0024
Trigger mode: 0
Integration Time (sec): 4.000000E-1
Scans to average: 1
Nonlinearity correction enabled: false
Boxcar width: 0
Storing dark spectrum: false
XAxis mode: Wavelengths
Number of Pixels in Spectrum: 1024
>>>>>Begin Spectral Data<<<<<
801.071	22021
801.214	21956
801.356	21755
801.499	21606
801.641	21576
801.783	21408
801.926	21511
802.068	21393
802.211	21382
802.353	21302
802.496	21119
802.638	20967
802.78	20990
802.923	20918
803.065	20701
803.208	20708
803.35	20819
803.492	20921
803.635	20853
803.777	20876
803.919	20815
804.061	21188
804.204	20845
804.346	20644
804.488	20724
804.63	20735
804.773	20617
804.915	20689
805.057	20792
805.199	20697
805.341	20777
805.483	20724
805.626	20731
805.768	20625
805.91	20587
806.052	20720
806.194	20727
806.336	20857
806.478	20686
806.62	20682
806.762	20735
806.904	20883
807.046	21119
807.188	21009
807.33	20960
807.472	20967
807.614	20975
807.756	20960
807.898	20864
808.04	20712
808.182	20792
808.324	20750
808.465	20769
808.607	21017
808.749	21039
808.891	21188
809.033	21135
809.174	21028
809.316	21039
809.458	21150
809.6	20944
809.741	21127
809.883	21013
810.025	21287
810.166	21142
810.308	21199
810.45	21249
810.591	21138
810.733	21009
810.875	20883
811.016	20849
811.158	20773
811.299	20819
811.441	21093
811.582	21020
811.724	20887
811.865	20868
812.007	20887
812.148	20925
812.29	20857
812.431	21032
812.573	21249
812.714	21150
812.855	21329
812.997	21405
813.138	21629
813.279	21511
813.421	21367
813.562	21245
813.703	21047
813.845	20998
813.986	20758
814.127	20571
814.268	20495
814.41	20503
814.551	20362
814.692	20480
814.833	20454
814.974	20381
815.115	20351
815.256	20138
815.397	20301
815.539	20286
815.68	20149
815.821	20046
815.962	20199
816.103	20103
816.244	19951
816.385	19963
816.526	19830
816.666	19639
816.807	19559
816.948	19567
817.089	19753
817.23	19658
817.371	19369
817.512	19590
817.653	19499
817.793	19434
817.934	19540
818.075	19453
818.216	19521
818.356	19415
818.497	19270
818.638	19244
818.778	19160
818.919	19148
819.06	19228
819.2	19460
819.341	19415
819.481	19343
819.622	19563
819.762	19799
819.903	19624
820.043	19514
820.184	19487
820.324	19525
820.465	19491
820.605	19453
820.746	19460
820.886	19327
821.026	19415
821.167	19434
821.307	19556
821.447	19411
821.588	19289
821.728	19274
821.868	19023
822.008	18935
822.149	18890
822.289	18821
822.429	18490
822.569	18506
822.709	18635
822.849	18346
822.99	18330
823.13	18429
823.27	18296
823.41	18201
823.55	18129
823.69	18182
823.83	18133
823.97	18152
824.11	17920
824.25	18007
824.389	17931
824.529	17973
824.669	17984
824.809	17999
824.949	18076
825.089	18034
825.228	17958
825.368	17661
825.508	17642
825.648	17794
825.787	17847
825.927	17805
826.067	17668
826.206	17722
826.346	17710
826.485	17630
826.625	17676
826.765	17767
826.904	17722
827.044	17448
827.183	17452
827.323	17455
827.462	17528
827.601	17444
827.741	17368
827.88	17421
828.02	17288
828.159	17421
828.298	17436
828.437	17379
828.577	17368
828.716	17539
828.855	17296
828.994	17231
829.134	17147
829.273	17223
829.412	17140
829.551	17166
829.69	17193
829.829	17159
829.968	17208
830.107	17311
830.246	17174
830.385	17155
830.524	17140
830.663	17003
830.802	16965
830.941	16862
831.08	16694
831.219	16904
831.357	16790
831.496	16976
831.635	16767
831.774	16713
831.913	16694
832.051	16569
832.19	16584
832.329	16679
832.467	16512
832.606	16447
832.744	16402
832.883	16398
833.022	16443
833.16	16523
833.299	16504
833.437	16428
833.576	16493
833.714	16485
833.852	16558
833.991	16527
834.129	16512
834.267	16615
834.406	16478
834.544	16470
834.682	16443
834.821	16569
834.959	16687
835.097	16402
835.235	16622
835.373	16531
835.511	16459
835.65	16531
835.788	16432
835.926	16219
836.064	16169
836.202	16230
836.34	16542
836.478	16451
836.615	16329
836.753	16356
836.891	16497
837.029	16432
837.167	16356
837.305	16386
837.443	16417
837.58	16280
837.718	16333
837.856	16265
837.993	16207
838.131	16382
838.269	16207
838.406	16261
838.544	16204
838.681	16067
838.819	15922
838.956	15762
839.094	15797
839.231	15861
839.369	15895
839.506	16246
839.643	16093
839.781	15915
839.918	15823
840.055	15770
840.193	15724
840.33	15724
840.467	15736
840.604	15846
840.742	15968
840.879	15584
841.016	15755
841.153	15705
841.29	15854
841.427	15778
841.564	15808
841.701	15781
841.838	15739
841.975	15724
842.112	15755
842.249	15637
842.385	15622
842.522	15739
842.659	15538
842.796	15545
842.933	15629
843.069	15496
843.206	15584
843.343	15675
843.479	15587
843.616	15580
843.752	15374
843.889	15389
844.025	15507
844.162	15268
844.298	15462
844.435	15408
844.571	15405
844.708	15382
844.844	15481
844.98	15610
845.117	15542
845.253	15332
845.389	15230
845.525	15272
845.661	15252
845.798	15176
845.934	15233
846.07	15123
846.206	15070
846.342	15279
846.478	15138
846.614	14963
846.75	14861
846.886	14948
847.022	15024
847.158	15009
847.294	14975
847.429	15017
847.565	14826
847.701	15226
847.837	14712
847.972	14670
848.108	14842
848.244	14777
848.379	14522
848.515	14579
848.65	14480
848.786	14541
848.921	14568
849.057	14648
849.192	14678
849.328	14556
849.463	14522
849.598	14488
849.734	14541
849.869	14412
850.004	14305
850.14	14412
850.275	14206
850.41	14355
850.545	14286
850.68	14278
850.815	14324
850.95	14275
851.085	14499
851.22	14492
851.355	14271
851.49	14278
851.625	14248
851.76	14267
851.895	14199
852.03	14126
852.165	14282
852.299	14366
852.434	14362
852.569	14343
852.703	14320
852.838	14419
852.973	14423
853.107	14442
853.242	14259
853.376	14168
853.511	14077
853.645	14069
853.78	14404
853.914	14202
854.048	14244
854.183	14259
854.317	14199
854.451	14377
854.585	14248
854.72	14134
854.854	14237
854.988	14088
855.122	14240
855.256	14077
855.39	14172
855.524	14305
855.658	14320
855.792	14199
855.926	14229
856.06	14286
856.194	14294
856.327	14221
856.461	14142
856.595	14115
856.729	14157
856.862	14332
856.996	14282
857.13	14233
857.263	14317
857.397	14286
857.53	14271
857.664	14233
857.797	14419
857.931	14252
858.064	14286
858.197	14347
858.331	14263
858.464	14221
858.597	14039
858.731	14267
858.864	14187
858.997	14168
859.13	14237
859.263	14172
859.396	14339
859.529	14145
859.662	14202
859.795	14225
859.928	14199
860.061	14278
860.194	14355
860.327	14210
860.46	14183
860.592	14313
860.725	14339
860.858	14320
860.99	14221
861.123	14077
861.256	14130
861.388	14206
861.521	14921
861.653	14058
861.786	14046
861.918	14081
862.05	14054
862.183	14107
862.315	14161
862.447	14195
862.58	14180
862.712	13993
862.844	13978
862.976	14111
863.108	14039
863.24	14301
863.372	13947
863.504	13887
863.636	13951
863.768	14153
863.9	14050
864.032	13936
864.164	13959
864.296	14020
864.428	14024
864.559	14069
864.691	14008
864.823	14100
864.954	14065
865.086	14073
865.217	14001
865.349	13906
865.48	13928
865.612	13826
865.743	14020
865.875	14027
866.006	13978
866.137	13902
866.269	14008
866.4	13902
866.531	13833
866.662	13856
866.793	13928
866.924	13917
867.055	14054
867.186	13974
867.317	13871
867.448	13887
867.579	13913
867.71	13898
867.841	13902
867.972	14027
868.103	14027
868.233	13989
868.364	13967
868.495	14043
868.625	14164
868.756	14328
868.886	14180
869.017	14191
869.147	14214
869.278	14332
869.408	14256
869.539	14210
869.669	14320
869.799	14206
869.929	14336
870.06	14324
870.19	14511
870.32	14457
870.45	14617
870.58	14571
870.71	14617
870.84	14636
870.97	14571
871.1	14610
871.23	14754
871.36	14792
871.489	14724
871.619	14739
871.749	14758
871.879	14902
872.008	14975
872.138	14853
872.267	14838
872.397	14667
872.526	14621
872.656	14697
872.785	14663
872.915	14910
873.044	14910
873.173	14857
873.303	14960
873.432	14861
873.561	14963
873.69	14880
873.819	14830
873.948	15005
874.077	14948
874.206	14811
874.335	14994
874.464	15028
874.593	15104
874.722	14998
874.851	15131
874.979	15165
875.108	15161
875.237	15104
875.365	15032
875.494	15127
875.623	15344
875.751	15135
875.88	15192
876.008	15332
876.136	15439
876.265	15595
876.393	15781
876.521	15644
876.65	15641
876.778	15633
876.906	15519
877.034	15568
877.162	15515
877.29	15519
877.418	15576
877.546	15557
877.674	15572
877.802	15618
877.93	15614
878.058	15443
878.185	15488
878.313	15603
878.441	15591
878.568	15462
878.696	15564
878.824	15629
878.951	15728
879.079	15747
879.206	15838
879.333	15812
879.461	15648
879.588	15641
879.715	15800
879.842	15880
879.97	15698
880.097	15492
880.224	15496
880.351	15466
880.478	15458
880.605	15443
880.732	15340
880.859	15595
880.986	15374
881.112	15504
881.239	15367
881.366	15207
881.493	15135
881.619	15150
881.746	15222
881.872	15157
881.999	15085
882.125	15104
882.252	15135
882.378	15108
882.505	15230
882.631	15062
882.757	14910
882.883	14975
883.01	14963
883.136	14929
883.262	14724
883.388	14834
883.514	14937
883.64	14986
883.766	14887
883.892	14758
884.018	14788
884.143	14975
884.269	14967
884.395	14640
884.52	14541
884.646	14674
884.772	14587
884.897	14495
885.023	14575
885.148	14727
885.274	14811
885.399	14693
885.524	14625
885.65	14640
885.775	14640
885.9	14465
886.025	14815
886.15	14746
886.275	14606
886.4	14579
886.525	14537
886.65	14488
886.775	14590
886.9	14712
887.025	14811
887.149	14606
887.274	14427
887.399	14454
887.523	14419
887.648	14362
887.773	14347
887.897	14522
888.021	14522
888.146	14495
888.27	14564
888.395	14629
888.519	14499
888.643	14499
888.767	14484
888.891	14396
889.015	14218
889.139	14328
889.263	14374
889.387	14412
889.511	14438
889.635	14431
889.759	14320
889.883	14282
890.006	14351
890.13	14438
890.254	14351
890.377	14313
890.501	14123
890.624	14123
890.748	14290
890.871	14084
890.995	14005
891.118	13852
891.241	13921
891.364	14043
891.488	14130
891.611	13986
891.734	14100
891.857	14084
891.98	14046
892.103	14062
892.226	14073
892.349	14027
892.471	13898
892.594	13997
892.717	13997
892.839	13944
892.962	13947
893.085	14103
893.207	14043
893.33	13913
893.452	13925
893.575	14145
893.697	13974
893.819	14153
893.941	14180
894.064	14168
894.186	13989
894.308	13906
894.43	14100
894.552	14313
894.674	14172
894.796	14046
894.918	14027
895.04	14157
895.161	14298
895.283	14149
895.405	14081
895.526	14103
895.648	14126
895.769	14202
895.891	14240
896.012	14229
896.134	14172
896.255	14252
896.376	14183
896.498	14221
896.619	14180
896.74	14164
896.861	14259
896.982	14469
897.103	14678
897.224	14514
897.345	14419
897.466	14393
897.587	14446
897.708	14537
897.828	14579
897.949	14507
898.07	14332
898.19	14408
898.311	14674
898.431	14579
898.552	14651
898.672	14511
898.792	14625
898.913	14590
899.033	14526
899.153	14377
899.273	14305
899.393	14362
899.513	14476
899.633	14415
899.753	14412
899.873	14385
899.993	14404
900.113	14423
900.232	14408
900.352	14465
900.472	14336
900.591	14275
900.711	14298
900.83	14237
900.95	14404
901.069	14427
901.189	14256
901.308	13925
901.427	13906
901.546	13982
901.665	14001
901.784	14008
901.904	13868
902.023	13784
902.141	13613
902.26	13510
902.379	13674
902.498	13559
902.617	13518
902.735	13548
902.854	13544
902.973	13434
903.091	13255
903.21	13270
903.328	13282
903.446	13156
903.565	13137
903.683	13114
903.801	13015
903.919	13069
904.038	13156
904.156	13008
904.274	12989
904.392	12840
904.51	12890
904.627	12905
904.745	12989
904.863	12977
904.981	12688
905.098	12517
905.216	12525
905.334	12658
905.451	12604
905.569	12585
905.686	12604
905.803	12585
905.921	12395
906.038	12506
906.155	12422
906.272	12342
906.389	12384
906.506	12213
906.623	12163
906.74	12148
906.857	12144
906.974	12068
907.091	12243
907.208	12346
907.324	12201
907.441	12102
907.557	11950
907.674	11958
907.79	11851
907.907	11859
908.023	11939
908.139	11920
908.256	11946
908.372	11874
908.488	11802
908.604	11794
908.72	11710
908.836	11760
908.952	11539
909.068	11688
909.184	11832
909.3	11737
909.415	11695
909.531	11707
909.647	11402
909.762	11509
909.878	11486
909.993	11474
910.108	11368
910.224	11364
910.339	11444
910.454	11368
910.57	11303
910.685	11277
910.8	11486
910.915	11436
911.03	11356
911.145	11109
911.259	11277
911.374	11159
911.489	11086
911.604	11022
911.718	10957
911.833	10927
911.947	10828
912.062	10752
912.176	10999
912.291	10927
912.405	10862
912.519	11121
912.633	11102
912.748	10987
912.862	11029
912.976	10850
913.09	10694
913.204	10801
913.318	10877
913.431	10908
913.545	10862
913.659	10900
913.772	10839
913.886	10592
914	10702
914.113	10805
914.226	10812
914.34	10759
914.453	10641
914.566	10706
914.68	10561
914.793	10565
914.906	10451
915.019	10363
915.132	10287
915.245	10394
915.358	10489
915.47	10375
915.583	10421
915.696	10497
915.809	10565
915.921	10462
916.034	10417
916.146	10379
916.259	10386
916.371	10489
916.483	10436
916.595	10310
916.708	10367
916.82	10325
916.932	10390
917.044	10303
917.156	10333
917.268	10268
917.38	10227
917.491	10272
917.603	10207
917.715	10341
917.826	10367
917.938	10322
918.049	10185
918.161	10390
918.272	10402
918.384	10360
918.495	10303
918.606	10211
918.717	10044
918.828	10181
918.939	10177
919.05	10067
919.161	10173
919.272	10032
919.383	9991
919.494	10200
919.604	10432
919.715	10219
919.826	10025
919.936	10105
920.047	10185
920.157	10177
920.267	10375
920.378	10268
920.488	10143
920.598	10360
920.708	10500
920.818	10356
920.928	10360
921.038	10569
921.148	10451
921.258	10143
921.368	10090
921.477	10048
921.587	9937
921.697	9907
921.806	10074
921.916	9911
922.025	9728
922.134	9717
922.244	9690
922.353	9827
922.462	9633
922.571	9610
922.68	9416
922.789	9408
922.898	9420
923.007	9397
923.116	9439
923.224	9526
923.333	9386
923.442	9283
923.55	9256
923.659	9287
923.767	9355
923.876	9272
923.984	9332
924.092	9260
924.201	9306
924.309	9272
924.417	9253
924.525	9241
924.633	9260
924.741	10150
924.849	9066
924.956	9272
925.064	9051
925.172	8971
925.279	9017
925.387	9074
925.494	8975
925.602	9192
925.709	9154
925.816	9043
925.924	9150
926.031	9176
926.138	9089
926.245	9097
926.352	8994
926.459	9135
926.566	9077
926.673	9032
926.779	8906
926.886	8834
926.993	8872
927.099	8781
927.206	8781
927.312	8682
927.419	8815
927.525	8842
927.631	8796
927.737	8804
927.843	8689
927.95	8621
928.056	8693
928.162	8731
928.267	8815
928.373	9329
928.479	8788
928.585	8583
928.69	8731
928.796	8686
928.901	8636
929.007	8457
929.112	8640
929.218	8602
929.323	8549
929.428	8446
929.533	8590
929.638	8434
929.743	8465
929.848	8549
929.953	8526
930.058	8404
930.163	8248
930.267	8275
930.372	8415
930.477	8233
930.581	8476
930.685	8328
930.79	8290
930.894	8218
930.998	8195
931.103	8427
931.207	8081
931.311	7989
931.415	7902
931.519	7746
931.623	7814
