Data from test_V78500241_2043.txt Node
Date: Fri Mar 25 14:47:56 CST 2022
User: usil
Spectrometer: V785-0024
Trigger mode: 0
Integration Time (sec): 4.000000E-1
Scans to average: 1
Nonlinearity correction enabled: false
Boxcar width: 0
Storing dark spectrum: false
XAxis mode: Wavelengths
Number of Pixels in Spectrum: 1024
>>>>>Begin Spectral Data<<<<<
801.071	22116
801.214	22010
801.356	21850
801.499	21599
801.641	21515
801.783	21435
801.926	21424
802.068	21401
802.211	21313
802.353	21287
802.496	20990
802.638	20986
802.78	20979
802.923	20960
803.065	20864
803.208	20826
803.35	20792
803.492	20906
803.635	21043
803.777	20815
803.919	20918
804.061	21188
804.204	20941
804.346	20800
804.488	20705
804.63	20819
804.773	20746
804.915	20667
805.057	20807
805.199	20629
805.341	20716
805.483	20857
805.626	20781
805.768	20731
805.91	20716
806.052	20765
806.194	20693
806.336	20823
806.478	20663
806.62	20796
806.762	20765
806.904	20971
807.046	21150
807.188	21047
807.33	20998
807.472	21138
807.614	20941
807.756	20944
807.898	20765
808.04	20849
808.182	20743
808.324	21013
808.465	20944
808.607	20933
808.749	21142
808.891	21283
809.033	21291
809.174	21188
809.316	21093
809.458	21055
809.6	21112
809.741	21154
809.883	21146
810.025	21157
810.166	21211
810.308	21207
810.45	21173
810.591	21291
810.733	20941
810.875	20929
811.016	20769
811.158	20834
811.299	20937
811.441	20895
811.582	20914
811.724	20906
811.865	20929
812.007	20792
812.148	20895
812.29	20906
812.431	21051
812.573	21119
812.714	21310
812.855	21378
812.997	21496
813.138	21515
813.279	21435
813.421	21401
813.562	21435
813.703	21184
813.845	21005
813.986	20674
814.127	20712
814.268	20526
814.41	20446
814.551	20362
814.692	20492
814.833	20385
814.974	20408
815.115	20454
815.256	20362
815.397	20172
815.539	20233
815.68	20134
815.821	20176
815.962	20259
816.103	20073
816.244	19860
816.385	19841
816.526	19795
816.666	19662
816.807	19601
816.948	19651
817.089	19658
817.23	19674
817.371	19529
817.512	19552
817.653	19571
817.793	19533
817.934	19586
818.075	19609
818.216	19704
818.356	19495
818.497	19304
818.638	19247
818.778	19213
818.919	19175
819.06	19301
819.2	19400
819.341	19415
819.481	19575
819.622	19578
819.762	19742
819.903	19696
820.043	19738
820.184	19548
820.324	19472
820.465	19586
820.605	19548
820.746	19483
820.886	19388
821.026	19430
821.167	19502
821.307	19601
821.447	19457
821.588	19411
821.728	19183
821.868	19126
822.008	19027
822.149	18867
822.289	18916
822.429	18623
822.569	18684
822.709	18601
822.849	18479
822.99	18506
823.13	18414
823.27	18308
823.41	18205
823.55	18178
823.69	18201
823.83	18292
823.97	18190
824.11	17999
824.25	18049
824.389	18064
824.529	18121
824.669	17901
824.809	18060
824.949	18011
825.089	18072
825.228	18015
825.368	17832
825.508	17771
825.648	17813
825.787	17847
825.927	17840
826.067	17813
826.206	17859
826.346	17809
826.485	17840
826.625	17885
826.765	17931
826.904	17824
827.044	17547
827.183	17455
827.323	17429
827.462	17558
827.601	17573
827.741	17474
827.88	17543
828.02	17364
828.159	17467
828.298	17433
828.437	17543
828.577	17497
828.716	17532
828.855	17474
828.994	17307
829.134	17220
829.273	17250
829.412	17277
829.551	17159
829.69	17197
829.829	17330
829.968	17284
830.107	17318
830.246	17212
830.385	17174
830.524	17117
830.663	17086
830.802	16885
830.941	16839
831.08	16797
831.219	16847
831.357	16946
831.496	17143
831.635	16961
831.774	16748
831.913	16809
832.051	16679
832.19	16637
832.329	16675
832.467	16569
832.606	16459
832.744	16531
832.883	16481
833.022	16523
833.16	16561
833.299	16687
833.437	16596
833.576	16653
833.714	16527
833.852	16615
833.991	16615
834.129	16721
834.267	16660
834.406	16580
834.544	16645
834.682	16717
834.821	16599
834.959	16839
835.097	16725
835.235	16687
835.373	16687
835.511	16611
835.65	16447
835.788	16546
835.926	16398
836.064	16322
836.202	16314
836.34	16618
836.478	16588
836.615	16577
836.753	16424
836.891	16664
837.029	16493
837.167	16489
837.305	16489
837.443	16417
837.58	16352
837.718	16535
837.856	16363
837.993	16284
838.131	16508
838.269	16310
838.406	16204
838.544	16295
838.681	16158
838.819	16139
838.956	15926
839.094	15994
839.231	15880
839.369	16143
839.506	16314
839.643	16139
839.781	15915
839.918	15934
840.055	15975
840.193	15941
840.33	15888
840.467	15930
840.604	15979
840.742	16322
840.879	15884
841.016	15816
841.153	15785
841.29	16025
841.427	15945
841.564	15907
841.701	15937
841.838	15873
841.975	15857
842.112	15911
842.249	15846
842.385	15698
842.522	15926
842.659	15686
842.796	15717
842.933	15732
843.069	15686
843.206	15618
843.343	15717
843.479	15899
843.616	15679
843.752	15504
843.889	15549
844.025	15739
844.162	15428
844.298	15561
844.435	15504
844.571	15504
844.708	15599
844.844	15667
844.98	15686
845.117	15652
845.253	15496
845.389	15332
845.525	15363
845.661	15450
845.798	15237
845.934	15393
846.07	15355
846.206	15302
846.342	15572
846.478	15325
846.614	15100
846.75	15062
846.886	15024
847.022	15222
847.158	15203
847.294	15047
847.429	15207
847.565	15085
847.701	15279
847.837	14785
847.972	14838
848.108	14864
848.244	14986
848.379	14663
848.515	14701
848.65	14701
848.786	14682
848.921	14777
849.057	14743
849.192	14807
849.328	14640
849.463	14743
849.598	14632
849.734	14533
849.869	14526
850.004	14469
850.14	14476
850.275	14461
850.41	14423
850.545	14400
850.68	14427
850.815	14442
850.95	14431
851.085	14632
851.22	14571
851.355	14514
851.49	14427
851.625	14488
851.76	14450
851.895	14396
852.03	14355
852.165	14419
852.299	14427
852.434	14446
852.569	14446
852.703	14537
852.838	14518
852.973	14777
853.107	14651
853.242	14488
853.376	14286
853.511	14191
853.645	14263
853.78	14438
853.914	14324
854.048	14263
854.183	14374
854.317	14195
854.451	14480
854.585	14248
854.72	14290
854.854	14427
854.988	14263
855.122	14301
855.256	14214
855.39	14347
855.524	14465
855.658	14343
855.792	14336
855.926	14381
856.06	14415
856.194	14419
856.327	14438
856.461	14221
856.595	14218
856.729	14339
856.862	14454
856.996	14366
857.13	14400
857.263	14419
857.397	14484
857.53	14393
857.664	14305
857.797	14461
857.931	14454
858.064	14381
858.197	14370
858.331	14362
858.464	14343
858.597	14202
858.731	14324
858.864	14343
858.997	14320
859.13	14336
859.263	14393
859.396	14434
859.529	14404
859.662	14313
859.795	14214
859.928	14355
860.061	14473
860.194	14469
860.327	14290
860.46	14355
860.592	14431
860.725	14450
860.858	14415
860.99	14320
861.123	14229
861.256	14240
861.388	14309
861.521	14990
861.653	14191
861.786	14138
861.918	14237
862.05	14252
862.183	14233
862.315	14256
862.447	14309
862.58	14221
862.712	14035
862.844	14065
862.976	14206
863.108	14130
863.24	14434
863.372	14016
863.504	14065
863.636	14119
863.768	14153
863.9	14065
864.032	13993
864.164	14111
864.296	14206
864.428	14237
864.559	14176
864.691	14138
864.823	14183
864.954	14103
865.086	14237
865.217	14115
865.349	14043
865.48	14012
865.612	14199
865.743	14191
865.875	14149
866.006	14088
866.137	14039
866.269	14157
866.4	14043
866.531	14134
866.662	14016
866.793	14024
866.924	14107
867.055	14176
867.186	14054
867.317	14073
867.448	13993
867.579	14024
867.71	13921
867.841	13993
867.972	14096
868.103	14092
868.233	14153
868.364	14088
868.495	14157
868.625	14317
868.756	14385
868.886	14278
869.017	14336
869.147	14450
869.278	14450
869.408	14404
869.539	14347
869.669	14396
869.799	14419
869.929	14495
870.06	14396
870.19	14651
870.32	14621
870.45	14651
870.58	14606
870.71	14838
870.84	14830
870.97	14735
871.1	14853
871.23	14948
871.36	14895
871.489	14777
871.619	14868
871.749	14948
871.879	15032
872.008	14982
872.138	15009
872.267	14811
872.397	14796
872.526	14815
872.656	14804
872.785	14777
872.915	15005
873.044	14925
873.173	14960
873.303	14952
873.432	15009
873.561	15066
873.69	15036
873.819	14971
873.948	15047
874.077	14921
874.206	14910
874.335	15032
874.464	15119
874.593	15272
874.722	15233
874.851	15367
874.979	15275
875.108	15291
875.237	15233
875.365	15272
875.494	15230
875.623	15416
875.751	15283
875.88	15378
876.008	15485
876.136	15519
876.265	15747
876.393	15854
876.521	15732
876.65	15736
876.778	15743
876.906	15675
877.034	15625
877.162	15675
877.29	15618
877.418	15698
877.546	15728
877.674	15736
877.802	15812
877.93	15759
878.058	15633
878.185	15538
878.313	15713
878.441	15720
878.568	15496
878.696	15595
878.824	15572
878.951	15766
879.079	15899
879.206	16002
879.333	15842
879.461	15793
879.588	15835
879.715	15968
879.842	15949
879.97	15785
880.097	15614
880.224	15511
880.351	15587
880.478	15538
880.605	15435
880.732	15523
880.859	15793
880.986	15515
881.112	15576
881.239	15344
881.366	15378
881.493	15230
881.619	15116
881.746	15272
881.872	15272
881.999	15180
882.125	15180
882.252	15207
882.378	15256
882.505	15317
882.631	15093
882.757	15024
882.883	15146
883.01	14963
883.136	14967
883.262	14861
883.388	14830
883.514	15005
883.64	15077
883.766	14971
883.892	14819
884.018	14872
884.143	14960
884.269	15138
884.395	14823
884.52	14724
884.646	14807
884.772	14762
884.897	14640
885.023	14731
885.148	14796
885.274	14880
885.399	14853
885.524	14705
885.65	14731
885.775	14777
885.9	14739
886.025	14842
886.15	14785
886.275	14712
886.4	14644
886.525	14769
886.65	14693
886.775	14697
886.9	14876
887.025	14960
887.149	14705
887.274	14648
887.399	14473
887.523	14522
887.648	14564
887.773	14465
887.897	14568
888.021	14587
888.146	14549
888.27	14640
888.395	14697
888.519	14590
888.643	14651
888.767	14648
888.891	14533
889.015	14415
889.139	14446
889.263	14389
889.387	14606
889.511	14670
889.635	14514
889.759	14396
889.883	14461
890.006	14480
890.13	14606
890.254	14332
890.377	14450
890.501	14305
890.624	14096
890.748	14271
890.871	14157
890.995	14107
891.118	14012
891.241	14210
891.364	14214
891.488	14259
891.611	14123
891.734	14123
891.857	14180
891.98	14153
892.103	14221
892.226	14123
892.349	14157
892.471	14043
892.594	14088
892.717	14149
892.839	14134
892.962	14180
893.085	14142
893.207	14183
893.33	13902
893.452	14069
893.575	14180
893.697	14142
893.819	14305
893.941	14336
894.064	14294
894.186	14088
894.308	14157
894.43	14210
894.552	14263
894.674	14229
894.796	14008
894.918	14142
895.04	14172
895.161	14221
895.283	14305
895.405	14123
895.526	14233
895.648	14183
895.769	14290
895.891	14324
896.012	14298
896.134	14275
896.255	14298
896.376	14320
896.498	14370
896.619	14336
896.74	14301
896.861	14427
896.982	14640
897.103	14834
897.224	14617
897.345	14465
897.466	14530
897.587	14549
897.708	14659
897.828	14720
897.949	14659
898.07	14473
898.19	14583
898.311	14636
898.431	14648
898.552	14720
898.672	14750
898.792	14674
898.913	14712
899.033	14560
899.153	14583
899.273	14454
899.393	14358
899.513	14587
899.633	14549
899.753	14541
899.873	14518
899.993	14552
900.113	14476
900.232	14495
900.352	14495
900.472	14469
900.591	14408
900.711	14377
900.83	14328
900.95	14412
901.069	14495
901.189	14282
901.308	14092
901.427	13974
901.546	14020
901.665	14043
901.784	14100
901.904	13917
902.023	13788
902.141	13674
902.26	13601
902.379	13601
902.498	13662
902.617	13571
902.735	13578
902.854	13605
902.973	13441
903.091	13331
903.21	13335
903.328	13354
903.446	13263
903.565	13206
903.683	13183
903.801	13091
903.919	13168
904.038	13168
904.156	12981
904.274	13080
904.392	12993
904.51	13000
904.627	12973
904.745	12951
904.863	12996
904.981	12878
905.098	12673
905.216	12688
905.334	12738
905.451	12688
905.569	12669
905.686	12757
905.803	12707
905.921	12460
906.038	12555
906.155	12513
906.272	12407
906.389	12391
906.506	12224
906.623	12224
906.74	12311
906.857	12186
906.974	12152
907.091	12426
907.208	12330
907.324	12232
907.441	12228
907.557	12011
907.674	12064
907.79	11904
907.907	11958
908.023	12034
908.139	12087
908.256	11958
908.372	11977
908.488	11954
908.604	11813
908.72	11767
908.836	11843
908.952	11741
909.068	11718
909.184	11889
909.3	11813
909.415	11832
909.531	11752
909.647	11615
909.762	11562
909.878	11509
909.993	11562
910.108	11547
910.224	11520
910.339	11592
910.454	11440
910.57	11459
910.685	11315
910.8	11627
910.915	11551
911.03	11486
911.145	11284
911.259	11235
911.374	11208
911.489	11151
911.604	11075
911.718	11060
911.833	11006
911.947	10908
912.062	10843
912.176	10961
912.291	11018
912.405	10908
912.519	11193
912.633	11166
912.748	11067
912.862	11022
912.976	10923
913.09	10801
913.204	10877
913.318	10881
913.431	10968
913.545	10957
913.659	11045
913.772	10858
913.886	10816
914	10763
914.113	10862
914.226	10949
914.34	10809
914.453	10710
914.566	10877
914.68	10736
914.793	10698
914.906	10573
915.019	10478
915.132	10432
915.245	10489
915.358	10531
915.47	10599
915.583	10565
915.696	10596
915.809	10603
915.921	10672
916.034	10481
916.146	10573
916.259	10386
916.371	10611
916.483	10508
916.595	10402
916.708	10504
916.82	10466
916.932	10489
917.044	10447
917.156	10386
917.268	10344
917.38	10371
917.491	10341
917.603	10379
917.715	10398
917.826	10398
917.938	10333
918.049	10192
918.161	10440
918.272	10443
918.384	10382
918.495	10337
918.606	10325
918.717	10169
918.828	10234
918.939	10207
919.05	10139
919.161	10139
919.272	9945
919.383	10063
919.494	10249
919.604	10451
919.715	10341
919.826	10177
919.936	10116
920.047	10261
920.157	10188
920.267	10363
920.378	10219
920.488	10169
920.598	10424
920.708	10538
920.818	10478
920.928	10424
921.038	10607
921.148	10584
921.258	10261
921.368	10227
921.477	10074
921.587	10071
921.697	9979
921.806	10124
921.916	9934
922.025	9816
922.134	9823
922.244	9774
922.353	9838
922.462	9660
922.571	9675
922.68	9564
922.789	9473
922.898	9500
923.007	9431
923.116	9580
923.224	9504
923.333	9450
923.442	9336
923.55	9340
923.659	9374
923.767	9534
923.876	9355
923.984	9450
924.092	9291
924.201	9344
924.309	9397
924.417	9332
924.525	9287
924.633	9336
924.741	10181
924.849	9036
924.956	9363
925.064	9123
925.172	9135
925.279	9074
925.387	9195
925.494	9184
925.602	9306
925.709	9180
925.816	9154
925.924	9100
926.031	9195
926.138	9150
926.245	9146
926.352	9032
926.459	9291
926.566	9294
926.673	9089
926.779	9020
926.886	9051
926.993	8845
927.099	8849
927.206	8811
927.312	8766
927.419	8944
927.525	8796
927.631	8864
927.737	8842
927.843	8716
927.95	8636
928.056	8754
928.162	8689
928.267	8880
928.373	9462
928.479	8868
928.585	8552
928.69	8762
928.796	8842
928.901	8610
929.007	8518
929.112	8621
929.218	8651
929.323	8610
929.428	8545
929.533	8701
929.638	8530
929.743	8583
929.848	8587
929.953	8560
930.058	8503
930.163	8282
930.267	8358
930.372	8469
930.477	8358
930.581	8560
930.685	8442
930.79	8336
930.894	8263
930.998	8263
931.103	8400
931.207	8077
931.311	8046
931.415	7974
931.519	7776
931.623	7776
