Data from test_V78500241_2863.txt Node
Date: Fri Mar 25 14:53:38 CST 2022
User: usil
Spectrometer: V785-0024
Trigger mode: 0
Integration Time (sec): 4.000000E-1
Scans to average: 1
Nonlinearity correction enabled: false
Boxcar width: 0
Storing dark spectrum: false
XAxis mode: Wavelengths
Number of Pixels in Spectrum: 1024
>>>>>Begin Spectral Data<<<<<
801.071	22177
801.214	22010
801.356	21728
801.499	21633
801.641	21519
801.783	21469
801.926	21485
802.068	21428
802.211	21359
802.353	21222
802.496	21203
802.638	20967
802.78	20944
802.923	20910
803.065	20727
803.208	20648
803.35	20830
803.492	20925
803.635	20796
803.777	20716
803.919	20906
804.061	21161
804.204	20716
804.346	20663
804.488	20678
804.63	20769
804.773	20617
804.915	20655
805.057	20777
805.199	20762
805.341	20727
805.483	20804
805.626	20705
805.768	20621
805.91	20769
806.052	20777
806.194	20701
806.336	20906
806.478	20640
806.62	20659
806.762	20697
806.904	20979
807.046	21127
807.188	20948
807.33	21142
807.472	20986
807.614	20910
807.756	20948
807.898	20849
808.04	20712
808.182	20762
808.324	20663
808.465	20842
808.607	21032
808.749	21001
808.891	21150
809.033	21218
809.174	21123
809.316	21089
809.458	21017
809.6	20906
809.741	21165
809.883	21066
810.025	21245
810.166	21161
810.308	21123
810.45	21176
810.591	21085
810.733	21058
810.875	20777
811.016	20693
811.158	20743
811.299	20902
811.441	20982
811.582	20952
811.724	20701
811.865	20720
812.007	20785
812.148	20731
812.29	20823
812.431	20986
812.573	21055
812.714	21214
812.855	21283
812.997	21412
813.138	21458
813.279	21416
813.421	21294
813.562	21298
813.703	21043
813.845	20979
813.986	20716
814.127	20568
814.268	20492
814.41	20370
814.551	20214
814.692	20442
814.833	20195
814.974	20358
815.115	20320
815.256	20191
815.397	20229
815.539	20320
815.68	20111
815.821	20119
815.962	20145
816.103	20081
816.244	19890
816.385	19909
816.526	19746
816.666	19674
816.807	19476
816.948	19510
817.089	19681
817.23	19628
817.371	19434
817.512	19472
817.653	19460
817.793	19533
817.934	19445
818.075	19548
818.216	19495
818.356	19392
818.497	19301
818.638	19148
818.778	19232
818.919	19156
819.06	19266
819.2	19297
819.341	19384
819.481	19331
819.622	19605
819.762	19746
819.903	19696
820.043	19540
820.184	19502
820.324	19529
820.465	19586
820.605	19400
820.746	19480
820.886	19403
821.026	19407
821.167	19472
821.307	19468
821.447	19480
821.588	19297
821.728	19164
821.868	19053
822.008	18852
822.149	18871
822.289	18878
822.429	18669
822.569	18597
822.709	18582
822.849	18414
822.99	18467
823.13	18399
823.27	18308
823.41	18216
823.55	18205
823.69	18152
823.83	18194
823.97	18224
824.11	18079
824.25	17870
824.389	17992
824.529	18079
824.669	17992
824.809	18064
824.949	18060
825.089	18068
825.228	17954
825.368	17699
825.508	17832
825.648	17741
825.787	17809
825.927	17764
826.067	17619
826.206	17722
826.346	17828
826.485	17764
826.625	17805
826.765	17847
826.904	17847
827.044	17379
827.183	17615
827.323	17429
827.462	17585
827.601	17486
827.741	17402
827.88	17429
828.02	17315
828.159	17330
828.298	17337
828.437	17570
828.577	17402
828.716	17646
828.855	17395
828.994	17178
829.134	17288
829.273	17258
829.412	17216
829.551	17166
829.69	17216
829.829	17223
829.968	17200
830.107	17227
830.246	17189
830.385	17292
830.524	17140
830.663	16957
830.802	16858
830.941	16774
831.08	16733
831.219	16930
831.357	16854
831.496	17029
831.635	16889
831.774	16679
831.913	16767
832.051	16603
832.19	16599
832.329	16653
832.467	16535
832.606	16443
832.744	16478
832.883	16542
833.022	16356
833.16	16466
833.299	16508
833.437	16561
833.576	16474
833.714	16561
833.852	16538
833.991	16519
834.129	16599
834.267	16504
834.406	16630
834.544	16649
834.682	16443
834.821	16569
834.959	16622
835.097	16436
835.235	16664
835.373	16554
835.511	16493
835.65	16417
835.788	16424
835.926	16318
836.064	16284
836.202	16333
836.34	16527
836.478	16641
836.615	16432
836.753	16447
836.891	16489
837.029	16500
837.167	16360
837.305	16238
837.443	16356
837.58	16314
837.718	16390
837.856	16341
837.993	16246
838.131	16276
838.269	16223
838.406	16230
838.544	16215
838.681	15964
838.819	15975
838.956	15831
839.094	15804
839.231	15888
839.369	15911
839.506	16284
839.643	16139
839.781	15941
839.918	15823
840.055	15869
840.193	15956
840.33	15884
840.467	15835
840.604	15934
840.742	16204
840.879	15671
841.016	15648
841.153	15808
841.29	15991
841.427	15861
841.564	15945
841.701	15941
841.838	15816
841.975	15827
842.112	15827
842.249	15690
842.385	15549
842.522	15865
842.659	15671
842.796	15701
842.933	15637
843.069	15637
843.206	15561
843.343	15682
843.479	15614
843.616	15591
843.752	15378
843.889	15466
844.025	15568
844.162	15408
844.298	15542
844.435	15412
844.571	15424
844.708	15477
844.844	15686
844.98	15591
845.117	15538
845.253	15340
845.389	15325
845.525	15374
845.661	15351
845.798	15180
845.934	15195
846.07	15199
846.206	15245
846.342	15367
846.478	15192
846.614	15032
846.75	14868
846.886	14880
847.022	15085
847.158	14952
847.294	15009
847.429	15017
847.565	14914
847.701	15233
847.837	14678
847.972	14754
848.108	14834
848.244	14777
848.379	14655
848.515	14602
848.65	14480
848.786	14621
848.921	14571
849.057	14621
849.192	14716
849.328	14606
849.463	14621
849.598	14606
849.734	14503
849.869	14423
850.004	14358
850.14	14328
850.275	14381
850.41	14339
850.545	14343
850.68	14309
850.815	14377
850.95	14301
851.085	14476
851.22	14465
851.355	14423
851.49	14415
851.625	14267
851.76	14206
851.895	14294
852.03	14294
852.165	14343
852.299	14305
852.434	14575
852.569	14438
852.703	14408
852.838	14415
852.973	14488
853.107	14571
853.242	14301
853.376	14332
853.511	14202
853.645	14206
853.78	14415
853.914	14263
854.048	14229
854.183	14225
854.317	14233
854.451	14400
854.585	14210
854.72	14195
854.854	14328
854.988	14199
855.122	14164
855.256	14069
855.39	14149
855.524	14351
855.658	14259
855.792	14252
855.926	14256
856.06	14267
856.194	14298
856.327	14324
856.461	14142
856.595	14180
856.729	14294
856.862	14317
856.996	14191
857.13	14324
857.263	14172
857.397	14366
857.53	14294
857.664	14317
857.797	14366
857.931	14404
858.064	14377
858.197	14286
858.331	14168
858.464	14164
858.597	14126
858.731	14248
858.864	14282
858.997	14176
859.13	14275
859.263	14385
859.396	14389
859.529	14221
859.662	14248
859.795	14172
859.928	14263
860.061	14339
860.194	14317
860.327	14320
860.46	14157
860.592	14313
860.725	14313
860.858	14309
860.99	14206
861.123	14111
861.256	14195
861.388	14191
861.521	14727
861.653	14221
861.786	14088
861.918	14027
862.05	14202
862.183	14225
862.315	14199
862.447	14362
862.58	14237
862.712	13997
862.844	13852
862.976	14046
863.108	14008
863.24	14518
863.372	13913
863.504	14001
863.636	14123
863.768	14084
863.9	13940
864.032	13974
864.164	13913
864.296	13993
864.428	14062
864.559	14088
864.691	14107
864.823	14046
864.954	14035
865.086	14016
865.217	14062
865.349	13978
865.48	13951
865.612	14096
865.743	14103
865.875	14024
866.006	13970
866.137	13944
866.269	14024
866.4	13898
866.531	13917
866.662	13890
866.793	13902
866.924	13925
867.055	14016
867.186	14024
867.317	13940
867.448	13883
867.579	13925
867.71	13860
867.841	13947
867.972	13906
868.103	13982
868.233	13940
868.364	14031
868.495	14084
868.625	14214
868.756	14328
868.886	14126
869.017	14218
869.147	14374
869.278	14415
869.408	14263
869.539	14248
869.669	14412
869.799	14252
869.929	14381
870.06	14336
870.19	14480
870.32	14549
870.45	14587
870.58	14564
870.71	14765
870.84	14804
870.97	14682
871.1	14632
871.23	14887
871.36	14826
871.489	14800
871.619	14838
871.749	14838
871.879	14929
872.008	14933
872.138	14861
872.267	14921
872.397	14689
872.526	14636
872.656	14583
872.785	14632
872.915	14807
873.044	14910
873.173	14921
873.303	14944
873.432	14986
873.561	15051
873.69	14849
873.819	14895
873.948	14883
874.077	14975
874.206	14842
874.335	14952
874.464	14990
874.593	15131
874.722	15097
874.851	15256
874.979	15241
875.108	15180
875.237	15245
875.365	15161
875.494	15233
875.623	15329
875.751	15184
875.88	15306
876.008	15298
876.136	15447
876.265	15545
876.393	15827
876.521	15732
876.65	15641
876.778	15595
876.906	15542
877.034	15538
877.162	15591
877.29	15530
877.418	15595
877.546	15591
877.674	15568
877.802	15587
877.93	15641
878.058	15568
878.185	15450
878.313	15660
878.441	15530
878.568	15507
878.696	15542
878.824	15667
878.951	15739
879.079	15846
879.206	15903
879.333	15705
879.461	15637
879.588	15751
879.715	15762
879.842	15975
879.97	15724
880.097	15466
880.224	15458
880.351	15477
880.478	15587
880.605	15450
880.732	15424
880.859	15637
880.986	15511
881.112	15538
881.239	15344
881.366	15169
881.493	15176
881.619	15123
881.746	15081
881.872	15150
881.999	15024
882.125	15093
882.252	15154
882.378	15199
882.505	15260
882.631	15089
882.757	14982
882.883	15005
883.01	14956
883.136	14788
883.262	14792
883.388	14788
883.514	14918
883.64	14960
883.766	14823
883.892	14758
884.018	14895
884.143	14906
884.269	15066
884.395	14781
884.52	14655
884.646	14712
884.772	14571
884.897	14530
885.023	14655
885.148	14838
885.274	14872
885.399	14845
885.524	14693
885.65	14705
885.775	14667
885.9	14667
886.025	14739
886.15	14720
886.275	14606
886.4	14587
886.525	14613
886.65	14522
886.775	14606
886.9	14720
887.025	14788
887.149	14663
887.274	14495
887.399	14442
887.523	14469
887.648	14404
887.773	14412
887.897	14644
888.021	14495
888.146	14427
888.27	14651
888.395	14564
888.519	14537
888.643	14533
888.767	14499
888.891	14412
889.015	14305
889.139	14351
889.263	14282
889.387	14541
889.511	14549
889.635	14511
889.759	14252
889.883	14225
890.006	14385
890.13	14381
890.254	14370
890.377	14317
890.501	14111
890.624	14107
890.748	14259
890.871	14084
890.995	14005
891.118	13913
891.241	14031
891.364	14073
891.488	14100
891.611	14005
891.734	14054
891.857	14020
891.98	14043
892.103	14100
892.226	14092
892.349	14065
892.471	13856
892.594	13978
892.717	14081
892.839	14065
892.962	14046
893.085	14088
893.207	14024
893.33	13833
893.452	13978
893.575	14039
893.697	13959
893.819	14199
893.941	14225
894.064	14157
894.186	14031
894.308	13997
894.43	14210
894.552	14263
894.674	14172
894.796	14005
894.918	14130
895.04	14077
895.161	14164
895.283	14176
895.405	14123
895.526	14157
895.648	14206
895.769	14183
895.891	14267
896.012	14256
896.134	14202
896.255	14271
896.376	14100
896.498	14206
896.619	14225
896.74	14168
896.861	14145
896.982	14571
897.103	14853
897.224	14568
897.345	14469
897.466	14495
897.587	14412
897.708	14651
897.828	14537
897.949	14473
898.07	14385
898.19	14514
898.311	14579
898.431	14545
898.552	14560
898.672	14629
898.792	14720
898.913	14644
899.033	14545
899.153	14347
899.273	14476
899.393	14336
899.513	14484
899.633	14370
899.753	14457
899.873	14473
899.993	14533
900.113	14396
900.232	14438
900.352	14362
900.472	14408
900.591	14282
900.711	14248
900.83	14263
900.95	14423
901.069	14374
901.189	14237
901.308	14096
901.427	13993
901.546	13940
901.665	14012
901.784	14054
901.904	13849
902.023	13826
902.141	13529
902.26	13525
902.379	13647
902.498	13510
902.617	13453
902.735	13590
902.854	13537
902.973	13510
903.091	13270
903.21	13247
903.328	13247
903.446	13190
903.565	13103
903.683	13168
903.801	12951
903.919	13126
904.038	13099
904.156	12852
904.274	12981
904.392	12886
904.51	12875
904.627	12817
904.745	13050
904.863	13034
904.981	12753
905.098	12612
905.216	12547
905.334	12688
905.451	12692
905.569	12639
905.686	12700
905.803	12513
905.921	12483
906.038	12555
906.155	12410
906.272	12330
906.389	12353
906.506	12197
906.623	12129
906.74	12152
906.857	12038
906.974	12117
907.091	12243
907.208	12285
907.324	12258
907.441	12079
907.557	11939
907.674	11950
907.79	11855
907.907	11893
908.023	11901
908.139	12041
908.256	11901
908.372	11916
908.488	11882
908.604	11771
908.72	11722
908.836	11786
908.952	11619
909.068	11741
909.184	11840
909.3	11661
909.415	11748
909.531	11771
909.647	11520
909.762	11474
909.878	11398
909.993	11497
910.108	11512
910.224	11436
910.339	11478
910.454	11364
910.57	11379
910.685	11311
910.8	11604
910.915	11493
911.03	11391
911.145	11181
911.259	11204
911.374	11117
911.489	11109
911.604	10972
911.718	10965
911.833	10961
911.947	10828
912.062	10755
912.176	10915
912.291	10927
912.405	10930
912.519	11140
912.633	11170
912.748	10968
912.862	10938
912.976	10877
913.09	10653
913.204	10831
913.318	10873
913.431	10923
913.545	10938
913.659	10946
913.772	10714
913.886	10649
914	10622
914.113	10801
914.226	10790
914.34	10786
914.453	10554
914.566	10733
914.68	10641
914.793	10664
914.906	10485
915.019	10398
915.132	10363
915.245	10459
915.358	10455
915.47	10466
915.583	10447
915.696	10466
915.809	10546
915.921	10615
916.034	10466
916.146	10428
916.259	10329
916.371	10474
916.483	10508
916.595	10318
916.708	10386
916.82	10394
916.932	10402
917.044	10352
917.156	10329
917.268	10223
917.38	10276
917.491	10204
917.603	10310
917.715	10428
917.826	10398
917.938	10280
918.049	10207
918.161	10272
918.272	10417
918.384	10379
918.495	10280
918.606	10105
918.717	10143
918.828	10200
918.939	10124
919.05	10097
919.161	10135
919.272	9983
919.383	10036
919.494	10185
919.604	10352
919.715	10207
919.826	10112
919.936	10162
920.047	10276
920.157	10200
920.267	10333
920.378	10207
920.488	10158
920.598	10428
920.708	10519
920.818	10348
920.928	10325
921.038	10500
921.148	10493
921.258	10211
921.368	10082
921.477	10025
921.587	10013
921.697	9956
921.806	10017
921.916	9918
922.025	9808
922.134	9762
922.244	9698
922.353	9823
922.462	9595
922.571	9595
922.68	9549
922.789	9431
922.898	9439
923.007	9389
923.116	9519
923.224	9412
923.333	9386
923.442	9336
923.55	9260
923.659	9332
923.767	9435
923.876	9245
923.984	9450
924.092	9291
924.201	9336
924.309	9241
924.417	9256
924.525	9253
924.633	9237
924.741	10173
924.849	9017
924.956	9302
925.064	9116
925.172	9009
925.279	9017
925.387	9077
925.494	9055
925.602	9249
925.709	9230
925.816	9032
925.924	9093
926.031	9230
926.138	9055
926.245	9135
926.352	9009
926.459	9180
926.566	9226
926.673	9058
926.779	8952
926.886	8937
926.993	8887
927.099	8785
927.206	8769
927.312	8796
927.419	8899
927.525	8731
927.631	8830
927.737	8758
927.843	8724
927.95	8579
928.056	8689
928.162	8617
928.267	8750
928.373	9230
928.479	8788
928.585	8545
928.69	8712
928.796	8708
928.901	8625
929.007	8495
929.112	8610
929.218	8583
929.323	8552
929.428	8560
929.533	8613
929.638	8473
929.743	8545
929.848	8552
929.953	8499
930.058	8393
930.163	8275
930.267	8240
930.372	8461
930.477	8237
930.581	8568
930.685	8377
930.79	8298
930.894	8263
930.998	8164
931.103	8347
931.207	8073
931.311	7982
931.415	7906
931.519	7719
931.623	7727
