Data from test_V78500241_1651.txt Node
Date: Fri Mar 25 14:45:12 CST 2022
User: usil
Spectrometer: V785-0024
Trigger mode: 0
Integration Time (sec): 4.000000E-1
Scans to average: 1
Nonlinearity correction enabled: false
Boxcar width: 0
Storing dark spectrum: false
XAxis mode: Wavelengths
Number of Pixels in Spectrum: 1024
>>>>>Begin Spectral Data<<<<<
801.071	22375
801.214	22185
801.356	21895
801.499	21774
801.641	21850
801.783	21793
801.926	21690
802.068	21732
802.211	21583
802.353	21504
802.496	21157
802.638	21184
802.78	21173
802.923	21043
803.065	20956
803.208	20948
803.35	21070
803.492	21142
803.635	21135
803.777	20918
803.919	21161
804.061	21363
804.204	21150
804.346	20982
804.488	20864
804.63	21017
804.773	20887
804.915	20929
805.057	20921
805.199	20948
805.341	21024
805.483	21036
805.626	20967
805.768	20845
805.91	21036
806.052	20895
806.194	20937
806.336	20956
806.478	20883
806.62	20864
806.762	20967
806.904	21104
807.046	21428
807.188	21203
807.33	21157
807.472	21321
807.614	21321
807.756	21226
807.898	21138
808.04	21058
808.182	21024
808.324	21176
808.465	21233
808.607	21325
808.749	21378
808.891	21393
809.033	21485
809.174	21466
809.316	21443
809.458	21405
809.6	21420
809.741	21428
809.883	21348
810.025	21523
810.166	21431
810.308	21408
810.45	21428
810.591	21363
810.733	21241
810.875	21077
811.016	21131
811.158	20994
811.299	21150
811.441	21279
811.582	21321
811.724	21165
811.865	21146
812.007	21123
812.148	21013
812.29	21093
812.431	21355
812.573	21393
812.714	21595
812.855	21709
812.997	21884
813.138	21736
813.279	21743
813.421	21698
813.562	21603
813.703	21454
813.845	21325
813.986	21039
814.127	20830
814.268	20724
814.41	20743
814.551	20701
814.692	20811
814.833	20568
814.974	20575
815.115	20720
815.256	20412
815.397	20609
815.539	20511
815.68	20366
815.821	20309
815.962	20461
816.103	20343
816.244	20206
816.385	20100
816.526	20084
816.666	20039
816.807	19712
816.948	19902
817.089	19989
817.23	19715
817.371	19712
817.512	19757
817.653	19765
817.793	19742
817.934	19841
818.075	19814
818.216	19871
818.356	19753
818.497	19658
818.638	19502
818.778	19483
818.919	19434
819.06	19487
819.2	19616
819.341	19696
819.481	19643
819.622	19849
819.762	19982
819.903	19879
820.043	19761
820.184	19788
820.324	19746
820.465	19906
820.605	19780
820.746	19575
820.886	19594
821.026	19765
821.167	19723
821.307	19746
821.447	19784
821.588	19552
821.728	19460
821.868	19232
822.008	19179
822.149	19179
822.289	19206
822.429	18909
822.569	18863
822.709	18863
822.849	18711
822.99	18639
823.13	18646
823.27	18665
823.41	18407
823.55	18384
823.69	18547
823.83	18479
823.97	18414
824.11	18182
824.25	18174
824.389	18292
824.529	18361
824.669	18346
824.809	18418
824.949	18395
825.089	18136
825.228	18117
825.368	18034
825.508	18098
825.648	18015
825.787	18114
825.927	18106
826.067	17920
826.206	17958
826.346	17996
826.485	18125
826.625	18087
826.765	18091
826.904	17984
827.044	17878
827.183	17703
827.323	17642
827.462	17714
827.601	17653
827.741	17703
827.88	17710
828.02	17501
828.159	17695
828.298	17752
828.437	17741
828.577	17665
828.716	17775
828.855	17668
828.994	17512
829.134	17463
829.273	17547
829.412	17349
829.551	17440
829.69	17467
829.829	17528
829.968	17509
830.107	17436
830.246	17516
830.385	17372
830.524	17330
830.663	17200
830.802	17269
830.941	17025
831.08	17071
831.219	17151
831.357	17121
831.496	17315
831.635	17250
831.774	16934
831.913	17022
832.051	16889
832.19	16831
832.329	16908
832.467	16736
832.606	16698
832.744	16790
832.883	16797
833.022	16755
833.16	16778
833.299	16713
833.437	16805
833.576	16786
833.714	16847
833.852	16843
833.991	16782
834.129	16942
834.267	16831
834.406	16649
834.544	16930
834.682	16767
834.821	16771
834.959	16908
835.097	16752
835.235	16744
835.373	16809
835.511	16816
835.65	16717
835.788	16637
835.926	16626
836.064	16360
836.202	16596
836.34	16664
836.478	16748
836.615	16668
836.753	16755
836.891	16660
837.029	16793
837.167	16611
837.305	16519
837.443	16664
837.58	16466
837.718	16607
837.856	16474
837.993	16424
838.131	16584
838.269	16470
838.406	16474
838.544	16504
838.681	16303
838.819	16230
838.956	16116
839.094	16185
839.231	16181
839.369	16242
839.506	16459
839.643	16295
839.781	16067
839.918	16067
840.055	16013
840.193	16135
840.33	16124
840.467	16059
840.604	16211
840.742	16375
840.879	15991
841.016	16006
841.153	15998
841.29	16139
841.427	16124
841.564	16116
841.701	16173
841.838	16021
841.975	16013
842.112	16010
842.249	15930
842.385	15819
842.522	16090
842.659	15892
842.796	15842
842.933	15907
843.069	15774
843.206	15838
843.343	15892
843.479	15770
843.616	15827
843.752	15690
843.889	15648
844.025	15797
844.162	15591
844.298	15724
844.435	15660
844.571	15580
844.708	15701
844.844	15831
844.98	15743
845.117	15739
845.253	15694
845.389	15614
845.525	15770
845.661	15610
845.798	15454
845.934	15633
846.07	15584
846.206	15690
846.342	15675
846.478	15469
846.614	15294
846.75	15123
846.886	15230
847.022	15408
847.158	15241
847.294	15161
847.429	15249
847.565	15195
847.701	15443
847.837	15001
847.972	14899
848.108	15077
848.244	15020
848.379	14838
848.515	14918
848.65	14857
848.786	14701
848.921	14838
849.057	14914
849.192	14910
849.328	14891
849.463	14971
849.598	14777
849.734	14807
849.869	14716
850.004	14571
850.14	14686
850.275	14705
850.41	14480
850.545	14541
850.68	14522
850.815	14678
850.95	14537
851.085	14792
851.22	14621
851.355	14632
851.49	14469
851.625	14636
851.76	14644
851.895	14434
852.03	14457
852.165	14701
852.299	14537
852.434	14674
852.569	14541
852.703	14655
852.838	14625
852.973	14750
853.107	14705
853.242	14590
853.376	14499
853.511	14385
853.645	14415
853.78	14507
853.914	14556
854.048	14454
854.183	14469
854.317	14503
854.451	14636
854.585	14385
854.72	14476
854.854	14560
854.988	14431
855.122	14602
855.256	14298
855.39	14461
855.524	14457
855.658	14541
855.792	14431
855.926	14533
856.06	14568
856.194	14564
856.327	14537
856.461	14377
856.595	14396
856.729	14423
856.862	14621
856.996	14522
857.13	14457
857.263	14560
857.397	14594
857.53	14476
857.664	14530
857.797	14530
857.931	14610
858.064	14514
858.197	14579
858.331	14495
858.464	14389
858.597	14389
858.731	14492
858.864	14461
858.997	14404
859.13	14541
859.263	14541
859.396	14545
859.529	14457
859.662	14320
859.795	14480
859.928	14461
860.061	14545
860.194	14552
860.327	14484
860.46	14469
860.592	14560
860.725	14625
860.858	14625
860.99	14400
861.123	14339
861.256	14396
861.388	14442
861.521	15013
861.653	14275
861.786	14278
861.918	14339
862.05	14355
862.183	14404
862.315	14568
862.447	14492
862.58	14450
862.712	14229
862.844	14237
862.976	14259
863.108	14313
863.24	14689
863.372	14142
863.504	14221
863.636	14210
863.768	14351
863.9	14275
864.032	14157
864.164	14267
864.296	14313
864.428	14355
864.559	14358
864.691	14339
864.823	14229
864.954	14267
865.086	14263
865.217	14286
865.349	14214
865.48	14252
865.612	14286
865.743	14305
865.875	14290
866.006	14210
866.137	14218
866.269	14161
866.4	14168
866.531	14149
866.662	14157
866.793	14142
866.924	14183
867.055	14233
867.186	14286
867.317	14278
867.448	14161
867.579	14161
867.71	14115
867.841	14176
867.972	14176
868.103	14218
868.233	14191
868.364	14191
868.495	14233
868.625	14374
868.756	14594
868.886	14381
869.017	14476
869.147	14587
869.278	14610
869.408	14575
869.539	14370
869.669	14533
869.799	14419
869.929	14533
870.06	14484
870.19	14701
870.32	14720
870.45	14765
870.58	14849
870.71	14971
870.84	14914
870.97	14849
871.1	14868
871.23	15123
871.36	15062
871.489	14921
871.619	15017
871.749	15020
871.879	15165
872.008	15241
872.138	15074
872.267	15001
872.397	14948
872.526	14838
872.656	14849
872.785	14925
872.915	15089
873.044	15176
873.173	15077
873.303	15112
873.432	15112
873.561	15180
873.69	15047
873.819	15157
873.948	15226
874.077	15135
874.206	15154
874.335	15028
874.464	15260
874.593	15367
874.722	15291
874.851	15412
874.979	15488
875.108	15492
875.237	15329
875.365	15424
875.494	15397
875.623	15458
875.751	15443
875.88	15374
876.008	15549
876.136	15629
876.265	15888
876.393	15972
876.521	16063
876.65	15994
876.778	15903
876.906	15823
877.034	15804
877.162	15846
877.29	15770
877.418	15804
877.546	15808
877.674	15854
877.802	15774
877.93	15736
878.058	15831
878.185	15781
878.313	15850
878.441	15899
878.568	15770
878.696	15766
878.824	15854
878.951	15842
879.079	16036
879.206	16120
879.333	16002
879.461	15960
879.588	15854
879.715	16063
879.842	16154
879.97	16006
880.097	15701
880.224	15644
880.351	15701
880.478	15720
880.605	15804
880.732	15671
880.859	15880
880.986	15770
881.112	15629
881.239	15610
881.366	15469
881.493	15374
881.619	15272
881.746	15378
881.872	15268
881.999	15294
882.125	15325
882.252	15488
882.378	15359
882.505	15458
882.631	15237
882.757	15119
882.883	15119
883.01	15180
883.136	15093
883.262	14960
883.388	15108
883.514	15302
883.64	15252
883.766	15081
883.892	14971
884.018	14948
884.143	15294
884.269	15230
884.395	14941
884.52	14861
884.646	14830
884.772	14872
884.897	14807
885.023	14963
885.148	14971
885.274	15074
885.399	15013
885.524	14937
885.65	14918
885.775	14811
885.9	14857
886.025	14963
886.15	14891
886.275	14933
886.4	14731
886.525	14872
886.65	14743
886.775	14804
886.9	14971
887.025	15070
887.149	14819
887.274	14663
887.399	14670
887.523	14689
887.648	14583
887.773	14575
887.897	14716
888.021	14785
888.146	14533
888.27	14819
888.395	14792
888.519	14765
888.643	14686
888.767	14773
888.891	14606
889.015	14518
889.139	14606
889.263	14480
889.387	14670
889.511	14807
889.635	14648
889.759	14537
889.883	14518
890.006	14571
890.13	14686
890.254	14560
890.377	14560
890.501	14343
890.624	14358
890.748	14450
890.871	14294
890.995	14218
891.118	14157
891.241	14199
891.364	14218
891.488	14389
891.611	14180
891.734	14210
891.857	14347
891.98	14187
892.103	14377
892.226	14229
892.349	14263
892.471	14142
892.594	14130
892.717	14267
892.839	14248
892.962	14355
893.085	14313
893.207	14317
893.33	14195
893.452	14153
893.575	14332
893.697	14290
893.819	14526
893.941	14423
894.064	14317
894.186	14347
894.308	14195
894.43	14370
894.552	14480
894.674	14393
894.796	14191
894.918	14286
895.04	14290
895.161	14473
895.283	14374
895.405	14396
895.526	14339
895.648	14313
895.769	14385
895.891	14374
896.012	14419
896.134	14374
896.255	14450
896.376	14339
896.498	14404
896.619	14507
896.74	14469
896.861	14461
896.982	14838
897.103	14937
897.224	14731
897.345	14636
897.466	14678
897.587	14693
897.708	14849
897.828	14735
897.949	14686
898.07	14514
898.19	14632
898.311	14864
898.431	14842
898.552	14655
898.672	14842
898.792	14708
898.913	14754
899.033	14727
899.153	14556
899.273	14556
899.393	14549
899.513	14659
899.633	14602
899.753	14648
899.873	14651
899.993	14727
900.113	14663
900.232	14724
900.352	14598
900.472	14571
900.591	14431
900.711	14461
900.83	14480
900.95	14533
901.069	14632
901.189	14393
901.308	14221
901.427	14195
901.546	14180
901.665	14123
901.784	14237
901.904	14054
902.023	13860
902.141	13772
902.26	13761
902.379	13845
902.498	13696
902.617	13658
902.735	13807
902.854	13734
902.973	13712
903.091	13480
903.21	13491
903.328	13415
903.446	13434
903.565	13312
903.683	13491
903.801	13133
903.919	13259
904.038	13346
904.156	13141
904.274	13171
904.392	13008
904.51	12996
904.627	13099
904.745	13217
904.863	13095
904.981	12962
905.098	12878
905.216	12772
905.334	12806
905.451	12875
905.569	12795
905.686	12821
905.803	12772
905.921	12719
906.038	12696
906.155	12639
906.272	12547
906.389	12460
906.506	12365
906.623	12422
906.74	12395
906.857	12190
906.974	12388
907.091	12490
907.208	12532
907.324	12426
907.441	12296
907.557	12136
907.674	12182
907.79	12026
907.907	12034
908.023	12072
908.139	12019
908.256	12022
908.372	12064
908.488	11996
908.604	11863
908.72	11916
908.836	11874
908.952	11817
909.068	11904
909.184	11939
909.3	11851
909.415	11942
909.531	11923
909.647	11733
909.762	11688
909.878	11608
909.993	11627
910.108	11573
910.224	11729
910.339	11672
910.454	11596
910.57	11512
910.685	11554
910.8	11813
910.915	11752
911.03	11410
911.145	11345
911.259	11292
911.374	11383
911.489	11303
911.604	11231
911.718	11174
911.833	11220
911.947	11029
912.062	10896
912.176	11102
912.291	11117
912.405	11067
912.519	11208
912.633	11223
912.748	11178
912.862	11056
912.976	10968
913.09	10881
913.204	10946
913.318	10999
913.431	11014
913.545	11094
913.659	11109
913.772	10984
913.886	10919
914	10805
914.113	10980
914.226	10934
914.34	10999
914.453	10744
914.566	10911
914.68	10801
914.793	10824
914.906	10653
915.019	10577
915.132	10497
915.245	10588
915.358	10622
915.47	10649
915.583	10577
915.696	10752
915.809	10729
915.921	10782
916.034	10618
916.146	10630
916.259	10508
916.371	10611
916.483	10630
916.595	10447
916.708	10527
916.82	10569
916.932	10512
917.044	10523
917.156	10519
917.268	10424
917.38	10356
917.491	10421
917.603	10405
917.715	10470
917.826	10561
917.938	10474
918.049	10223
918.161	10478
918.272	10535
918.384	10569
918.495	10436
918.606	10291
918.717	10227
918.828	10276
918.939	10402
919.05	10177
919.161	10249
919.272	10150
919.383	10154
919.494	10341
919.604	10504
919.715	10379
919.826	10272
919.936	10314
920.047	10394
920.157	10375
920.267	10497
920.378	10360
920.488	10314
920.598	10462
920.708	10637
920.818	10481
920.928	10500
921.038	10637
921.148	10641
921.258	10405
921.368	10215
921.477	10219
921.587	10185
921.697	10021
921.806	10192
921.916	10097
922.025	9926
922.134	9884
922.244	9850
922.353	9937
922.462	9774
922.571	9698
922.68	9599
922.789	9572
922.898	9591
923.007	9557
923.116	9652
923.224	9572
923.333	9538
923.442	9462
923.55	9447
923.659	9412
923.767	9488
923.876	9450
923.984	9469
924.092	9386
924.201	9416
924.309	9507
924.417	9416
924.525	9302
924.633	9458
924.741	10204
924.849	9169
924.956	9370
925.064	9260
925.172	9119
925.279	9176
925.387	9173
925.494	9207
925.602	9298
925.709	9317
925.816	9230
925.924	9253
926.031	9325
926.138	9203
926.245	9256
926.352	9138
926.459	9275
926.566	9306
926.673	9180
926.779	9116
926.886	9097
926.993	8948
927.099	8967
927.206	8899
927.312	8849
927.419	8982
927.525	8956
927.631	8925
927.737	8876
927.843	8792
927.95	8769
928.056	8777
928.162	8823
928.267	8921
928.373	9268
928.479	8921
928.585	8689
928.69	8777
928.796	8899
928.901	8785
929.007	8606
929.112	8750
929.218	8674
929.323	8613
929.428	8610
929.533	8739
929.638	8629
929.743	8598
929.848	8693
929.953	8617
930.058	8537
930.163	8381
930.267	8499
930.372	8549
930.477	8294
930.581	8674
930.685	8533
930.79	8263
930.894	8408
930.998	8328
931.103	8522
931.207	8138
931.311	8103
931.415	8084
931.519	7837
931.623	7837
