Data from test_V78500241_891.txt Node
Date: Fri Mar 25 14:39:55 CST 2022
User: usil
Spectrometer: V785-0024
Trigger mode: 0
Integration Time (sec): 4.000000E-1
Scans to average: 1
Nonlinearity correction enabled: false
Boxcar width: 0
Storing dark spectrum: false
XAxis mode: Wavelengths
Number of Pixels in Spectrum: 1024
>>>>>Begin Spectral Data<<<<<
801.071	25282
801.214	25175
801.356	24894
801.499	24817
801.641	24802
801.783	24768
801.926	24597
802.068	24623
802.211	24536
802.353	24213
802.496	24057
802.638	23946
802.78	24095
802.923	24076
803.065	24026
803.208	24022
803.35	24018
803.492	24068
803.635	24026
803.777	23999
803.919	24038
804.061	24342
804.204	24030
804.346	24007
804.488	23859
804.63	24083
804.773	23843
804.915	24068
805.057	24186
805.199	24053
805.341	24114
805.483	24110
805.626	24205
805.768	24064
805.91	24148
806.052	24178
806.194	24098
806.336	24448
806.478	24296
806.62	24498
806.762	24475
806.904	24696
807.046	25126
807.188	25038
807.33	25133
807.472	25346
807.614	25422
807.756	25788
807.898	25947
808.04	26320
808.182	26777
808.324	27557
808.465	28185
808.607	29166
808.749	30117
808.891	30467
809.033	30513
809.174	29923
809.316	29273
809.458	28371
809.6	27561
809.741	26811
809.883	26259
810.025	26077
810.166	25909
810.308	25556
810.45	25301
810.591	25168
810.733	24875
810.875	24738
811.016	24566
811.158	24502
811.299	24669
811.441	24696
811.582	24582
811.724	24437
811.865	24323
812.007	24342
812.148	24369
812.29	24270
812.431	24597
812.573	24703
812.714	24764
812.855	24890
812.997	24916
813.138	25015
813.279	24806
813.421	24749
813.562	24764
813.703	24612
813.845	24422
813.986	24190
814.127	23923
814.268	23790
814.41	23859
814.551	23843
814.692	23824
814.833	23695
814.974	23680
815.115	23767
815.256	23668
815.397	23471
815.539	23478
815.68	23372
815.821	23376
815.962	23391
816.103	23509
816.244	23223
816.385	23261
816.526	23159
816.666	22976
816.807	22835
816.948	22900
817.089	22934
817.23	22843
817.371	22831
817.512	22797
817.653	22812
817.793	22607
817.934	22782
818.075	22900
818.216	22733
818.356	22729
818.497	22637
818.638	22443
818.778	22417
818.919	22550
819.06	22580
819.2	22550
819.341	22569
819.481	22672
819.622	22843
819.762	22984
819.903	22908
820.043	22786
820.184	22797
820.324	22641
820.465	22729
820.605	22831
820.746	22603
820.886	22557
821.026	22565
821.167	22637
821.307	22607
821.447	22630
821.588	22462
821.728	22424
821.868	22303
822.008	22181
822.149	21987
822.289	21983
822.429	21816
822.569	21660
822.709	21679
822.849	21561
822.99	21542
823.13	21351
823.27	21488
823.41	21355
823.55	21161
823.69	21313
823.83	21367
823.97	21291
824.11	21055
824.25	20963
824.389	21024
824.529	21036
824.669	21062
824.809	21165
824.949	21085
825.089	21157
825.228	21207
825.368	20986
825.508	20891
825.648	20819
825.787	20929
825.927	20925
826.067	20785
826.206	20769
826.346	20845
826.485	20845
826.625	20815
826.765	20952
826.904	20868
827.044	20590
827.183	20434
827.323	20476
827.462	20507
827.601	20556
827.741	20473
827.88	20423
828.02	20374
828.159	20495
828.298	20450
828.437	20541
828.577	20571
828.716	20629
828.855	20412
828.994	20210
829.134	20214
829.273	20172
829.412	20149
829.551	20111
829.69	20138
829.829	20210
829.968	20385
830.107	20244
830.246	20115
830.385	20138
830.524	20149
830.663	20020
830.802	19982
830.941	19803
831.08	19814
831.219	19944
831.357	19868
831.496	20001
831.635	19967
831.774	19742
831.913	19643
832.051	19620
832.19	19590
832.329	19662
832.467	19518
832.606	19518
832.744	19460
832.883	19658
833.022	19525
833.16	19552
833.299	19628
833.437	19632
833.576	19666
833.714	19849
833.852	19852
833.991	19841
834.129	19795
834.267	19925
834.406	19875
834.544	19826
834.682	19822
834.821	19635
834.959	19765
835.097	19556
835.235	19708
835.373	19487
835.511	19582
835.65	19453
835.788	19293
835.926	19274
836.064	19164
836.202	19255
836.34	19369
836.478	19464
836.615	19403
836.753	19381
836.891	19316
837.029	19282
837.167	19221
837.305	19274
837.443	19270
837.58	19255
837.718	19187
837.856	19187
837.993	19110
838.131	19221
838.269	19061
838.406	19084
838.544	18966
838.681	18875
838.819	18745
838.956	18726
839.094	18661
839.231	18741
839.369	18760
839.506	19107
839.643	18878
839.781	18692
839.918	18673
840.055	18715
840.193	18593
840.33	18486
840.467	18570
840.604	18593
840.742	18871
840.879	18490
841.016	18490
841.153	18608
841.29	18650
841.427	18551
841.564	18532
841.701	18669
841.838	18498
841.975	18483
842.112	18498
842.249	18448
842.385	18410
842.522	18620
842.659	18407
842.796	18277
842.933	18319
843.069	18327
843.206	18262
843.343	18433
843.479	18342
843.616	18365
843.752	18174
843.889	18209
844.025	18315
844.162	18178
844.298	18304
844.435	18251
844.571	18174
844.708	18346
844.844	18673
844.98	18700
845.117	18852
845.253	18935
845.389	19316
845.525	20191
845.661	21557
845.798	23200
845.934	24669
846.07	25312
846.206	25148
846.342	24041
846.478	22246
846.614	20568
846.75	19335
846.886	18802
847.022	18407
847.158	18186
847.294	17908
847.429	17996
847.565	17779
847.701	17954
847.837	17478
847.972	17398
848.108	17493
848.244	17570
848.379	17345
848.515	17284
848.65	17239
848.786	17288
848.921	17261
849.057	17322
849.192	17395
849.328	17315
849.463	17223
849.598	17159
849.734	17094
849.869	17109
850.004	17006
850.14	17022
850.275	16980
850.41	16923
850.545	16965
850.68	16991
850.815	16927
850.95	16927
851.085	17174
851.22	16984
851.355	16930
851.49	16927
851.625	16904
851.76	16915
851.895	16873
852.03	16858
852.165	16965
852.299	16961
852.434	17018
852.569	17102
852.703	16927
852.838	17124
852.973	17136
853.107	17159
853.242	16965
853.376	16786
853.511	16740
853.645	16805
853.78	17003
853.914	16892
854.048	16828
854.183	16892
854.317	16900
854.451	17067
854.585	16896
854.72	16915
854.854	16953
854.988	16717
855.122	16873
855.256	16710
855.39	16778
855.524	16885
855.658	16873
855.792	16900
855.926	16835
856.06	16885
856.194	16839
856.327	16805
856.461	16790
856.595	16740
856.729	16774
856.862	16881
856.996	16858
857.13	16816
857.263	16934
857.397	16828
857.53	16790
857.664	16809
857.797	16793
857.931	16835
858.064	16740
858.197	16786
858.331	16847
858.464	16733
858.597	16615
858.731	16637
858.864	16790
858.997	16733
859.13	16767
859.263	16744
859.396	16778
859.529	16710
859.662	16649
859.795	16771
859.928	16767
860.061	16923
860.194	16881
860.327	16706
860.46	16675
860.592	16809
860.725	16755
860.858	16900
860.99	16675
861.123	16713
861.256	16698
861.388	16706
861.521	17356
861.653	16493
861.786	16538
861.918	16573
862.05	16740
862.183	16694
862.315	16653
862.447	16824
862.58	16622
862.712	16443
862.844	16508
862.976	16561
863.108	16607
863.24	16904
863.372	16360
863.504	16493
863.636	16337
863.768	16504
863.9	16421
864.032	16478
864.164	16455
864.296	16398
864.428	16500
864.559	16618
864.691	16531
864.823	16493
864.954	16519
865.086	16443
865.217	16409
865.349	16402
865.48	16341
865.612	16440
865.743	16497
865.875	16489
866.006	16421
866.137	16440
866.269	16436
866.4	16363
866.531	16356
866.662	16287
866.793	16386
866.924	16436
867.055	16424
867.186	16348
867.317	16310
867.448	16287
867.579	16344
867.71	16333
867.841	16318
867.972	16344
868.103	16451
868.233	16462
868.364	16375
868.495	16405
868.625	16645
868.756	16672
868.886	16504
869.017	16611
869.147	16729
869.278	16702
869.408	16637
869.539	16672
869.669	16675
869.799	16755
869.929	16748
870.06	16675
870.19	16877
870.32	16889
870.45	17029
870.58	17079
870.71	17166
870.84	17094
870.97	16961
871.1	17045
871.23	17060
871.36	17223
871.489	17056
871.619	17117
871.749	17109
871.879	17277
872.008	17360
872.138	17277
872.267	17292
872.397	17143
872.526	17143
872.656	17132
872.785	17029
872.915	17315
873.044	17349
873.173	17334
873.303	17387
873.432	17364
873.561	17410
873.69	17356
873.819	17303
873.948	17463
874.077	17474
874.206	17318
874.335	17345
874.464	17505
874.593	17570
874.722	17684
874.851	17851
874.979	17653
875.108	17680
875.237	17615
875.365	17611
875.494	17703
875.623	17821
875.751	17634
875.88	17786
876.008	17897
876.136	18030
876.265	18251
876.393	18311
876.521	18327
876.65	18350
876.778	18186
876.906	18262
877.034	18133
877.162	18273
877.29	18258
877.418	18247
877.546	18266
877.674	18300
877.802	18460
877.93	18403
878.058	18452
878.185	18479
878.313	18528
878.441	18722
878.568	18627
878.696	18844
878.824	19019
878.951	19441
879.079	20039
879.206	20594
879.333	21062
879.461	21355
879.588	21831
879.715	21812
879.842	21633
879.97	20952
880.097	20210
880.224	19814
880.351	19540
880.478	19236
880.605	19015
880.732	19057
880.859	19148
880.986	18966
881.112	18745
881.239	18692
881.366	18639
881.493	18589
881.619	18544
881.746	18540
881.872	18540
881.999	18471
882.125	18376
882.252	18513
882.378	18570
882.505	18726
882.631	18528
882.757	18426
882.883	18433
883.01	18410
883.136	18289
883.262	18228
883.388	18247
883.514	18342
883.64	18403
883.766	18361
883.892	18049
884.018	18190
884.143	18239
884.269	18391
884.395	18098
884.52	18022
884.646	18079
884.772	18026
884.897	17847
885.023	18072
885.148	18022
885.274	18133
885.399	18068
885.524	17973
885.65	18007
885.775	17908
885.9	17935
886.025	17950
886.15	17882
886.275	17630
886.4	17646
886.525	17665
886.65	17501
886.775	17573
886.9	17726
887.025	17752
887.149	17554
887.274	17364
887.399	17379
887.523	17360
887.648	17258
887.773	17128
887.897	17360
888.021	17231
888.146	17185
888.27	17334
888.395	17322
888.519	17277
888.643	17258
888.767	17292
888.891	16965
889.015	16972
889.139	17041
889.263	17022
889.387	17151
889.511	17162
889.635	17185
889.759	16843
889.883	16850
890.006	16934
890.13	17025
890.254	16759
890.377	16786
890.501	16691
890.624	16679
890.748	16630
890.871	16550
890.995	16478
891.118	16356
891.241	16554
891.364	16504
891.488	16603
891.611	16398
891.734	16519
891.857	16459
891.98	16474
892.103	16466
892.226	16538
892.349	16474
892.471	16181
892.594	16276
892.717	16519
892.839	16272
892.962	16440
893.085	16382
893.207	16443
893.33	16249
893.452	16230
893.575	16447
893.697	16318
893.819	16402
893.941	16542
894.064	16417
894.186	16318
894.308	16204
894.43	16352
894.552	16558
894.674	16478
894.796	16147
894.918	16394
895.04	16295
895.161	16421
895.283	16436
895.405	16299
895.526	16386
895.648	16287
895.769	16390
895.891	16382
896.012	16508
896.134	16440
896.255	16428
896.376	16344
896.498	16382
896.619	16440
896.74	16322
896.861	16485
896.982	16774
897.103	16930
897.224	16733
897.345	16664
897.466	16489
897.587	16622
897.708	16755
897.828	16744
897.949	16653
898.07	16432
898.19	16596
898.311	16771
898.431	16637
898.552	16634
898.672	16793
898.792	16752
898.913	16786
899.033	16725
899.153	16436
899.273	16462
899.393	16558
899.513	16474
899.633	16516
899.753	16462
899.873	16497
899.993	16607
900.113	16432
900.232	16485
900.352	16504
900.472	16303
900.591	16367
900.711	16409
900.83	16261
900.95	16421
901.069	16493
901.189	16215
901.308	16200
901.427	15972
901.546	15941
901.665	16082
901.784	15926
901.904	15926
902.023	15751
902.141	15625
902.26	15519
902.379	15595
902.498	15511
902.617	15374
902.735	15530
902.854	15481
902.973	15393
903.091	15279
903.21	15138
903.328	15199
903.446	15119
903.565	14998
903.683	14982
903.801	14956
903.919	14921
904.038	14933
904.156	14724
904.274	14834
904.392	14788
904.51	14735
904.627	14788
904.745	14834
904.863	14842
904.981	14495
905.098	14400
905.216	14362
905.334	14526
905.451	14556
905.569	14355
905.686	14438
905.803	14526
905.921	14214
906.038	14339
906.155	14210
906.272	14100
906.389	14195
906.506	14046
906.623	13879
906.74	13986
906.857	13871
906.974	13868
907.091	14073
907.208	14077
907.324	14069
907.441	13875
907.557	13757
907.674	13708
907.79	13571
907.907	13651
908.023	13811
908.139	13693
908.256	13639
908.372	13609
908.488	13575
908.604	13548
908.72	13244
908.836	13422
908.952	13377
909.068	13358
909.184	13537
909.3	13293
909.415	13483
909.531	13403
909.647	13183
909.762	13187
909.878	13057
909.993	13202
910.108	13080
910.224	13107
910.339	13129
910.454	13027
910.57	12958
910.685	12958
910.8	13244
910.915	13221
911.03	12943
911.145	12867
911.259	12669
911.374	12764
911.489	12760
911.604	12646
911.718	12528
911.833	12486
911.947	12460
912.062	12365
912.176	12506
912.291	12502
912.405	12513
912.519	12669
912.633	12772
912.748	12582
912.862	12448
912.976	12372
913.09	12357
913.204	12254
913.318	12426
913.431	12448
913.545	12483
913.659	12452
913.772	12399
913.886	12220
914	12220
914.113	12365
914.226	12369
914.34	12270
914.453	12201
914.566	12258
914.68	12262
914.793	12144
914.906	12041
915.019	12003
915.132	11813
915.245	12053
915.358	11988
915.47	12091
915.583	11996
915.696	12083
915.809	12197
915.921	12163
916.034	11859
916.146	11961
916.259	11901
916.371	11942
916.483	11939
916.595	11866
916.708	11836
916.82	11859
916.932	11767
917.044	11828
917.156	11843
917.268	11741
917.38	11737
917.491	11805
917.603	11760
917.715	11889
917.826	11733
917.938	11668
918.049	11573
918.161	11710
918.272	11851
918.384	11912
918.495	11737
918.606	11608
918.717	11478
918.828	11539
918.939	11714
919.05	11486
919.161	11547
919.272	11277
919.383	11482
919.494	11585
919.604	11722
919.715	11627
919.826	11482
919.936	11524
920.047	11570
920.157	11634
920.267	11790
920.378	11577
920.488	11532
920.598	11767
920.708	11939
920.818	11695
920.928	11760
921.038	11863
921.148	11882
921.258	11634
921.368	11509
921.477	11429
921.587	11299
921.697	11277
921.806	11356
921.916	11208
922.025	11178
922.134	11064
922.244	10949
922.353	11136
922.462	10957
922.571	10877
922.68	10793
922.789	10725
922.898	10717
923.007	10675
923.116	10755
923.224	10694
923.333	10691
923.442	10573
923.55	10561
923.659	10611
923.767	10672
923.876	10527
923.984	10580
924.092	10497
924.201	10584
924.309	10554
924.417	10421
924.525	10413
924.633	10455
924.741	11246
924.849	10246
924.956	10375
925.064	10306
925.172	10227
925.279	10219
925.387	10367
925.494	10284
925.602	10481
925.709	10363
925.816	10215
925.924	10341
926.031	10287
926.138	10306
926.245	10318
926.352	10147
926.459	10348
926.566	10360
926.673	10242
926.779	10181
926.886	10166
926.993	9972
927.099	9975
927.206	9915
927.312	9926
927.419	10059
927.525	9945
927.631	10013
927.737	9865
927.843	9854
927.95	9774
928.056	9819
928.162	9865
928.267	9911
928.373	10497
928.479	9937
928.585	9713
928.69	9838
928.796	9895
928.901	9785
929.007	9625
929.112	9762
929.218	9736
929.323	9660
929.428	9701
929.533	9728
929.638	9553
929.743	9663
929.848	9709
929.953	9618
930.058	9561
930.163	9397
930.267	9332
930.372	9519
930.477	9359
930.581	9587
930.685	9458
930.79	9332
930.894	9351
930.998	9351
931.103	9469
931.207	8979
931.311	9093
931.415	8948
931.519	8788
931.623	8724
