Data from test_V78500241_2201.txt Node
Date: Fri Mar 25 14:49:02 CST 2022
User: usil
Spectrometer: V785-0024
Trigger mode: 0
Integration Time (sec): 4.000000E-1
Scans to average: 1
Nonlinearity correction enabled: false
Boxcar width: 0
Storing dark spectrum: false
XAxis mode: Wavelengths
Number of Pixels in Spectrum: 1024
>>>>>Begin Spectral Data<<<<<
801.071	22166
801.214	22063
801.356	21705
801.499	21728
801.641	21481
801.783	21454
801.926	21538
802.068	21485
802.211	21351
802.353	21336
802.496	21123
802.638	21123
802.78	21005
802.923	20887
803.065	20933
803.208	20872
803.35	20834
803.492	21047
803.635	21051
803.777	20937
803.919	20937
804.061	21135
804.204	21009
804.346	20842
804.488	20807
804.63	20842
804.773	20724
804.915	20716
805.057	20735
805.199	20750
805.341	20777
805.483	20845
805.626	20880
805.768	20762
805.91	20769
806.052	20785
806.194	20746
806.336	21036
806.478	20861
806.62	20754
806.762	20762
806.904	21017
807.046	21169
807.188	21032
807.33	21138
807.472	21252
807.614	21005
807.756	21047
807.898	20990
808.04	20819
808.182	20849
808.324	20887
808.465	20914
808.607	21051
808.749	21173
808.891	21450
809.033	21321
809.174	21252
809.316	21161
809.458	21230
809.6	21135
809.741	21233
809.883	21291
810.025	21393
810.166	21233
810.308	21264
810.45	21355
810.591	21188
810.733	21100
810.875	21043
811.016	20838
811.158	20811
811.299	21036
811.441	21154
811.582	21055
811.724	20891
811.865	20880
812.007	21013
812.148	21043
812.29	20925
812.431	21058
812.573	21264
812.714	21329
812.855	21587
812.997	21545
813.138	21614
813.279	21591
813.421	21545
813.562	21386
813.703	21195
813.845	21127
813.986	20899
814.127	20716
814.268	20537
814.41	20541
814.551	20480
814.692	20503
814.833	20438
814.974	20507
815.115	20575
815.256	20362
815.397	20309
815.539	20339
815.68	20237
815.821	20161
815.962	20168
816.103	20263
816.244	20077
816.385	20024
816.526	19894
816.666	19788
816.807	19628
816.948	19807
817.089	19734
817.23	19715
817.371	19609
817.512	19662
817.653	19639
817.793	19563
817.934	19597
818.075	19674
818.216	19655
818.356	19696
818.497	19491
818.638	19274
818.778	19274
818.919	19202
819.06	19187
819.2	19491
819.341	19510
819.481	19529
819.622	19655
819.762	19655
819.903	19731
820.043	19624
820.184	19613
820.324	19529
820.465	19639
820.605	19674
820.746	19613
820.886	19472
821.026	19521
821.167	19556
821.307	19674
821.447	19594
821.588	19403
821.728	19259
821.868	19023
822.008	18909
822.149	18951
822.289	18985
822.429	18787
822.569	18692
822.709	18616
822.849	18490
822.99	18429
823.13	18437
823.27	18441
823.41	18357
823.55	18228
823.69	18357
823.83	18285
823.97	18228
824.11	18060
824.25	17992
824.389	18098
824.529	18144
824.669	18079
824.809	18277
824.949	18239
825.089	18121
825.228	18095
825.368	17874
825.508	17824
825.648	17885
825.787	17912
825.927	17996
826.067	17874
826.206	17855
826.346	17901
826.485	17851
826.625	17855
826.765	17939
826.904	17870
827.044	17714
827.183	17611
827.323	17558
827.462	17581
827.601	17589
827.741	17581
827.88	17535
828.02	17455
828.159	17471
828.298	17528
828.437	17608
828.577	17482
828.716	17627
828.855	17535
828.994	17296
829.134	17166
829.273	17227
829.412	17269
829.551	17258
829.69	17235
829.829	17246
829.968	17474
830.107	17356
830.246	17223
830.385	17147
830.524	17174
830.663	17181
830.802	16980
830.941	16927
831.08	16740
831.219	17037
831.357	16942
831.496	17064
831.635	16889
831.774	16866
831.913	16759
832.051	16793
832.19	16615
832.329	16782
832.467	16691
832.606	16531
832.744	16584
832.883	16516
833.022	16550
833.16	16478
833.299	16573
833.437	16580
833.576	16679
833.714	16679
833.852	16653
833.991	16637
834.129	16767
834.267	16622
834.406	16634
834.544	16679
834.682	16626
834.821	16630
834.959	16740
835.097	16603
835.235	16748
835.373	16637
835.511	16733
835.65	16538
835.788	16550
835.926	16360
836.064	16459
836.202	16344
836.34	16558
836.478	16577
836.615	16538
836.753	16577
836.891	16748
837.029	16561
837.167	16489
837.305	16478
837.443	16363
837.58	16352
837.718	16478
837.856	16390
837.993	16360
838.131	16462
838.269	16344
838.406	16303
838.544	16424
838.681	16173
838.819	16109
838.956	15956
839.094	15869
839.231	16051
839.369	16082
839.506	16272
839.643	16253
839.781	15930
839.918	15857
840.055	15987
840.193	15888
840.33	15800
840.467	16082
840.604	15895
840.742	16162
840.879	15850
841.016	15930
841.153	15850
841.29	15994
841.427	15941
841.564	16036
841.701	15907
841.838	15953
841.975	15774
842.112	15835
842.249	15739
842.385	15618
842.522	15934
842.659	15701
842.796	15568
842.933	15641
843.069	15641
843.206	15625
843.343	15793
843.479	15686
843.616	15766
843.752	15530
843.889	15485
844.025	15755
844.162	15443
844.298	15538
844.435	15572
844.571	15450
844.708	15542
844.844	15663
844.98	15584
845.117	15625
845.253	15492
845.389	15428
845.525	15420
845.661	15496
845.798	15298
845.934	15317
846.07	15275
846.206	15302
846.342	15416
846.478	15325
846.614	15066
846.75	15070
846.886	14979
847.022	15150
847.158	15024
847.294	15104
847.429	15097
847.565	15055
847.701	15386
847.837	14880
847.972	14807
848.108	15020
848.244	14895
848.379	14674
848.515	14701
848.65	14587
848.786	14682
848.921	14606
849.057	14689
849.192	14853
849.328	14735
849.463	14720
849.598	14727
849.734	14632
849.869	14530
850.004	14385
850.14	14511
850.275	14393
850.41	14324
850.545	14381
850.68	14492
850.815	14514
850.95	14427
851.085	14610
851.22	14495
851.355	14465
851.49	14294
851.625	14400
851.76	14438
851.895	14351
852.03	14320
852.165	14431
852.299	14454
852.434	14530
852.569	14389
852.703	14438
852.838	14484
852.973	14564
853.107	14667
853.242	14465
853.376	14339
853.511	14145
853.645	14263
853.78	14377
853.914	14275
854.048	14336
854.183	14248
854.317	14305
854.451	14480
854.585	14294
854.72	14355
854.854	14298
854.988	14164
855.122	14294
855.256	14187
855.39	14248
855.524	14362
855.658	14339
855.792	14320
855.926	14294
856.06	14389
856.194	14499
856.327	14313
856.461	14225
856.595	14252
856.729	14237
856.862	14362
856.996	14408
857.13	14431
857.263	14450
857.397	14442
857.53	14332
857.664	14431
857.797	14408
857.931	14438
858.064	14404
858.197	14469
858.331	14332
858.464	14305
858.597	14107
858.731	14218
858.864	14252
858.997	14271
859.13	14362
859.263	14351
859.396	14415
859.529	14240
859.662	14347
859.795	14225
859.928	14393
860.061	14484
860.194	14454
860.327	14423
860.46	14240
860.592	14427
860.725	14381
860.858	14427
860.99	14290
861.123	14244
861.256	14336
861.388	14317
861.521	14944
861.653	14225
861.786	14092
861.918	14145
862.05	14244
862.183	14286
862.315	14244
862.447	14282
862.58	14248
862.712	14062
862.844	14031
862.976	14210
863.108	14054
863.24	14427
863.372	13959
863.504	14077
863.636	14138
863.768	14107
863.9	14103
864.032	13997
864.164	14035
864.296	14248
864.428	14244
864.559	14298
864.691	14221
864.823	14145
864.954	14043
865.086	14012
865.217	14081
865.349	14035
865.48	14149
865.612	14130
865.743	14233
865.875	14016
866.006	14058
866.137	14008
866.269	14153
866.4	14107
866.531	13989
866.662	13883
866.793	13974
866.924	13982
867.055	14039
867.186	14062
867.317	13989
867.448	13986
867.579	14024
867.71	13993
867.841	13932
867.972	14077
868.103	14050
868.233	14084
868.364	14092
868.495	14126
868.625	14244
868.756	14336
868.886	14256
869.017	14309
869.147	14408
869.278	14457
869.408	14328
869.539	14233
869.669	14408
869.799	14393
869.929	14355
870.06	14351
870.19	14686
870.32	14640
870.45	14655
870.58	14765
870.71	14834
870.84	14708
870.97	14667
871.1	14670
871.23	14948
871.36	14883
871.489	14811
871.619	14872
871.749	14944
871.879	14975
872.008	14960
872.138	14899
872.267	14891
872.397	14705
872.526	14720
872.656	14602
872.785	14762
872.915	14921
873.044	14899
873.173	14918
873.303	14986
873.432	15024
873.561	15074
873.69	14941
873.819	14994
873.948	14979
874.077	14956
874.206	14906
874.335	14994
874.464	15077
874.593	15230
874.722	15131
874.851	15306
874.979	15199
875.108	15332
875.237	15127
875.365	15112
875.494	15252
875.623	15302
875.751	15161
875.88	15370
876.008	15458
876.136	15511
876.265	15622
876.393	15812
876.521	15819
876.65	15679
876.778	15698
876.906	15682
877.034	15568
877.162	15728
877.29	15622
877.418	15667
877.546	15713
877.674	15778
877.802	15595
877.93	15648
878.058	15694
878.185	15633
878.313	15591
878.441	15724
878.568	15496
878.696	15538
878.824	15675
878.951	15800
879.079	15941
879.206	15895
879.333	15884
879.461	15709
879.588	15698
879.715	15895
879.842	15960
879.97	15644
880.097	15534
880.224	15511
880.351	15542
880.478	15561
880.605	15496
880.732	15519
880.859	15785
880.986	15534
881.112	15439
881.239	15374
881.366	15370
881.493	15237
881.619	15207
881.746	15176
881.872	15131
881.999	15211
882.125	15180
882.252	15298
882.378	15310
882.505	15382
882.631	15192
882.757	15001
882.883	14941
883.01	15127
883.136	14952
883.262	14918
883.388	14906
883.514	14960
883.64	14990
883.766	14883
883.892	14826
884.018	14819
884.143	14967
884.269	15146
884.395	14720
884.52	14720
884.646	14826
884.772	14811
884.897	14644
885.023	14785
885.148	14777
885.274	14754
885.399	14895
885.524	14735
885.65	14750
885.775	14785
885.9	14708
886.025	14815
886.15	14815
886.275	14746
886.4	14632
886.525	14625
886.65	14686
886.775	14651
886.9	14857
887.025	14902
887.149	14724
887.274	14571
887.399	14564
887.523	14530
887.648	14484
887.773	14446
887.897	14598
888.021	14625
888.146	14568
888.27	14610
888.395	14708
888.519	14537
888.643	14545
888.767	14579
888.891	14492
889.015	14434
889.139	14461
889.263	14343
889.387	14423
889.511	14537
889.635	14583
889.759	14438
889.883	14339
890.006	14457
890.13	14568
890.254	14336
890.377	14355
890.501	14233
890.624	14126
890.748	14412
890.871	14161
890.995	14115
891.118	14046
891.241	14096
891.364	14183
891.488	14275
891.611	14062
891.734	14039
891.857	14256
891.98	14142
892.103	14237
892.226	14180
892.349	14100
892.471	13940
892.594	14062
892.717	14191
892.839	14012
892.962	14244
893.085	14161
893.207	14191
893.33	14001
893.452	13978
893.575	14195
893.697	14039
893.819	14256
893.941	14415
894.064	14294
894.186	14039
894.308	14168
894.43	14221
894.552	14240
894.674	14267
894.796	14145
894.918	14199
895.04	14149
895.161	14324
895.283	14252
895.405	14164
895.526	14256
895.648	14164
895.769	14309
895.891	14278
896.012	14339
896.134	14286
896.255	14339
896.376	14233
896.498	14351
896.619	14305
896.74	14256
896.861	14377
896.982	14537
897.103	14708
897.224	14667
897.345	14488
897.466	14351
897.587	14492
897.708	14682
897.828	14651
897.949	14549
898.07	14389
898.19	14408
898.311	14667
898.431	14507
898.552	14754
898.672	14712
898.792	14708
898.913	14746
899.033	14526
899.153	14522
899.273	14507
899.393	14473
899.513	14488
899.633	14404
899.753	14537
899.873	14427
899.993	14598
900.113	14533
900.232	14469
900.352	14473
900.472	14362
900.591	14351
900.711	14419
900.83	14366
900.95	14446
901.069	14473
901.189	14351
901.308	14134
901.427	14050
901.546	14073
901.665	14092
901.784	14008
901.904	14012
902.023	13822
902.141	13651
902.26	13658
902.379	13734
902.498	13521
902.617	13514
902.735	13693
902.854	13620
902.973	13403
903.091	13263
903.21	13350
903.328	13335
903.446	13247
903.565	13236
903.683	13179
903.801	13065
903.919	13171
904.038	13156
904.156	12977
904.274	13099
904.392	12985
904.51	13008
904.627	12905
904.745	13034
904.863	12970
904.981	12783
905.098	12703
905.216	12677
905.334	12757
905.451	12646
905.569	12627
905.686	12669
905.803	12681
905.921	12563
906.038	12604
906.155	12513
906.272	12361
906.389	12467
906.506	12251
906.623	12262
906.74	12224
906.857	12140
906.974	12144
907.091	12338
907.208	12376
907.324	12296
907.441	12239
907.557	11980
907.674	12038
907.79	11893
907.907	12007
908.023	11999
908.139	12022
908.256	11935
908.372	11927
908.488	11882
908.604	11786
908.72	11729
908.836	11729
908.952	11726
909.068	11783
909.184	11897
909.3	11767
909.415	11843
909.531	11786
909.647	11615
909.762	11566
909.878	11459
909.993	11543
910.108	11585
910.224	11493
910.339	11516
910.454	11490
910.57	11315
910.685	11330
910.8	11558
910.915	11524
911.03	11486
911.145	11261
911.259	11242
911.374	11227
911.489	11162
911.604	11098
911.718	10938
911.833	11094
911.947	10942
912.062	10869
912.176	10976
912.291	10991
912.405	10927
912.519	11212
912.633	11212
912.748	11064
912.862	11037
912.976	10915
913.09	10755
913.204	10843
913.318	10835
913.431	11010
913.545	11014
913.659	11014
913.772	10843
913.886	10831
914	10771
914.113	10900
914.226	10911
914.34	10744
914.453	10717
914.566	10911
914.68	10702
914.793	10771
914.906	10531
915.019	10485
915.132	10390
915.245	10554
915.358	10538
915.47	10508
915.583	10512
915.696	10516
915.809	10706
915.921	10706
916.034	10527
916.146	10409
916.259	10360
916.371	10497
916.483	10443
916.595	10421
916.708	10405
916.82	10386
916.932	10417
917.044	10382
917.156	10379
917.268	10268
917.38	10325
917.491	10322
917.603	10360
917.715	10402
917.826	10371
917.938	10333
918.049	10211
918.161	10394
918.272	10462
918.384	10481
918.495	10249
918.606	10227
918.717	10143
918.828	10200
918.939	10230
919.05	10177
919.161	10287
919.272	10036
919.383	10074
919.494	10306
919.604	10402
919.715	10196
919.826	10093
919.936	10177
920.047	10318
920.157	10181
920.267	10352
920.378	10295
920.488	10272
920.598	10489
920.708	10493
920.818	10375
920.928	10447
921.038	10653
921.148	10565
921.258	10223
921.368	10230
921.477	10067
921.587	10101
921.697	9918
921.806	10051
921.916	9964
922.025	9854
922.134	9762
922.244	9755
922.353	9766
922.462	9667
922.571	9675
922.68	9473
922.789	9466
922.898	9473
923.007	9450
923.116	9458
923.224	9447
923.333	9447
923.442	9428
923.55	9332
923.659	9367
923.767	9393
923.876	9340
923.984	9401
924.092	9275
924.201	9313
924.309	9344
924.417	9401
924.525	9233
924.633	9310
924.741	10276
924.849	9127
924.956	9260
925.064	9085
925.172	9077
925.279	9119
925.387	9203
925.494	9165
925.602	9287
925.709	9230
925.816	9093
925.924	9062
926.031	9207
926.138	9100
926.245	9142
926.352	9085
926.459	9157
926.566	9180
926.673	9195
926.779	9013
926.886	9043
926.993	8876
927.099	8853
927.206	8781
927.312	8792
927.419	8910
927.525	8952
927.631	8925
927.737	8792
927.843	8708
927.95	8632
928.056	8743
928.162	8762
928.267	8883
928.373	9378
928.479	8883
928.585	8571
928.69	8746
928.796	8758
928.901	8735
929.007	8579
929.112	8617
929.218	8674
929.323	8651
929.428	8571
929.533	8724
929.638	8503
929.743	8602
929.848	8568
929.953	8499
930.058	8499
930.163	8351
930.267	8347
930.372	8473
930.477	8370
930.581	8594
930.685	8408
930.79	8328
930.894	8298
930.998	8248
931.103	8355
931.207	8092
931.311	7982
931.415	7951
931.519	7795
931.623	7799
