Data from test_V78500241_772.txt Node
Date: Fri Mar 25 14:39:05 CST 2022
User: usil
Spectrometer: V785-0024
Trigger mode: 0
Integration Time (sec): 4.000000E-1
Scans to average: 1
Nonlinearity correction enabled: false
Boxcar width: 0
Storing dark spectrum: false
XAxis mode: Wavelengths
Number of Pixels in Spectrum: 1024
>>>>>Begin Spectral Data<<<<<
801.071	26921
801.214	26678
801.356	26457
801.499	26309
801.641	26278
801.783	26187
801.926	26229
802.068	26024
802.211	25917
802.353	25849
802.496	25734
802.638	25761
802.78	25734
802.923	25674
803.065	25518
803.208	25582
803.35	25784
803.492	25776
803.635	25753
803.777	25780
803.919	25757
804.061	25928
804.204	25807
804.346	25883
804.488	25955
804.63	25849
804.773	25887
804.915	26005
805.057	26115
805.199	26031
805.341	26149
805.483	26377
805.626	26415
805.768	26267
805.91	26533
806.052	26590
806.194	26533
806.336	27028
806.478	27081
806.62	27096
806.762	27523
806.904	27838
807.046	28367
807.188	28668
807.33	29102
807.472	29585
807.614	30186
807.756	31004
807.898	32081
808.04	33599
808.182	35509
808.324	38100
808.465	41010
808.607	44119
808.749	46847
808.891	48361
809.033	48524
809.174	47025
809.316	44457
809.458	40995
809.6	37810
809.741	35193
809.883	33085
810.025	31693
810.166	30650
810.308	29882
810.45	29375
810.591	28736
810.733	28192
810.875	27911
811.016	27572
811.158	27192
811.299	27272
811.441	27119
811.582	27077
811.724	26891
811.865	26667
812.007	26609
812.148	26495
812.29	26499
812.431	26499
812.573	26644
812.714	26644
812.855	26754
812.997	26655
813.138	26727
813.279	26727
813.421	26632
813.562	26484
813.703	26393
813.845	26286
813.986	25860
814.127	25674
814.268	25434
814.41	25464
814.551	25464
814.692	25365
814.833	25183
814.974	25270
815.115	25194
815.256	25110
815.397	25027
815.539	25122
815.68	24989
815.821	24977
815.962	24935
816.103	24833
816.244	24749
816.385	24570
816.526	24536
816.666	24467
816.807	24330
816.948	24399
817.089	24292
817.23	24243
817.371	24197
817.512	24083
817.653	24190
817.793	24091
817.934	24152
818.075	24171
818.216	24095
818.356	24018
818.497	23878
818.638	23821
818.778	23843
818.919	23760
819.06	23882
819.2	24034
819.341	24045
819.481	23992
819.622	24022
819.762	24239
819.903	24194
820.043	24117
820.184	24038
820.324	24007
820.465	24053
820.605	23973
820.746	24011
820.886	23817
821.026	23954
821.167	23916
821.307	23939
821.447	23847
821.588	23672
821.728	23486
821.868	23452
822.008	23254
822.149	23239
822.289	23235
822.429	22957
822.569	22896
822.709	22953
822.849	22664
822.99	22645
823.13	22660
823.27	22637
823.41	22470
823.55	22322
823.69	22489
823.83	22504
823.97	22432
824.11	22204
824.25	22010
824.389	22253
824.529	22246
824.669	22223
824.809	22253
824.949	22344
825.089	22211
825.228	22295
825.368	22135
825.508	22036
825.648	22082
825.787	22017
825.927	22135
826.067	22105
826.206	21972
826.346	22010
826.485	22006
826.625	22029
826.765	22188
826.904	22105
827.044	21781
827.183	21793
827.323	21656
827.462	21793
827.601	21686
827.741	21603
827.88	21576
828.02	21401
828.159	21629
828.298	21618
828.437	21705
828.577	21443
828.716	21622
828.855	21599
828.994	21431
829.134	21340
829.273	21416
829.412	21382
829.551	21116
829.69	21275
829.829	21359
829.968	21439
830.107	21447
830.246	21245
830.385	21245
830.524	21241
830.663	21211
830.802	21138
830.941	20952
831.08	20880
831.219	21032
831.357	21096
831.496	21154
831.635	20918
831.774	20952
831.913	20967
832.051	20788
832.19	20659
832.329	20906
832.467	20693
832.606	20571
832.744	20765
832.883	20891
833.022	20963
833.16	20975
833.299	21260
833.437	21260
833.576	21401
833.714	21481
833.852	21751
833.991	21694
834.129	21865
834.267	21850
834.406	21778
834.544	21701
834.682	21599
834.821	21439
834.959	21549
835.097	21245
835.235	21272
835.373	20944
835.511	20982
835.65	20925
835.788	20648
835.926	20514
836.064	20358
836.202	20438
836.34	20537
836.478	20575
836.615	20492
836.753	20511
836.891	20583
837.029	20476
837.167	20480
837.305	20507
837.443	20286
837.58	20320
837.718	20336
837.856	20400
837.993	20256
838.131	20229
838.269	20054
838.406	20271
838.544	20088
838.681	19974
838.819	19871
838.956	19818
839.094	19693
839.231	19837
839.369	19887
839.506	20145
839.643	20024
839.781	19708
839.918	19594
840.055	19594
840.193	19666
840.33	19734
840.467	19590
840.604	19723
840.742	19864
840.879	19521
841.016	19613
841.153	19670
841.29	19788
841.427	19632
841.564	19662
841.701	19727
841.838	19746
841.975	19594
842.112	19575
842.249	19518
842.385	19407
842.522	19624
842.659	19533
842.796	19575
842.933	19529
843.069	19434
843.206	19578
843.343	19685
843.479	19715
843.616	19609
843.752	19453
843.889	19594
844.025	19803
844.162	19689
844.298	19925
844.435	20005
844.571	20065
844.708	20351
844.844	20868
844.98	21127
845.117	21804
845.253	22668
845.389	24433
845.525	27854
845.661	33344
845.798	39854
845.934	44727
846.07	46592
846.206	45104
846.342	40782
846.478	34303
846.614	28634
846.75	24973
846.886	22812
847.022	21618
847.158	20609
847.294	20218
847.429	19913
847.565	19616
847.701	19696
847.837	19152
847.972	19046
848.108	18947
848.244	18958
848.379	18646
848.515	18631
848.65	18483
848.786	18544
848.921	18460
849.057	18555
849.192	18521
849.328	18528
849.463	18388
849.598	18300
849.734	18308
849.869	18273
850.004	18228
850.14	18213
850.275	18152
850.41	18110
850.545	18076
850.68	18091
850.815	18117
850.95	18144
851.085	18384
851.22	18258
851.355	18194
851.49	18144
851.625	18072
851.76	18064
851.895	18049
852.03	17942
852.165	18129
852.299	18190
852.434	18235
852.569	18247
852.703	18228
852.838	18254
852.973	18338
853.107	18467
853.242	18262
853.376	18148
853.511	17958
853.645	18235
853.78	18334
853.914	18319
854.048	18315
854.183	18361
854.317	18350
854.451	18631
854.585	18270
854.72	18292
854.854	18365
854.988	18342
855.122	18292
855.256	18106
855.39	18129
855.524	18251
855.658	18072
855.792	18194
855.926	18091
856.06	18174
856.194	18140
856.327	17984
856.461	17855
856.595	17832
856.729	18007
856.862	18125
856.996	18072
857.13	18030
857.263	18015
857.397	18060
857.53	17939
857.664	17946
857.797	18060
857.931	18114
858.064	18003
858.197	18049
858.331	17904
858.464	17756
858.597	17843
858.731	17828
858.864	17851
858.997	17824
859.13	17882
859.263	17931
859.396	17958
859.529	17878
859.662	17794
859.795	17798
859.928	17847
860.061	17961
860.194	17882
860.327	17748
860.46	17805
860.592	17836
860.725	17961
860.858	17927
860.99	17828
861.123	17687
861.256	17718
861.388	17737
861.521	18433
861.653	17687
861.786	17600
861.918	17600
862.05	17592
862.183	17832
862.315	17748
862.447	17843
862.58	17745
862.712	17581
862.844	17478
862.976	17512
863.108	17653
863.24	17988
863.372	17425
863.504	17505
863.636	17471
863.768	17596
863.9	17440
864.032	17250
864.164	17455
864.296	17532
864.428	17520
864.559	17493
864.691	17570
864.823	17532
864.954	17528
865.086	17406
865.217	17421
865.349	17417
865.48	17402
865.612	17440
865.743	17562
865.875	17383
866.006	17299
866.137	17326
866.269	17410
866.4	17315
866.531	17368
866.662	17299
866.793	17387
866.924	17383
867.055	17322
867.186	17391
867.317	17391
867.448	17269
867.579	17239
867.71	17265
867.841	17239
867.972	17414
868.103	17341
868.233	17364
868.364	17490
868.495	17490
868.625	17748
868.756	17805
868.886	17619
869.017	17634
869.147	17824
869.278	17680
869.408	17611
869.539	17680
869.669	17767
869.799	17771
869.929	17695
870.06	17779
870.19	17961
870.32	17950
870.45	17946
870.58	18060
870.71	18197
870.84	18209
870.97	18019
871.1	18114
871.23	18388
871.36	18232
871.489	18152
871.619	18308
871.749	18372
871.879	18521
872.008	18570
872.138	18563
872.267	18448
872.397	18270
872.526	18273
872.656	18201
872.785	18254
872.915	18502
873.044	18597
873.173	18563
873.303	18631
873.432	18616
873.561	18597
873.69	18715
873.819	18665
873.948	18753
874.077	18646
874.206	18753
874.335	18665
874.464	18833
874.593	19031
874.722	18966
874.851	19194
874.979	19145
875.108	19171
875.237	19080
875.365	19171
875.494	19308
875.623	19411
875.751	19236
875.88	19384
876.008	19468
876.136	19712
876.265	19925
876.393	20081
876.521	20164
876.65	20111
876.778	20092
876.906	20134
877.034	20164
877.162	20328
877.29	20275
877.418	20328
877.546	20556
877.674	20667
877.802	20697
877.93	20800
878.058	20967
878.185	21032
878.313	21329
878.441	21705
878.568	22013
878.696	22569
878.824	23433
878.951	24547
879.079	25894
879.206	28086
879.333	30015
879.461	31457
879.588	32689
879.715	32682
879.842	31906
879.97	29950
880.097	27914
880.224	26286
880.351	25232
880.478	24350
880.605	23691
880.732	23478
880.859	23486
880.986	22957
881.112	22904
881.239	22889
881.366	22683
881.493	22592
881.619	22535
881.746	22637
881.872	22474
881.999	22596
882.125	22679
882.252	22809
882.378	22877
882.505	22930
882.631	22759
882.757	22645
882.883	22580
883.01	22516
883.136	22432
883.262	22470
883.388	22417
883.514	22481
883.64	22668
883.766	22474
883.892	22329
884.018	22413
884.143	22485
884.269	22630
884.395	22523
884.52	22192
884.646	22211
884.772	22234
884.897	22093
885.023	22314
885.148	22390
885.274	22379
885.399	22207
885.524	22093
885.65	21922
885.775	21892
885.9	21675
886.025	21720
886.15	21583
886.275	21367
886.4	21093
886.525	21005
886.65	20807
886.775	20788
886.9	20765
887.025	20800
887.149	20499
887.274	20290
887.399	20168
887.523	20073
887.648	19871
887.773	19776
887.897	19837
888.021	19883
888.146	19590
888.27	19742
888.395	19788
888.519	19639
888.643	19651
888.767	19556
888.891	19282
889.015	19327
889.139	19244
889.263	19175
889.387	19209
889.511	19263
889.635	19183
889.759	19084
889.883	19027
890.006	18905
890.13	19034
890.254	18779
890.377	18760
890.501	18570
890.624	18661
890.748	18608
890.871	18391
890.995	18544
891.118	18330
891.241	18243
891.364	18380
891.488	18334
891.611	18353
891.734	18319
891.857	18262
891.98	18213
892.103	18178
892.226	18140
892.349	18064
892.471	17859
892.594	17878
892.717	18148
892.839	17984
892.962	17908
893.085	17920
893.207	17836
893.33	17752
893.452	17798
893.575	17912
893.697	17836
893.819	17920
893.941	17836
894.064	17824
894.186	17646
894.308	17566
894.43	17870
894.552	17695
894.674	17752
894.796	17661
894.918	17554
895.04	17490
895.161	17726
895.283	17551
895.405	17467
895.526	17547
895.648	17539
895.769	17551
895.891	17452
896.012	17562
896.134	17608
896.255	17520
896.376	17410
896.498	17383
896.619	17429
896.74	17452
896.861	17497
896.982	17802
897.103	17878
897.224	17775
897.345	17733
897.466	17528
897.587	17634
897.708	17714
897.828	17707
897.949	17615
898.07	17459
898.19	17490
898.311	17649
898.431	17630
898.552	17611
898.672	17615
898.792	17756
898.913	17733
899.033	17634
899.153	17600
899.273	17258
899.393	17398
899.513	17471
899.633	17414
899.753	17334
899.873	17341
899.993	17509
900.113	17334
900.232	17425
900.352	17376
900.472	17288
900.591	17220
900.711	17223
900.83	17254
900.95	17387
901.069	17341
901.189	17185
901.308	16850
901.427	16923
901.546	16923
901.665	16820
901.784	16831
901.904	16721
902.023	16554
902.141	16363
902.26	16390
902.379	16367
902.498	16344
902.617	16230
902.735	16268
902.854	16234
902.973	16158
903.091	16051
903.21	15956
903.328	15937
903.446	15892
903.565	15739
903.683	15743
903.801	15625
903.919	15549
904.038	15705
904.156	15500
904.274	15553
904.392	15568
904.51	15447
904.627	15485
904.745	15561
904.863	15587
904.981	15351
905.098	15214
905.216	15138
905.334	15180
905.451	15199
905.569	15020
905.686	15207
905.803	15150
905.921	14902
906.038	14975
906.155	14823
906.272	14853
906.389	14731
906.506	14739
906.623	14670
906.74	14705
906.857	14541
906.974	14511
907.091	14708
907.208	14838
907.324	14697
907.441	14503
907.557	14434
907.674	14431
907.79	14328
907.907	14514
908.023	14438
908.139	14339
908.256	14237
908.372	14256
908.488	14282
908.604	14142
908.72	14035
908.836	14138
908.952	14130
909.068	14073
909.184	14195
909.3	14065
909.415	14130
909.531	14077
909.647	13830
909.762	13788
909.878	13746
909.993	13864
910.108	13795
910.224	13799
910.339	13772
910.454	13613
910.57	13594
910.685	13544
910.8	13963
910.915	13811
911.03	13529
911.145	13552
911.259	13460
911.374	13502
911.489	13419
911.604	13285
911.718	13297
911.833	13255
911.947	13145
912.062	12993
912.176	13240
912.291	13198
912.405	13198
912.519	13419
912.633	13434
912.748	13297
912.862	13110
912.976	13065
913.09	12966
913.204	13034
913.318	13160
913.431	13137
913.545	13126
913.659	13164
913.772	13072
913.886	12939
914	12840
914.113	12932
914.226	13000
914.34	13038
914.453	12795
914.566	13012
914.68	12806
914.793	12863
914.906	12555
915.019	12646
915.132	12639
915.245	12608
915.358	12802
915.47	12673
915.583	12623
915.696	12692
915.809	12783
915.921	12840
916.034	12616
916.146	12559
916.259	12551
916.371	12665
916.483	12585
916.595	12566
916.708	12681
916.82	12604
916.932	12528
917.044	12536
917.156	12612
917.268	12403
917.38	12441
917.491	12490
917.603	12380
917.715	12460
917.826	12471
917.938	12300
918.049	12273
918.161	12353
918.272	12506
918.384	12410
918.495	12292
918.606	12243
918.717	12144
918.828	12159
918.939	12205
919.05	12019
919.161	12224
919.272	11961
919.383	11942
919.494	12171
919.604	12395
919.715	12213
919.826	12083
919.936	12178
920.047	12232
920.157	12034
920.267	12296
920.378	12117
920.488	12125
920.598	12277
920.708	12498
920.818	12388
920.928	12205
921.038	12452
921.148	12410
921.258	12114
921.368	11969
921.477	11958
921.587	11882
921.697	11889
921.806	11939
921.916	11794
922.025	11638
922.134	11558
922.244	11577
922.353	11649
922.462	11463
922.571	11391
922.68	11318
922.789	11303
922.898	11250
923.007	11132
923.116	11376
923.224	11269
923.333	11216
923.442	11052
923.55	11086
923.659	11048
923.767	11204
923.876	11022
923.984	11204
924.092	11018
924.201	11079
924.309	11083
924.417	11067
924.525	10965
924.633	11060
924.741	11714
924.849	10915
924.956	10915
925.064	10828
925.172	10786
925.279	10831
925.387	10835
925.494	10778
925.602	10877
925.709	10896
925.816	10679
925.924	10774
926.031	10858
926.138	10679
926.245	10843
926.352	10672
926.459	10881
926.566	10831
926.673	10733
926.779	10660
926.886	10588
926.993	10394
927.099	10398
927.206	10382
927.312	10485
927.419	10535
927.525	10447
927.631	10535
927.737	10371
927.843	10402
927.95	10242
928.056	10360
928.162	10329
928.267	10314
928.373	10927
928.479	10489
928.585	10128
928.69	10287
928.796	10413
928.901	10185
929.007	10086
929.112	10207
929.218	10207
929.323	10128
929.428	10071
929.533	10272
929.638	10055
929.743	9956
929.848	10166
929.953	10105
930.058	9922
930.163	9876
930.267	9911
930.372	9953
930.477	9751
930.581	10010
930.685	9823
930.79	9717
930.894	9743
930.998	9755
931.103	9873
931.207	9469
931.311	9431
931.415	9359
931.519	9173
931.623	9199
