Data from test_V78500241_1131.txt Node
Date: Fri Mar 25 14:41:35 CST 2022
User: usil
Spectrometer: V785-0024
Trigger mode: 0
Integration Time (sec): 4.000000E-1
Scans to average: 1
Nonlinearity correction enabled: false
Boxcar width: 0
Storing dark spectrum: false
XAxis mode: Wavelengths
Number of Pixels in Spectrum: 1024
>>>>>Begin Spectral Data<<<<<
801.071	22717
801.214	22557
801.356	22230
801.499	22230
801.641	21979
801.783	21975
801.926	22010
802.068	21861
802.211	21911
802.353	21747
802.496	21504
802.638	21420
802.78	21462
802.923	21397
803.065	21291
803.208	21367
803.35	21393
803.492	21393
803.635	21481
803.777	21252
803.919	21386
804.061	21679
804.204	21348
804.346	21298
804.488	21154
804.63	21226
804.773	21154
804.915	21245
805.057	21367
805.199	21252
805.341	21367
805.483	21389
805.626	21283
805.768	21188
805.91	21226
806.052	21173
806.194	21169
806.336	21367
806.478	21260
806.62	21245
806.762	21283
806.904	21382
807.046	21641
807.188	21652
807.33	21641
807.472	21770
807.614	21652
807.756	21534
807.898	21515
808.04	21450
808.182	21469
808.324	21454
808.465	21583
808.607	21755
808.749	22017
808.891	22017
809.033	22139
809.174	22063
809.316	21819
809.458	21812
809.6	21736
809.741	21823
809.883	21793
810.025	21808
810.166	21876
810.308	21895
810.45	21759
810.591	21789
810.733	21625
810.875	21450
811.016	21294
811.158	21374
811.299	21412
811.441	21428
811.582	21424
811.724	21530
811.865	21397
812.007	21393
812.148	21378
812.29	21420
812.431	21629
812.573	21770
812.714	21747
812.855	21892
812.997	22063
813.138	22158
813.279	22093
813.421	21941
813.562	21827
813.703	21816
813.845	21675
813.986	21310
814.127	21161
814.268	21108
814.41	21043
814.551	20990
814.692	20994
814.833	20952
814.974	20982
815.115	20979
815.256	20777
815.397	20819
815.539	20773
815.68	20670
815.821	20651
815.962	20720
816.103	20762
816.244	20514
816.385	20507
816.526	20552
816.666	20385
816.807	20142
816.948	20252
817.089	20301
817.23	20122
817.371	20233
817.512	20126
817.653	20122
817.793	20005
817.934	20107
818.075	20081
818.216	20180
818.356	20088
818.497	19936
818.638	19685
818.778	19746
818.919	19780
819.06	19902
819.2	19932
819.341	19951
819.481	20039
819.622	20195
819.762	20374
819.903	20298
820.043	20229
820.184	20202
820.324	20081
820.465	20145
820.605	20073
820.746	20088
820.886	19963
821.026	19989
821.167	19944
821.307	20069
821.447	20062
821.588	19921
821.728	19871
821.868	19620
822.008	19480
822.149	19571
822.289	19411
822.429	19377
822.569	19225
822.709	19171
822.849	19019
822.99	19065
823.13	18913
823.27	18878
823.41	18798
823.55	18798
823.69	18825
823.83	18802
823.97	18715
824.11	18604
824.25	18585
824.389	18665
824.529	18635
824.669	18692
824.809	18711
824.949	18703
825.089	18669
825.228	18715
825.368	18471
825.508	18361
825.648	18380
825.787	18498
825.927	18506
826.067	18395
826.206	18338
826.346	18422
826.485	18369
826.625	18353
826.765	18536
826.904	18357
827.044	18174
827.183	18129
827.323	17988
827.462	18197
827.601	18129
827.741	18045
827.88	18038
828.02	17999
828.159	18159
828.298	18140
828.437	18068
828.577	18045
828.716	18243
828.855	18015
828.994	17885
829.134	17889
829.273	17912
829.412	17828
829.551	17779
829.69	17779
829.829	17908
829.968	17961
830.107	18030
830.246	17840
830.385	17893
830.524	17863
830.663	17570
830.802	17558
830.941	17478
831.08	17471
831.219	17535
831.357	17630
831.496	17638
831.635	17459
831.774	17436
831.913	17330
832.051	17216
832.19	17235
832.329	17322
832.467	17159
832.606	17083
832.744	17181
832.883	17109
833.022	17094
833.16	17170
833.299	17277
833.437	17261
833.576	17159
833.714	17178
833.852	17208
833.991	17181
834.129	17330
834.267	17341
834.406	17220
834.544	17356
834.682	17231
834.821	17193
834.959	17395
835.097	17242
835.235	17220
835.373	17265
835.511	17227
835.65	17143
835.788	17067
835.926	16984
836.064	16812
836.202	16957
836.34	17151
836.478	17258
836.615	17083
836.753	17105
836.891	17174
837.029	17109
837.167	17155
837.305	17136
837.443	16965
837.58	16889
837.718	17014
837.856	17041
837.993	16896
838.131	17018
838.269	16858
838.406	16976
838.544	16733
838.681	16687
838.819	16615
838.956	16554
839.094	16455
839.231	16615
839.369	16721
839.506	16965
839.643	16713
839.781	16519
839.918	16531
840.055	16637
840.193	16497
840.33	16489
840.467	16519
840.604	16637
840.742	16729
840.879	16504
841.016	16379
841.153	16497
841.29	16698
841.427	16535
841.564	16546
841.701	16516
841.838	16451
841.975	16390
842.112	16356
842.249	16257
842.385	16318
842.522	16538
842.659	16382
842.796	16211
842.933	16375
843.069	16246
843.206	16280
843.343	16451
843.479	16268
843.616	16223
843.752	16131
843.889	16055
844.025	16150
844.162	16036
844.298	16211
844.435	16120
844.571	16006
844.708	16181
844.844	16238
844.98	16238
845.117	16249
845.253	16063
845.389	15994
845.525	16135
845.661	16124
845.798	16082
845.934	16295
846.07	16135
846.206	16261
846.342	16276
846.478	16071
846.614	15873
846.75	15736
846.886	15682
847.022	15739
847.158	15595
847.294	15644
847.429	15637
847.565	15648
847.701	15907
847.837	15370
847.972	15252
848.108	15462
848.244	15462
848.379	15302
848.515	15222
848.65	15154
848.786	15211
848.921	15252
849.057	15272
849.192	15344
849.328	15329
849.463	15237
849.598	15207
849.734	15150
849.869	15051
850.004	15074
850.14	15089
850.275	14990
850.41	14960
850.545	14910
850.68	15100
850.815	15032
850.95	14990
851.085	15116
851.22	15081
851.355	15009
851.49	15017
851.625	15032
851.76	14998
851.895	14941
852.03	14838
852.165	14998
852.299	15051
852.434	15070
852.569	15097
852.703	14956
852.838	15077
852.973	15093
853.107	15108
853.242	14960
853.376	14948
853.511	14796
853.645	14868
853.78	14994
853.914	14861
854.048	14876
854.183	14842
854.317	14864
854.451	15077
854.585	14887
854.72	14754
854.854	14880
854.988	14712
855.122	14826
855.256	14773
855.39	14944
855.524	14948
855.658	14895
855.792	14899
855.926	14921
856.06	14895
856.194	14979
856.327	14952
856.461	14823
856.595	14807
856.729	14853
856.862	15081
856.996	14887
857.13	14990
857.263	14986
857.397	15051
857.53	14845
857.664	14895
857.797	14982
857.931	15028
858.064	14868
858.197	14918
858.331	14823
858.464	14845
858.597	14838
858.731	14887
858.864	14807
858.997	14796
859.13	14830
859.263	14826
859.396	14899
859.529	14792
859.662	14864
859.795	14826
859.928	14880
860.061	14960
860.194	15009
860.327	14849
860.46	14815
860.592	14941
860.725	15039
860.858	14914
860.99	14921
861.123	14743
861.256	14788
861.388	14883
861.521	15618
861.653	14777
861.786	14659
861.918	14743
862.05	14853
862.183	14796
862.315	14914
862.447	14899
862.58	14830
862.712	14678
862.844	14575
862.976	14670
863.108	14769
863.24	15135
863.372	14579
863.504	14617
863.636	14682
863.768	14720
863.9	14777
864.032	14598
864.164	14526
864.296	14762
864.428	14712
864.559	14697
864.691	14735
864.823	14682
864.954	14621
865.086	14667
865.217	14644
865.349	14598
865.48	14606
865.612	14545
865.743	14804
865.875	14613
866.006	14533
866.137	14640
866.269	14560
866.4	14625
866.531	14526
866.662	14503
866.793	14507
866.924	14492
867.055	14693
867.186	14571
867.317	14541
867.448	14507
867.579	14469
867.71	14507
867.841	14625
867.972	14598
868.103	14640
868.233	14701
868.364	14602
868.495	14617
868.625	14906
868.756	14956
868.886	14804
869.017	14842
869.147	14925
869.278	14838
869.408	14902
869.539	14845
869.669	14994
869.799	14876
869.929	15070
870.06	14994
870.19	15116
870.32	15199
870.45	15237
870.58	15211
870.71	15340
870.84	15466
870.97	15298
871.1	15260
871.23	15367
871.36	15401
871.489	15351
871.619	15431
871.749	15405
871.879	15443
872.008	15629
872.138	15424
872.267	15302
872.397	15370
872.526	15291
872.656	15249
872.785	15268
872.915	15454
873.044	15637
873.173	15481
873.303	15545
873.432	15549
873.561	15557
873.69	15530
873.819	15458
873.948	15610
874.077	15572
874.206	15492
874.335	15538
874.464	15629
874.593	15759
874.722	15842
874.851	15884
874.979	15850
875.108	15854
875.237	15800
875.365	15644
875.494	15861
875.623	15888
875.751	15698
875.88	15743
876.008	16006
876.136	15960
876.265	16204
876.393	16276
876.521	16333
876.65	16280
876.778	16219
876.906	16249
877.034	16211
877.162	16128
877.29	16131
877.418	16185
877.546	16215
877.674	16215
877.802	16272
877.93	16185
878.058	16181
878.185	16074
878.313	16124
878.441	16284
878.568	16082
878.696	16226
878.824	16272
878.951	16451
879.079	16455
879.206	16706
879.333	16424
879.461	16402
879.588	16519
879.715	16542
879.842	16607
879.97	16447
880.097	16226
880.224	16185
880.351	16211
880.478	16147
880.605	16078
880.732	16086
880.859	16421
880.986	16048
881.112	16177
881.239	15983
881.366	15915
881.493	15709
881.619	15774
881.746	15793
881.872	15720
881.999	15789
882.125	15751
882.252	15842
882.378	15732
882.505	15926
882.631	15690
882.757	15572
882.883	15641
883.01	15622
883.136	15580
883.262	15450
883.388	15488
883.514	15473
883.64	15580
883.766	15603
883.892	15416
884.018	15431
884.143	15519
884.269	15603
884.395	15317
884.52	15291
884.646	15226
884.772	15279
884.897	15195
885.023	15275
885.148	15340
885.274	15370
885.399	15294
885.524	15260
885.65	15416
885.775	15355
885.9	15252
886.025	15405
886.15	15332
886.275	15116
886.4	15123
886.525	15329
886.65	15195
886.775	15214
886.9	15332
887.025	15515
887.149	15272
887.274	15146
887.399	15047
887.523	15005
887.648	14990
887.773	15020
887.897	15085
888.021	15028
888.146	14948
888.27	15294
888.395	15245
888.519	15081
888.643	15131
888.767	15119
888.891	15062
889.015	14971
889.139	14914
889.263	14883
889.387	14925
889.511	15100
889.635	15024
889.759	14899
889.883	14864
890.006	14975
890.13	15013
890.254	14887
890.377	14826
890.501	14739
890.624	14765
890.748	14842
890.871	14602
890.995	14511
891.118	14594
891.241	14587
891.364	14511
891.488	14644
891.611	14511
891.734	14549
891.857	14625
891.98	14587
892.103	14735
892.226	14636
892.349	14583
892.471	14377
892.594	14526
892.717	14598
892.839	14579
892.962	14602
893.085	14678
893.207	14602
893.33	14526
893.452	14583
893.575	14606
893.697	14556
893.819	14746
893.941	14708
894.064	14750
894.186	14518
894.308	14537
894.43	14773
894.552	14746
894.674	14712
894.796	14667
894.918	14625
895.04	14575
895.161	14667
895.283	14727
895.405	14617
895.526	14693
895.648	14743
895.769	14750
895.891	14750
896.012	14743
896.134	14731
896.255	14678
896.376	14644
896.498	14720
896.619	14769
896.74	14750
896.861	14792
896.982	15047
897.103	15214
897.224	15020
897.345	14952
897.466	14842
897.587	15066
897.708	15138
897.828	15085
897.949	14956
898.07	14902
898.19	14925
898.311	15252
898.431	15051
898.552	15070
898.672	15161
898.792	15146
898.913	15157
899.033	15066
899.153	14979
899.273	14952
899.393	14883
899.513	14933
899.633	14941
899.753	14891
899.873	14906
899.993	14990
900.113	14929
900.232	14948
900.352	14960
900.472	14952
900.591	14735
900.711	14815
900.83	14777
900.95	14891
901.069	14906
901.189	14735
901.308	14495
901.427	14415
901.546	14461
901.665	14400
901.784	14518
901.904	14347
902.023	14225
902.141	14084
902.26	14054
902.379	14199
902.498	14103
902.617	13951
902.735	14012
902.854	14050
902.973	13898
903.091	13700
903.21	13700
903.328	13837
903.446	13715
903.565	13552
903.683	13590
903.801	13483
903.919	13571
904.038	13544
904.156	13403
904.274	13434
904.392	13381
904.51	13419
904.627	13350
904.745	13422
904.863	13430
904.981	13259
905.098	13126
905.216	13107
905.334	13053
905.451	13084
905.569	13110
905.686	13088
905.803	13149
905.921	12901
906.038	12947
906.155	12905
906.272	12817
906.389	12833
906.506	12578
906.623	12673
906.74	12623
906.857	12521
906.974	12509
907.091	12757
907.208	12776
907.324	12772
907.441	12585
907.557	12422
907.674	12357
907.79	12369
907.907	12410
908.023	12445
908.139	12414
908.256	12391
908.372	12308
908.488	12292
908.604	12220
908.72	12068
908.836	12133
908.952	12178
909.068	12072
909.184	12232
909.3	12136
909.415	12228
909.531	12243
909.647	11935
909.762	11946
909.878	11859
909.993	11950
910.108	11946
910.224	11893
910.339	11851
910.454	11923
910.57	11741
910.685	11699
910.8	12034
910.915	11946
911.03	11798
911.145	11684
911.259	11604
911.374	11665
911.489	11570
911.604	11524
911.718	11417
911.833	11391
911.947	11254
912.062	11189
912.176	11364
912.291	11379
912.405	11410
912.519	11501
912.633	11589
912.748	11433
912.862	11459
912.976	11193
913.09	11155
913.204	11105
913.318	11166
913.431	11311
913.545	11383
913.659	11391
913.772	11292
913.886	11083
914	11045
914.113	11071
914.226	11292
914.34	11170
914.453	11037
914.566	11174
914.68	11037
914.793	11041
914.906	10911
915.019	10748
915.132	10771
915.245	10820
915.358	10839
915.47	10904
915.583	10858
915.696	10968
915.809	10980
915.921	10968
916.034	10782
916.146	10824
916.259	10767
916.371	10869
916.483	10835
916.595	10721
916.708	10854
916.82	10774
916.932	10752
917.044	10816
917.156	10698
917.268	10630
917.38	10691
917.491	10702
917.603	10679
917.715	10763
917.826	10763
917.938	10618
918.049	10554
918.161	10660
918.272	10843
918.384	10786
918.495	10668
918.606	10519
918.717	10500
918.828	10519
918.939	10596
919.05	10447
919.161	10542
919.272	10211
919.383	10310
919.494	10535
919.604	10706
919.715	10546
919.826	10409
919.936	10500
920.047	10622
920.157	10596
920.267	10771
920.378	10519
920.488	10546
920.598	10729
920.708	10881
920.818	10752
920.928	10691
921.038	10896
921.148	10934
921.258	10538
921.368	10538
921.477	10417
921.587	10398
921.697	10268
921.806	10367
921.916	10215
922.025	10147
922.134	10093
922.244	10029
922.353	10162
922.462	10006
922.571	9964
922.68	9789
922.789	9747
922.898	9816
923.007	9774
923.116	9850
923.224	9766
923.333	9781
923.442	9648
923.55	9603
923.659	9644
923.767	9717
923.876	9633
923.984	9728
924.092	9557
924.201	9671
924.309	9576
924.417	9648
924.525	9637
924.633	9538
924.741	10322
924.849	9321
924.956	9603
925.064	9389
925.172	9321
925.279	9348
925.387	9340
925.494	9389
925.602	9564
925.709	9496
925.816	9370
925.924	9439
926.031	9549
926.138	9428
926.245	9435
926.352	9340
926.459	9515
926.566	9519
926.673	9336
926.779	9283
926.886	9279
926.993	9116
927.099	9093
927.206	9047
927.312	9032
927.419	9192
927.525	9123
927.631	9150
927.737	9032
927.843	8944
927.95	8857
928.056	8944
928.162	8941
928.267	9032
928.373	9686
928.479	9043
928.585	8868
928.69	8994
928.796	9009
928.901	8925
929.007	8781
929.112	8937
929.218	8883
929.323	8861
929.428	8785
929.533	8975
929.638	8750
929.743	8845
929.848	8849
929.953	8834
930.058	8708
930.163	8545
930.267	8617
930.372	8712
930.477	8541
930.581	8796
930.685	8625
930.79	8552
930.894	8579
930.998	8473
931.103	8667
931.207	8305
931.311	8252
931.415	8225
931.519	8008
931.623	7997
