Data from test_V78500241_294.txt Node
Date: Fri Mar 25 14:35:46 CST 2022
User: usil
Spectrometer: V785-0024
Trigger mode: 0
Integration Time (sec): 4.000000E-1
Scans to average: 1
Nonlinearity correction enabled: false
Boxcar width: 0
Storing dark spectrum: false
XAxis mode: Wavelengths
Number of Pixels in Spectrum: 1024
>>>>>Begin Spectral Data<<<<<
801.071	27161
801.214	27142
801.356	26940
801.499	26735
801.641	26674
801.783	26678
801.926	26640
802.068	26602
802.211	26564
802.353	26450
802.496	26237
802.638	26176
802.78	26282
802.923	26096
803.065	26100
803.208	26126
803.35	26259
803.492	26286
803.635	26355
803.777	26172
803.919	26309
804.061	26545
804.204	26259
804.346	26065
804.488	26046
804.63	26130
804.773	26016
804.915	26164
805.057	26286
805.199	26077
805.341	26294
805.483	26240
805.626	26237
805.768	26062
805.91	26149
806.052	26145
806.194	26142
806.336	26339
806.478	26263
806.62	26225
806.762	26221
806.904	26434
807.046	26663
807.188	26507
807.33	26682
807.472	26697
807.614	26450
807.756	26503
807.898	26381
808.04	26339
808.182	26347
808.324	26507
808.465	26389
808.607	26549
808.749	26663
808.891	26838
809.033	26944
809.174	26857
809.316	26705
809.458	26872
809.6	26667
809.741	26830
809.883	26773
810.025	26960
810.166	26914
810.308	26849
810.45	26788
810.591	26861
810.733	26625
810.875	26571
811.016	26385
811.158	26533
811.299	26571
811.441	26552
811.582	26705
811.724	26701
811.865	26575
812.007	26541
812.148	26526
812.29	26625
812.431	26750
812.573	26781
812.714	26918
812.855	26971
812.997	27203
813.138	27279
813.279	27180
813.421	27036
813.562	27020
813.703	26800
813.845	26857
813.986	26484
814.127	26278
814.268	26180
814.41	26172
814.551	26050
814.692	26130
814.833	26005
814.974	26138
815.115	26069
815.256	26024
815.397	26027
815.539	25887
815.68	25852
815.821	25772
815.962	25887
816.103	25833
816.244	25601
816.385	25567
816.526	25479
816.666	25457
816.807	25244
816.948	25213
817.089	25308
817.23	25244
817.371	25282
817.512	25308
817.653	25369
817.793	25266
817.934	25369
818.075	25270
818.216	25099
818.356	25202
818.497	25099
818.638	24916
818.778	24924
818.919	24901
819.06	24973
819.2	25080
819.341	25156
819.481	25126
819.622	25266
819.762	25510
819.903	25346
820.043	25331
820.184	25251
820.324	25129
820.465	25198
820.605	25171
820.746	25133
820.886	25015
821.026	25190
821.167	25023
821.307	25202
821.447	25008
821.588	25031
821.728	24844
821.868	24844
822.008	24422
822.149	24509
822.289	24563
822.429	24315
822.569	24209
822.709	24270
822.849	24095
822.99	24110
823.13	23927
823.27	23916
823.41	23760
823.55	23729
823.69	23771
823.83	23836
823.97	23817
824.11	23562
824.25	23592
824.389	23547
824.529	23627
824.669	23543
824.809	23646
824.949	23577
825.089	23653
825.228	23748
825.368	23452
825.508	23376
825.648	23467
825.787	23311
825.927	23436
826.067	23349
826.206	23341
826.346	23509
826.485	23391
826.625	23356
826.765	23509
826.904	23440
827.044	23204
827.183	23098
827.323	22957
827.462	23174
827.601	23208
827.741	23044
827.88	23048
828.02	22858
828.159	22919
828.298	22862
828.437	23060
828.577	23067
828.716	23204
828.855	22953
828.994	22763
829.134	22774
829.273	22748
829.412	22835
829.551	22668
829.69	22683
829.829	22691
829.968	22908
830.107	22809
830.246	22706
830.385	22786
830.524	22607
830.663	22611
830.802	22360
830.941	22329
831.08	22181
831.219	22382
831.357	22344
831.496	22402
831.635	22303
831.774	22249
831.913	22177
832.051	22185
832.19	22074
832.329	22120
832.467	21892
832.606	21766
832.744	21960
832.883	21922
833.022	21915
833.16	21930
833.299	21983
833.437	21899
833.576	22017
833.714	21861
833.852	21979
833.991	22010
834.129	22200
834.267	22051
834.406	22086
834.544	21930
834.682	21911
834.821	21892
834.959	22048
835.097	21827
835.235	21865
835.373	21956
835.511	21945
835.65	21717
835.788	21949
835.926	21641
836.064	21675
836.202	21637
836.34	21652
836.478	21816
836.615	21720
836.753	21759
836.891	21770
837.029	21644
837.167	21717
837.305	21686
837.443	21682
837.58	21538
837.718	21743
837.856	21523
837.993	21564
838.131	21720
838.269	21462
838.406	21469
838.544	21496
838.681	21272
838.819	21123
838.956	21077
839.094	21032
839.231	21066
839.369	21203
839.506	21443
839.643	21298
839.781	21058
839.918	20967
840.055	21081
840.193	20876
840.33	20963
840.467	20986
840.604	20952
840.742	21135
840.879	20876
841.016	20895
841.153	20769
841.29	21020
841.427	20929
841.564	20994
841.701	20906
841.838	20849
841.975	20868
842.112	20785
842.249	20838
842.385	20823
842.522	20849
842.659	20720
842.796	20697
842.933	20663
843.069	20602
843.206	20613
843.343	20655
843.479	20640
843.616	20689
843.752	20370
843.889	20457
844.025	20609
844.162	20511
844.298	20503
844.435	20423
844.571	20412
844.708	20454
844.844	20480
844.98	20488
845.117	20450
845.253	20404
845.389	20290
845.525	20473
845.661	20317
845.798	20301
845.934	20309
846.07	20412
846.206	20381
846.342	20427
846.478	20332
846.614	19989
846.75	19947
846.886	19928
847.022	19959
847.158	19868
847.294	19807
847.429	19875
847.565	19940
847.701	20187
847.837	19609
847.972	19628
848.108	19677
848.244	19696
848.379	19548
848.515	19438
848.65	19419
848.786	19403
848.921	19411
849.057	19529
849.192	19468
849.328	19548
849.463	19480
849.598	19457
849.734	19335
849.869	19282
850.004	19122
850.14	19240
850.275	19251
850.41	19270
850.545	19175
850.68	19160
850.815	19259
850.95	19122
851.085	19293
851.22	19236
851.355	19225
851.49	19236
851.625	19076
851.76	19145
851.895	19137
852.03	19107
852.165	19137
852.299	19187
852.434	19308
852.569	19168
852.703	19179
852.838	19217
852.973	19301
853.107	19228
853.242	19107
853.376	18935
853.511	18973
853.645	19012
853.78	19038
853.914	18977
854.048	18935
854.183	19012
854.317	19008
854.451	19179
854.585	18977
854.72	18970
854.854	18996
854.988	18894
855.122	18897
855.256	18856
855.39	18882
855.524	19133
855.658	18954
855.792	19038
855.926	18935
856.06	18977
856.194	19103
856.327	18947
856.461	18985
856.595	18966
856.729	18947
856.862	18973
856.996	19000
857.13	19114
857.263	19012
857.397	19008
857.53	19023
857.664	19034
857.797	19004
857.931	18958
858.064	18966
858.197	19122
858.331	19046
858.464	18920
858.597	18741
858.731	18890
858.864	18859
858.997	18859
859.13	18966
859.263	19042
859.396	18985
859.529	18951
859.662	18913
859.795	18863
859.928	18875
860.061	19076
860.194	19103
860.327	18798
860.46	18745
860.592	18993
860.725	19031
860.858	18947
860.99	19015
861.123	18989
861.256	18844
861.388	18730
861.521	19552
861.653	18802
861.786	18612
861.918	18730
862.05	18856
862.183	18932
862.315	18966
862.447	19008
862.58	18909
862.712	18745
862.844	18631
862.976	18719
863.108	18730
863.24	18939
863.372	18528
863.504	18661
863.636	18692
863.768	18719
863.9	18635
864.032	18551
864.164	18639
864.296	18601
864.428	18673
864.559	18707
864.691	18707
864.823	18738
864.954	18616
865.086	18681
865.217	18593
865.349	18399
865.48	18582
865.612	18532
865.743	18760
865.875	18578
866.006	18369
866.137	18486
866.269	18585
866.4	18540
866.531	18467
866.662	18410
866.793	18460
866.924	18494
867.055	18494
867.186	18532
867.317	18513
867.448	18399
867.579	18384
867.71	18441
867.841	18403
867.972	18471
868.103	18494
868.233	18486
868.364	18464
868.495	18532
868.625	18677
868.756	18829
868.886	18627
869.017	18612
869.147	18802
869.278	18814
869.408	18749
869.539	18738
869.669	18776
869.799	18722
869.929	18817
870.06	18840
870.19	19072
870.32	19129
870.45	19110
870.58	19050
870.71	19228
870.84	19141
870.97	19148
871.1	19129
871.23	19198
871.36	19335
871.489	19228
871.619	19236
871.749	19251
871.879	19373
872.008	19460
872.138	19301
872.267	19285
872.397	19168
872.526	19095
872.656	19213
872.785	19148
872.915	19354
873.044	19362
873.173	19202
873.303	19266
873.432	19381
873.561	19324
873.69	19335
873.819	19327
873.948	19480
874.077	19438
874.206	19289
874.335	19327
874.464	19514
874.593	19632
874.722	19563
874.851	19548
874.979	19578
875.108	19635
875.237	19575
875.365	19510
875.494	19632
875.623	19624
875.751	19571
875.88	19594
876.008	19677
876.136	19788
876.265	20031
876.393	20096
876.521	20130
876.65	20069
876.778	20012
876.906	20012
877.034	19997
877.162	19967
877.29	19921
877.418	19906
877.546	20012
877.674	20050
877.802	19970
877.93	20020
878.058	19917
878.185	19826
878.313	19993
878.441	19928
878.568	19750
878.696	19883
878.824	19993
878.951	20024
879.079	20153
879.206	20328
879.333	20214
879.461	20119
879.588	20237
879.715	20210
879.842	20351
879.97	20119
880.097	19894
880.224	19864
880.351	19818
880.478	19833
880.605	19928
880.732	19849
880.859	20142
880.986	19986
881.112	19890
881.239	19784
881.366	19613
881.493	19563
881.619	19510
881.746	19483
881.872	19571
881.999	19426
882.125	19453
882.252	19441
882.378	19407
882.505	19578
882.631	19335
882.757	19236
882.883	19270
883.01	19293
883.136	19206
883.262	19118
883.388	18840
883.514	19228
883.64	19183
883.766	19171
883.892	19038
884.018	18962
884.143	19145
884.269	19358
884.395	18932
884.52	18932
884.646	18886
884.772	18882
884.897	18779
885.023	18814
885.148	18901
885.274	19091
885.399	18947
885.524	18894
885.65	18909
885.775	18920
885.9	18772
886.025	19114
886.15	18939
886.275	18829
886.4	18734
886.525	18856
886.65	18715
886.775	18715
886.9	18882
887.025	19091
887.149	18798
887.274	18715
887.399	18623
887.523	18593
887.648	18566
887.773	18517
887.897	18749
888.021	18623
888.146	18608
888.27	18654
888.395	18684
888.519	18494
888.643	18681
888.767	18681
888.891	18525
889.015	18433
889.139	18517
889.263	18471
889.387	18612
889.511	18738
889.635	18559
889.759	18357
889.883	18369
890.006	18399
890.13	18528
890.254	18296
890.377	18330
890.501	18205
890.624	18106
890.748	18228
890.871	18098
890.995	18072
891.118	17923
891.241	18121
891.364	18019
891.488	18152
891.611	18030
891.734	18079
891.857	18106
891.98	18034
892.103	18133
892.226	18102
892.349	18072
892.471	17889
892.594	18022
892.717	17973
892.839	17992
892.962	17958
893.085	18087
893.207	17996
893.33	18003
893.452	17931
893.575	18022
893.697	17954
893.819	18057
893.941	18266
894.064	18091
894.186	17999
894.308	17942
894.43	18045
894.552	18091
894.674	17897
894.796	17927
894.918	17980
895.04	17961
895.161	18068
895.283	18121
895.405	17984
895.526	17999
895.648	17904
895.769	17973
895.891	18053
896.012	18117
896.134	18110
896.255	18095
896.376	18152
896.498	18140
896.619	17977
896.74	18060
896.861	18087
896.982	18559
897.103	18513
897.224	18285
897.345	18327
897.466	18277
897.587	18361
897.708	18350
897.828	18361
897.949	18197
898.07	18117
898.19	18235
898.311	18338
898.431	18315
898.552	18319
898.672	18342
898.792	18395
898.913	18319
899.033	18251
899.153	18117
899.273	18083
899.393	18049
899.513	18106
899.633	18076
899.753	18041
899.873	17999
899.993	18140
900.113	18102
900.232	18015
900.352	18003
900.472	17912
900.591	17863
900.711	17859
900.83	17866
900.95	17999
901.069	17954
901.189	17733
901.308	17642
901.427	17467
901.546	17570
901.665	17532
901.784	17543
901.904	17383
902.023	17296
902.141	17056
902.26	17075
902.379	17128
902.498	17041
902.617	16991
902.735	17052
902.854	17010
902.973	16957
903.091	16771
903.21	16717
903.328	16584
903.446	16592
903.565	16558
903.683	16523
903.801	16440
903.919	16489
904.038	16531
904.156	16352
904.274	16428
904.392	16253
904.51	16253
904.627	16325
904.745	16219
904.863	16322
904.981	16040
905.098	16006
905.216	15975
905.334	15987
905.451	15972
905.569	15945
905.686	15903
905.803	15953
905.921	15766
906.038	15861
906.155	15823
906.272	15701
906.389	15580
906.506	15523
906.623	15500
906.74	15447
906.857	15363
906.974	15408
907.091	15534
907.208	15504
907.324	15488
907.441	15450
907.557	15302
907.674	15199
907.79	15104
907.907	15165
908.023	15222
908.139	15241
908.256	15180
908.372	15089
908.488	15077
908.604	14960
908.72	14887
908.836	14910
908.952	14895
909.068	14975
909.184	14982
909.3	14941
909.415	14918
909.531	14918
909.647	14727
909.762	14629
909.878	14564
909.993	14659
910.108	14549
910.224	14552
910.339	14708
910.454	14461
910.57	14419
910.685	14358
910.8	14625
910.915	14613
911.03	14423
911.145	14305
911.259	14298
911.374	14218
911.489	14149
911.604	14103
911.718	14062
911.833	14008
911.947	13917
912.062	13868
912.176	13955
912.291	13883
912.405	13978
912.519	14202
912.633	14145
912.748	13982
912.862	13906
912.976	13784
913.09	13731
913.204	13738
913.318	13795
913.431	13879
913.545	13841
913.659	13860
913.772	13723
913.886	13734
914	13636
914.113	13753
914.226	13689
914.34	13670
914.453	13533
914.566	13681
914.68	13544
914.793	13628
914.906	13514
915.019	13297
915.132	13285
915.245	13259
915.358	13400
915.47	13381
915.583	13308
915.696	13358
915.809	13499
915.921	13358
916.034	13274
916.146	13202
916.259	13255
916.371	13327
916.483	13240
916.595	13156
916.708	13217
916.82	13202
916.932	13110
917.044	13095
917.156	13095
917.268	13008
917.38	12966
917.491	13107
917.603	13057
917.715	13156
917.826	13187
917.938	12989
918.049	12920
918.161	12958
918.272	13107
918.384	13110
918.495	12977
918.606	12817
918.717	12677
918.828	12779
918.939	12779
919.05	12669
919.161	12776
919.272	12601
919.383	12582
919.494	12738
919.604	12958
919.715	12745
919.826	12707
919.936	12757
920.047	12875
920.157	12844
920.267	12932
920.378	12817
920.488	12749
920.598	12962
920.708	13084
920.818	12829
920.928	12875
921.038	13034
921.148	13057
921.258	12795
921.368	12665
921.477	12608
921.587	12452
921.697	12380
921.806	12585
921.916	12365
922.025	12296
922.134	12239
922.244	12117
922.353	12281
922.462	12125
922.571	12034
922.68	11817
922.789	11889
922.898	11874
923.007	11737
923.116	11767
923.224	11809
923.333	11878
923.442	11729
923.55	11672
923.659	11684
923.767	11775
923.876	11630
923.984	11737
924.092	11608
924.201	11661
924.309	11638
924.417	11634
924.525	11558
924.633	11608
924.741	12532
924.849	11372
924.956	11551
925.064	11376
925.172	11345
925.279	11391
925.387	11391
925.494	11296
925.602	11482
925.709	11436
925.816	11239
925.924	11376
926.031	11406
926.138	11379
926.245	11353
926.352	11273
926.459	11372
926.566	11455
926.673	11174
926.779	11235
926.886	11223
926.993	10995
927.099	10995
927.206	10999
927.312	10896
927.419	11102
927.525	11033
927.631	11075
927.737	10946
927.843	10843
927.95	10752
928.056	10755
928.162	10854
928.267	10961
928.373	11429
928.479	10942
928.585	10664
928.69	10790
928.796	10809
928.901	10721
929.007	10573
929.112	10634
929.218	10733
929.323	10615
929.428	10607
929.533	10782
929.638	10459
929.743	10573
929.848	10615
929.953	10546
930.058	10409
930.163	10337
930.267	10322
930.372	10474
930.477	10265
930.581	10500
930.685	10386
930.79	10196
930.894	10227
930.998	10109
931.103	10318
931.207	9964
931.311	9865
931.415	9819
931.519	9717
931.623	9603
