Data from test_V78500241_767.txt Node
Date: Fri Mar 25 14:39:03 CST 2022
User: usil
Spectrometer: V785-0024
Trigger mode: 0
Integration Time (sec): 4.000000E-1
Scans to average: 1
Nonlinearity correction enabled: false
Boxcar width: 0
Storing dark spectrum: false
XAxis mode: Wavelengths
Number of Pixels in Spectrum: 1024
>>>>>Begin Spectral Data<<<<<
801.071	27039
801.214	26857
801.356	26640
801.499	26625
801.641	26377
801.783	26187
801.926	26248
802.068	26229
802.211	26058
802.353	26164
802.496	25852
802.638	25921
802.78	25731
802.923	25852
803.065	25727
803.208	25734
803.35	25780
803.492	25906
803.635	25898
803.777	25845
803.919	25963
804.061	26351
804.204	25986
804.346	25978
804.488	25909
804.63	26027
804.773	26069
804.915	26012
805.057	26256
805.199	26195
805.341	26282
805.483	26507
805.626	26476
805.768	26343
805.91	26708
806.052	26739
806.194	26632
806.336	27077
806.478	27161
806.62	27272
806.762	27739
806.904	28067
807.046	28565
807.188	28790
807.33	29349
807.472	29980
807.614	30361
807.756	31529
807.898	32362
808.04	33956
808.182	35855
808.324	38522
808.465	41414
808.607	44686
808.749	47417
808.891	49206
809.033	49342
809.174	47889
809.316	44952
809.458	41668
809.6	38199
809.741	35440
809.883	33374
810.025	31963
810.166	30776
810.308	30114
810.45	29406
810.591	28873
810.733	28459
810.875	27907
811.016	27595
811.158	27329
811.299	27435
811.441	27351
811.582	27272
811.724	26952
811.865	26849
812.007	26765
812.148	26644
812.29	26655
812.431	26594
812.573	26773
812.714	26861
812.855	26777
812.997	26918
813.138	26902
813.279	26781
813.421	26705
813.562	26564
813.703	26381
813.845	26229
813.986	25856
814.127	25799
814.268	25556
814.41	25643
814.551	25464
814.692	25476
814.833	25381
814.974	25434
815.115	25445
815.256	25244
815.397	25141
815.539	25061
815.68	25141
815.821	24882
815.962	25091
816.103	25057
816.244	24768
816.385	24772
816.526	24741
816.666	24414
816.807	24311
816.948	24395
817.089	24410
817.23	24220
817.371	24330
817.512	24224
817.653	24224
817.793	24247
817.934	24315
818.075	24247
818.216	24121
818.356	24190
818.497	23950
818.638	23874
818.778	23840
818.919	23923
819.06	23901
819.2	24148
819.341	24171
819.481	24106
819.622	24205
819.762	24346
819.903	24251
820.043	24247
820.184	24057
820.324	24174
820.465	24152
820.605	24030
820.746	24098
820.886	23874
821.026	23946
821.167	23840
821.307	23999
821.447	23923
821.588	23824
821.728	23611
821.868	23547
822.008	23242
822.149	23337
822.289	23337
822.429	22980
822.569	23113
822.709	22949
822.849	22953
822.99	22767
823.13	22740
823.27	22675
823.41	22577
823.55	22462
823.69	22493
823.83	22497
823.97	22280
824.11	22169
824.25	22382
824.389	22230
824.529	22158
824.669	22249
824.809	22352
824.949	22295
825.089	22356
825.228	22352
825.368	22101
825.508	22135
825.648	22158
825.787	22154
825.927	22234
826.067	22074
826.206	21960
826.346	22147
826.485	22135
826.625	21998
826.765	22287
826.904	22074
827.044	21823
827.183	21831
827.323	21728
827.462	21842
827.601	21732
827.741	21682
827.88	21679
828.02	21625
828.159	21713
828.298	21610
828.437	21816
828.577	21618
828.716	21770
828.855	21580
828.994	21507
829.134	21382
829.273	21374
829.412	21450
829.551	21306
829.69	21389
829.829	21405
829.968	21329
830.107	21370
830.246	21435
830.385	21336
830.524	21329
830.663	21165
830.802	21093
830.941	20914
831.08	20914
831.219	21096
831.357	21116
831.496	21230
831.635	21028
831.774	20929
831.913	20842
832.051	20765
832.19	20746
832.329	20910
832.467	20796
832.606	20746
832.744	20891
832.883	20956
833.022	21093
833.16	21020
833.299	21283
833.437	21154
833.576	21545
833.714	21667
833.852	21778
833.991	21899
834.129	22067
834.267	21903
834.406	21819
834.544	21827
834.682	21797
834.821	21572
834.959	21614
835.097	21332
835.235	21272
835.373	21154
835.511	21017
835.65	21013
835.788	20826
835.926	20625
836.064	20473
836.202	20556
836.34	20651
836.478	20724
836.615	20663
836.753	20590
836.891	20598
837.029	20625
837.167	20492
837.305	20347
837.443	20454
837.58	20476
837.718	20305
837.856	20377
837.993	20317
838.131	20305
838.269	20252
838.406	20168
838.544	20168
838.681	19909
838.819	20031
838.956	19803
839.094	19776
839.231	19925
839.369	19845
839.506	20119
839.643	19909
839.781	19742
839.918	19700
840.055	19833
840.193	19734
840.33	19704
840.467	19704
840.604	19811
840.742	19989
840.879	19597
841.016	19788
841.153	19632
841.29	19845
841.427	19719
841.564	19776
841.701	19757
841.838	19734
841.975	19559
842.112	19632
842.249	19609
842.385	19521
842.522	19681
842.659	19559
842.796	19647
842.933	19525
843.069	19632
843.206	19746
843.343	19700
843.479	19681
843.616	19666
843.752	19613
843.889	19582
844.025	19860
844.162	19807
844.298	19989
844.435	20084
844.571	20172
844.708	20461
844.844	20849
844.98	21332
845.117	21846
845.253	22900
845.389	24646
845.525	28177
845.661	33994
845.798	40645
845.934	45602
846.07	47687
846.206	46086
846.342	41531
846.478	34866
846.614	29029
846.75	25236
846.886	23018
847.022	21819
847.158	20754
847.294	20191
847.429	19864
847.565	19738
847.701	19818
847.837	19171
847.972	19053
848.108	18920
848.244	19042
848.379	18829
848.515	18749
848.65	18715
848.786	18692
848.921	18627
849.057	18783
849.192	18677
849.328	18593
849.463	18585
849.598	18540
849.734	18418
849.869	18403
850.004	18334
850.14	18315
850.275	18285
850.41	18117
850.545	18178
850.68	18197
850.815	18152
850.95	18315
851.085	18376
851.22	18315
851.355	18285
851.49	18232
851.625	18270
851.76	18254
851.895	18136
852.03	18102
852.165	18171
852.299	18308
852.434	18350
852.569	18319
852.703	18315
852.838	18384
852.973	18490
853.107	18551
853.242	18311
853.376	18262
853.511	18148
853.645	18304
853.78	18486
853.914	18448
854.048	18460
854.183	18327
854.317	18452
854.451	18616
854.585	18445
854.72	18456
854.854	18540
854.988	18296
855.122	18300
855.256	18186
855.39	18277
855.524	18285
855.658	18319
855.792	18209
855.926	18266
856.06	18205
856.194	18346
856.327	18049
856.461	18087
856.595	18026
856.729	18167
856.862	18091
856.996	18026
857.13	18114
857.263	18159
857.397	18182
857.53	18007
857.664	18133
857.797	18060
857.931	18194
858.064	18049
858.197	18144
858.331	18026
858.464	17935
858.597	17889
858.731	17931
858.864	17908
858.997	17923
859.13	17935
859.263	17916
859.396	18038
859.529	17870
859.662	17878
859.795	17969
859.928	17984
860.061	17999
860.194	17992
860.327	17954
860.46	17805
860.592	18015
860.725	17961
860.858	18068
860.99	17878
861.123	17809
861.256	17798
861.388	17878
861.521	18574
861.653	17733
861.786	17634
861.918	17649
862.05	17714
862.183	17748
862.315	17878
862.447	17927
862.58	17821
862.712	17638
862.844	17490
862.976	17680
863.108	17649
863.24	17984
863.372	17493
863.504	17657
863.636	17486
863.768	17627
863.9	17604
864.032	17486
864.164	17505
864.296	17570
864.428	17589
864.559	17627
864.691	17630
864.823	17646
864.954	17570
865.086	17577
865.217	17421
865.349	17417
865.48	17459
865.612	17433
865.743	17570
865.875	17482
866.006	17490
866.137	17539
866.269	17467
866.4	17444
866.531	17429
866.662	17425
866.793	17379
866.924	17444
867.055	17414
867.186	17376
867.317	17376
867.448	17345
867.579	17452
867.71	17307
867.841	17383
867.972	17452
868.103	17467
868.233	17547
868.364	17379
868.495	17604
868.625	17649
868.756	17783
868.886	17649
869.017	17623
869.147	17783
869.278	17908
869.408	17771
869.539	17805
869.669	17771
869.799	17767
869.929	17805
870.06	17851
870.19	18087
870.32	18076
870.45	18125
870.58	18140
870.71	18296
870.84	18334
870.97	18159
871.1	18083
871.23	18342
871.36	18429
871.489	18319
871.619	18376
871.749	18448
871.879	18380
872.008	18658
872.138	18490
872.267	18525
872.397	18361
872.526	18384
872.656	18350
872.785	18395
872.915	18555
873.044	18604
873.173	18582
873.303	18608
873.432	18719
873.561	18764
873.69	18738
873.819	18829
873.948	18829
874.077	18806
874.206	18757
874.335	18844
874.464	18939
874.593	19122
874.722	19126
874.851	19308
874.979	19266
875.108	19365
875.237	19198
875.365	19171
875.494	19358
875.623	19445
875.751	19457
875.88	19476
876.008	19597
876.136	19677
876.265	20039
876.393	20206
876.521	20183
876.65	20221
876.778	20202
876.906	20206
877.034	20252
877.162	20381
877.29	20358
877.418	20609
877.546	20571
877.674	20629
877.802	20849
877.93	20899
878.058	21100
878.185	21298
878.313	21633
878.441	21888
878.568	22074
878.696	22866
878.824	23672
878.951	24730
879.079	26415
879.206	28325
879.333	30349
879.461	31997
879.588	33070
879.715	33157
879.842	32290
879.97	30452
880.097	28166
880.224	26533
880.351	25453
880.478	24574
880.605	24064
880.732	23596
880.859	23630
880.986	23330
881.112	23185
881.239	22953
881.366	22816
881.493	22694
881.619	22710
881.746	22725
881.872	22748
881.999	22717
882.125	22835
882.252	22904
882.378	22831
882.505	23208
882.631	22919
882.757	22778
882.883	22793
883.01	22721
883.136	22733
883.262	22668
883.388	22584
883.514	22767
883.64	22683
883.766	22679
883.892	22489
884.018	22577
884.143	22748
884.269	22812
884.395	22550
884.52	22470
884.646	22436
884.772	22466
884.897	22478
885.023	22577
885.148	22550
885.274	22641
885.399	22440
885.524	22147
885.65	22135
885.775	22051
885.9	21972
886.025	21869
886.15	21591
886.275	21393
886.4	21275
886.525	21169
886.65	21043
886.775	20868
886.9	20876
887.025	20933
887.149	20769
887.274	20423
887.399	20286
887.523	20252
887.648	20039
887.773	19982
887.897	19967
888.021	19902
888.146	19830
888.27	19902
888.395	19887
888.519	19746
888.643	19696
888.767	19651
888.891	19468
889.015	19392
889.139	19293
889.263	19232
889.387	19411
889.511	19506
889.635	19129
889.759	19202
889.883	19133
890.006	19050
890.13	19213
890.254	19015
890.377	18947
890.501	18779
890.624	18715
890.748	18802
890.871	18635
890.995	18376
891.118	18327
891.241	18410
891.364	18414
891.488	18536
891.611	18308
891.734	18194
891.857	18353
891.98	18342
892.103	18330
892.226	18243
892.349	18152
892.471	17977
892.594	18114
892.717	18102
892.839	18022
892.962	17961
893.085	17973
893.207	17935
893.33	17783
893.452	17836
893.575	18060
893.697	17783
893.819	18007
893.941	17942
894.064	17923
894.186	17710
894.308	17623
894.43	17813
894.552	17775
894.674	17790
894.796	17608
894.918	17528
895.04	17592
895.161	17646
895.283	17608
895.405	17596
895.526	17585
895.648	17627
895.769	17398
895.891	17714
896.012	17585
896.134	17520
896.255	17630
896.376	17490
896.498	17581
896.619	17543
896.74	17589
896.861	17638
896.982	18015
897.103	18053
897.224	17775
897.345	17745
897.466	17687
897.587	17657
897.708	17779
897.828	17703
897.949	17661
898.07	17551
898.19	17687
898.311	17779
898.431	17657
898.552	17676
898.672	17813
898.792	17767
898.913	17798
899.033	17554
899.153	17596
899.273	17467
899.393	17482
899.513	17581
899.633	17554
899.753	17482
899.873	17455
899.993	17577
900.113	17406
900.232	17493
900.352	17360
900.472	17360
900.591	17341
900.711	17322
900.83	17273
900.95	17307
901.069	17463
901.189	17246
901.308	16930
901.427	16972
901.546	16927
901.665	16930
901.784	16949
901.904	16675
902.023	16664
902.141	16489
902.26	16382
902.379	16470
902.498	16398
902.617	16268
902.735	16325
902.854	16257
902.973	16143
903.091	15865
903.21	16063
903.328	16051
903.446	15926
903.565	15819
903.683	15827
903.801	15717
903.919	15846
904.038	15759
904.156	15534
904.274	15610
904.392	15576
904.51	15473
904.627	15526
904.745	15523
904.863	15553
904.981	15492
905.098	15195
905.216	15252
905.334	15154
905.451	15195
905.569	15104
905.686	15275
905.803	15097
905.921	14876
906.038	15150
906.155	15070
906.272	14868
906.389	14861
906.506	14754
906.623	14678
906.74	14682
906.857	14583
906.974	14587
907.091	14792
907.208	14788
907.324	14640
907.441	14518
907.557	14427
907.674	14366
907.79	14404
907.907	14393
908.023	14427
908.139	14434
908.256	14355
908.372	14377
908.488	14286
908.604	14172
908.72	14157
908.836	14210
908.952	14103
909.068	14183
909.184	14221
909.3	14062
909.415	14088
909.531	14130
909.647	13883
909.762	13936
909.878	13811
909.993	13978
910.108	13837
910.224	13830
910.339	13940
910.454	13731
910.57	13708
910.685	13586
910.8	13951
910.915	13822
911.03	13708
911.145	13499
911.259	13419
911.374	13567
911.489	13430
911.604	13369
911.718	13221
911.833	13274
911.947	13221
912.062	13149
912.176	13145
912.291	13297
912.405	13194
912.519	13263
912.633	13502
912.748	13327
912.862	13274
912.976	13114
913.09	13012
913.204	13133
913.318	13225
913.431	13183
913.545	13118
913.659	13202
913.772	13000
913.886	12894
914	12977
914.113	12989
914.226	13145
914.34	13084
914.453	12886
914.566	13046
914.68	12878
914.793	12776
914.906	12787
915.019	12711
915.132	12574
915.245	12722
915.358	12692
915.47	12715
915.583	12715
915.696	12692
915.809	12757
915.921	12760
916.034	12658
916.146	12608
916.259	12654
916.371	12848
916.483	12783
916.595	12650
916.708	12555
916.82	12608
916.932	12597
917.044	12722
917.156	12532
917.268	12441
917.38	12536
917.491	12498
917.603	12509
917.715	12589
917.826	12486
917.938	12334
918.049	12334
918.161	12486
918.272	12509
918.384	12616
918.495	12429
918.606	12277
918.717	12247
918.828	12296
918.939	12308
919.05	12129
919.161	12186
919.272	11977
919.383	12129
919.494	12292
919.604	12376
919.715	12266
919.826	12232
919.936	12224
920.047	12281
920.157	12197
920.267	12391
920.378	12266
920.488	12213
920.598	12467
920.708	12544
920.818	12311
920.928	12334
921.038	12506
921.148	12414
921.258	12258
921.368	12117
921.477	12003
921.587	11980
921.697	11802
921.806	12030
921.916	11874
922.025	11646
922.134	11703
922.244	11589
922.353	11703
922.462	11528
922.571	11520
922.68	11391
922.789	11364
922.898	11356
923.007	11250
923.116	11414
923.224	11303
923.333	11201
923.442	11231
923.55	11132
923.659	11185
923.767	11201
923.876	11109
923.984	11254
924.092	11037
924.201	11109
924.309	11117
924.417	11181
924.525	11064
924.633	11079
924.741	11916
924.849	10999
924.956	11067
925.064	10869
925.172	10786
925.279	10877
925.387	10835
925.494	10873
925.602	10957
925.709	10908
925.816	10869
925.924	10892
926.031	10911
926.138	10835
926.245	10885
926.352	10736
926.459	10953
926.566	10904
926.673	10771
926.779	10733
926.886	10596
926.993	10527
927.099	10447
927.206	10428
927.312	10462
927.419	10584
927.525	10455
927.631	10550
927.737	10462
927.843	10417
927.95	10272
928.056	10409
928.162	10306
928.267	10402
928.373	11060
928.479	10382
928.585	10188
928.69	10314
928.796	10409
928.901	10284
929.007	10139
929.112	10227
929.218	10192
929.323	10227
929.428	10116
929.533	10337
929.638	10105
929.743	10055
929.848	10196
929.953	10128
930.058	10032
930.163	9827
930.267	9865
930.372	10002
930.477	9880
930.581	10093
930.685	9930
930.79	9808
930.894	9793
930.998	9800
931.103	9869
931.207	9534
931.311	9477
931.415	9454
931.519	9272
931.623	9214
