Data from test_V78500241_1916.txt Node
Date: Fri Mar 25 14:47:03 CST 2022
User: usil
Spectrometer: V785-0024
Trigger mode: 0
Integration Time (sec): 4.000000E-1
Scans to average: 1
Nonlinearity correction enabled: false
Boxcar width: 0
Storing dark spectrum: false
XAxis mode: Wavelengths
Number of Pixels in Spectrum: 1024
>>>>>Begin Spectral Data<<<<<
801.071	22090
801.214	21987
801.356	21755
801.499	21561
801.641	21450
801.783	21443
801.926	21435
802.068	21447
802.211	21393
802.353	21233
802.496	21055
802.638	20971
802.78	20807
802.923	20979
803.065	20880
803.208	20807
803.35	20864
803.492	20807
803.635	20864
803.777	20769
803.919	20826
804.061	21127
804.204	20815
804.346	20712
804.488	20667
804.63	20735
804.773	20587
804.915	20735
805.057	20731
805.199	20727
805.341	20739
805.483	20815
805.626	20777
805.768	20644
805.91	20648
806.052	20720
806.194	20492
806.336	20895
806.478	20629
806.62	20686
806.762	20819
806.904	20834
807.046	21093
807.188	20990
807.33	21062
807.472	21089
807.614	21157
807.756	21001
807.898	20887
808.04	20632
808.182	20773
808.324	20796
808.465	20800
808.607	21024
808.749	21039
808.891	21249
809.033	21256
809.174	21131
809.316	21013
809.458	21020
809.6	21055
809.741	21222
809.883	21096
810.025	21233
810.166	21241
810.308	21249
810.45	21142
810.591	21150
810.733	20925
810.875	20918
811.016	20693
811.158	20636
811.299	20887
811.441	20956
811.582	20838
811.724	20883
811.865	20724
812.007	20849
812.148	20746
812.29	20883
812.431	20948
812.573	21135
812.714	21264
812.855	21386
812.997	21389
813.138	21603
813.279	21523
813.421	21283
813.562	21374
813.703	21218
813.845	21001
813.986	20739
814.127	20533
814.268	20446
814.41	20541
814.551	20446
814.692	20495
814.833	20336
814.974	20328
815.115	20450
815.256	20119
815.397	20267
815.539	20233
815.68	20092
815.821	20111
815.962	20119
816.103	20145
816.244	19890
816.385	19868
816.526	19784
816.666	19750
816.807	19567
816.948	19601
817.089	19620
817.23	19514
817.371	19567
817.512	19533
817.653	19540
817.793	19392
817.934	19476
818.075	19518
818.216	19502
818.356	19521
818.497	19266
818.638	19350
818.778	19202
818.919	19221
819.06	19156
819.2	19175
819.341	19381
819.481	19381
819.622	19537
819.762	19674
819.903	19620
820.043	19502
820.184	19567
820.324	19582
820.465	19514
820.605	19582
820.746	19483
820.886	19259
821.026	19544
821.167	19441
821.307	19518
821.447	19331
821.588	19331
821.728	19247
821.868	19145
822.008	18932
822.149	18943
822.289	18863
822.429	18715
822.569	18585
822.709	18665
822.849	18311
822.99	18384
823.13	18369
823.27	18407
823.41	18258
823.55	18136
823.69	18277
823.83	18254
823.97	18098
824.11	18068
824.25	17885
824.389	17980
824.529	18091
824.669	17992
824.809	18011
824.949	18076
825.089	18091
825.228	18083
825.368	17802
825.508	17847
825.648	17790
825.787	17813
825.927	17893
826.067	17710
826.206	17764
826.346	17832
826.485	17840
826.625	17741
826.765	17794
826.904	17843
827.044	17543
827.183	17467
827.323	17459
827.462	17535
827.601	17463
827.741	17467
827.88	17497
828.02	17223
828.159	17452
828.298	17516
828.437	17566
828.577	17429
828.716	17608
828.855	17387
828.994	17326
829.134	17185
829.273	17349
829.412	17102
829.551	17220
829.69	17235
829.829	17220
829.968	17410
830.107	17318
830.246	17318
830.385	17174
830.524	17132
830.663	16999
830.802	16908
830.941	16824
831.08	16771
831.219	16873
831.357	16919
831.496	17132
831.635	16923
831.774	16755
831.913	16736
832.051	16584
832.19	16592
832.329	16649
832.467	16550
832.606	16527
832.744	16523
832.883	16558
833.022	16512
833.16	16519
833.299	16626
833.437	16653
833.576	16554
833.714	16599
833.852	16729
833.991	16679
834.129	16698
834.267	16782
834.406	16596
834.544	16592
834.682	16702
834.821	16554
834.959	16786
835.097	16508
835.235	16786
835.373	16607
835.511	16618
835.65	16679
835.788	16565
835.926	16322
836.064	16390
836.202	16215
836.34	16577
836.478	16679
836.615	16535
836.753	16683
836.891	16603
837.029	16531
837.167	16508
837.305	16443
837.443	16367
837.58	16348
837.718	16462
837.856	16466
837.993	16356
838.131	16455
838.269	16325
838.406	16287
838.544	16268
838.681	16044
838.819	16101
838.956	15960
839.094	15945
839.231	15934
839.369	16139
839.506	16382
839.643	16169
839.781	15998
839.918	15873
840.055	15968
840.193	15884
840.33	15842
840.467	16025
840.604	15922
840.742	16211
840.879	15766
841.016	15835
841.153	15846
841.29	15991
841.427	15994
841.564	15884
841.701	16055
841.838	15873
841.975	15915
842.112	15857
842.249	15785
842.385	15785
842.522	16093
842.659	15709
842.796	15709
842.933	15823
843.069	15671
843.206	15717
843.343	15816
843.479	15736
843.616	15759
843.752	15458
843.889	15519
844.025	15652
844.162	15568
844.298	15629
844.435	15538
844.571	15519
844.708	15545
844.844	15591
844.98	15709
845.117	15701
845.253	15526
845.389	15454
845.525	15485
845.661	15363
845.798	15272
845.934	15428
846.07	15268
846.206	15443
846.342	15386
846.478	15393
846.614	15176
846.75	15058
846.886	15043
847.022	15222
847.158	15093
847.294	15176
847.429	15119
847.565	15005
847.701	15348
847.837	14883
847.972	14765
848.108	14979
848.244	14982
848.379	14781
848.515	14667
848.65	14686
848.786	14701
848.921	14712
849.057	14762
849.192	14716
849.328	14819
849.463	14746
849.598	14754
849.734	14621
849.869	14606
850.004	14454
850.14	14503
850.275	14454
850.41	14328
850.545	14377
850.68	14343
850.815	14446
850.95	14431
851.085	14682
851.22	14598
851.355	14396
851.49	14355
851.625	14351
851.76	14480
851.895	14347
852.03	14336
852.165	14404
852.299	14507
852.434	14579
852.569	14556
852.703	14503
852.838	14526
852.973	14689
853.107	14590
853.242	14484
853.376	14343
853.511	14229
853.645	14309
853.78	14374
853.914	14385
854.048	14320
854.183	14225
854.317	14347
854.451	14640
854.585	14275
854.72	14339
854.854	14377
854.988	14275
855.122	14275
855.256	14229
855.39	14320
855.524	14389
855.658	14419
855.792	14412
855.926	14290
856.06	14438
856.194	14549
856.327	14343
856.461	14298
856.595	14286
856.729	14282
856.862	14362
856.996	14412
857.13	14396
857.263	14503
857.397	14503
857.53	14328
857.664	14438
857.797	14385
857.931	14362
858.064	14370
858.197	14503
858.331	14317
858.464	14278
858.597	14218
858.731	14343
858.864	14275
858.997	14313
859.13	14339
859.263	14339
859.396	14309
859.529	14271
859.662	14309
859.795	14290
859.928	14370
860.061	14431
860.194	14511
860.327	14358
860.46	14294
860.592	14431
860.725	14518
860.858	14385
860.99	14362
861.123	14252
861.256	14286
861.388	14355
861.521	15047
861.653	14225
861.786	14214
861.918	14119
862.05	14161
862.183	14237
862.315	14206
862.447	14366
862.58	14259
862.712	14069
862.844	13959
862.976	14123
863.108	14077
863.24	14613
863.372	14027
863.504	14145
863.636	14107
863.768	14157
863.9	14092
864.032	14046
864.164	14020
864.296	14134
864.428	14168
864.559	14259
864.691	14172
864.823	14210
864.954	14123
865.086	14206
865.217	14062
865.349	14035
865.48	14130
865.612	14161
865.743	14278
865.875	14157
866.006	14039
866.137	14123
866.269	14058
866.4	14100
866.531	14065
866.662	14043
866.793	14130
866.924	14069
867.055	14005
867.186	14050
867.317	14092
867.448	13951
867.579	14084
867.71	14005
867.841	13978
867.972	14050
868.103	14123
868.233	14202
868.364	14103
868.495	14149
868.625	14256
868.756	14389
868.886	14153
869.017	14294
869.147	14423
869.278	14454
869.408	14423
869.539	14450
869.669	14457
869.799	14385
869.929	14415
870.06	14355
870.19	14636
870.32	14621
870.45	14667
870.58	14762
870.71	14891
870.84	14899
870.97	14682
871.1	14678
871.23	14941
871.36	14967
871.489	14823
871.619	14811
871.749	14864
871.879	14941
872.008	15062
872.138	14948
872.267	14971
872.397	14918
872.526	14811
872.656	14701
872.785	14800
872.915	15028
873.044	14963
873.173	14956
873.303	15017
873.432	14948
873.561	15093
873.69	15013
873.819	15013
873.948	15028
874.077	14994
874.206	15009
874.335	14979
874.464	15108
874.593	15283
874.722	15249
874.851	15397
874.979	15268
875.108	15351
875.237	15291
875.365	15355
875.494	15310
875.623	15450
875.751	15272
875.88	15393
876.008	15473
876.136	15530
876.265	15644
876.393	15770
876.521	15709
876.65	15956
876.778	15701
876.906	15614
877.034	15561
877.162	15656
877.29	15671
877.418	15682
877.546	15599
877.674	15675
877.802	15679
877.93	15743
878.058	15629
878.185	15591
878.313	15804
878.441	15759
878.568	15610
878.696	15637
878.824	15774
878.951	15762
879.079	15899
879.206	16078
879.333	15911
879.461	15724
879.588	15842
879.715	15911
879.842	15964
879.97	15778
880.097	15504
880.224	15595
880.351	15584
880.478	15488
880.605	15526
880.732	15667
880.859	15857
880.986	15644
881.112	15572
881.239	15504
881.366	15367
881.493	15272
881.619	15268
881.746	15275
881.872	15245
881.999	15317
882.125	15127
882.252	15279
882.378	15283
882.505	15431
882.631	15195
882.757	15043
882.883	15066
883.01	15131
883.136	15043
883.262	14899
883.388	14910
883.514	15123
883.64	15165
883.766	14998
883.892	14823
884.018	14857
884.143	15009
884.269	15138
884.395	14857
884.52	14823
884.646	14693
884.772	14629
884.897	14621
885.023	14762
885.148	14880
885.274	14937
885.399	14838
885.524	14674
885.65	14807
885.775	14720
885.9	14807
886.025	14876
886.15	14807
886.275	14777
886.4	14632
886.525	14876
886.65	14606
886.775	14674
886.9	14796
887.025	15036
887.149	14727
887.274	14655
887.399	14495
887.523	14537
887.648	14495
887.773	14476
887.897	14678
888.021	14598
888.146	14473
888.27	14648
888.395	14693
888.519	14697
888.643	14743
888.767	14644
888.891	14492
889.015	14415
889.139	14450
889.263	14336
889.387	14579
889.511	14663
889.635	14575
889.759	14438
889.883	14408
890.006	14336
890.13	14541
890.254	14446
890.377	14377
890.501	14240
890.624	14202
890.748	14343
890.871	14191
890.995	14107
891.118	14054
891.241	14214
891.364	14248
891.488	14263
891.611	14111
891.734	14202
891.857	14248
891.98	14168
892.103	14199
892.226	14164
892.349	14103
892.471	13986
892.594	14073
892.717	14225
892.839	14130
892.962	14157
893.085	14214
893.207	14096
893.33	14054
893.452	14001
893.575	14119
893.697	14115
893.819	14248
893.941	14385
894.064	14240
894.186	14149
894.308	13989
894.43	14267
894.552	14385
894.674	14309
894.796	14126
894.918	14153
895.04	14092
895.161	14221
895.283	14225
895.405	14259
895.526	14244
895.648	14271
895.769	14252
895.891	14343
896.012	14374
896.134	14339
896.255	14240
896.376	14221
896.498	14336
896.619	14343
896.74	14320
896.861	14400
896.982	14651
897.103	14777
897.224	14560
897.345	14686
897.466	14587
897.587	14488
897.708	14701
897.828	14552
897.949	14552
898.07	14461
898.19	14526
898.311	14720
898.431	14663
898.552	14636
898.672	14815
898.792	14705
898.913	14602
899.033	14579
899.153	14533
899.273	14393
899.393	14389
899.513	14465
899.633	14549
899.753	14571
899.873	14484
899.993	14560
900.113	14511
900.232	14564
900.352	14465
900.472	14446
900.591	14320
900.711	14393
900.83	14278
900.95	14438
901.069	14473
901.189	14256
901.308	14103
901.427	14043
901.546	13974
901.665	13978
901.784	14058
901.904	13913
902.023	13845
902.141	13677
902.26	13616
902.379	13693
902.498	13620
902.617	13616
902.735	13624
902.854	13575
902.973	13441
903.091	13415
903.21	13438
903.328	13350
903.446	13354
903.565	13183
903.683	13187
903.801	13152
903.919	13099
904.038	13217
904.156	12954
904.274	13088
904.392	13004
904.51	12932
904.627	12943
904.745	13065
904.863	13114
904.981	12837
905.098	12665
905.216	12726
905.334	12662
905.451	12688
905.569	12715
905.686	12734
905.803	12719
905.921	12490
906.038	12650
906.155	12528
906.272	12452
906.389	12365
906.506	12342
906.623	12296
906.74	12254
906.857	12239
906.974	12178
907.091	12338
907.208	12422
907.324	12338
907.441	12224
907.557	12015
907.674	12019
907.79	11942
907.907	11980
908.023	12068
908.139	12030
908.256	12003
908.372	11973
908.488	11927
908.604	11843
908.72	11813
908.836	11760
908.952	11764
909.068	11840
909.184	11931
909.3	11821
909.415	11828
909.531	11798
909.647	11539
909.762	11581
909.878	11455
909.993	11592
910.108	11543
910.224	11512
910.339	11577
910.454	11566
910.57	11436
910.685	11406
910.8	11653
910.915	11558
911.03	11429
911.145	11296
911.259	11273
911.374	11273
911.489	11185
911.604	11162
911.718	11022
911.833	11086
911.947	10828
912.062	10946
912.176	11052
912.291	11014
912.405	11010
912.519	11140
912.633	11273
912.748	11048
912.862	11075
912.976	10889
913.09	10850
913.204	10862
913.318	10885
913.431	11045
913.545	10999
913.659	11033
913.772	10961
913.886	10687
914	10721
914.113	10866
914.226	10900
914.34	10824
914.453	10653
914.566	10877
914.68	10755
914.793	10733
914.906	10527
915.019	10561
915.132	10360
915.245	10554
915.358	10596
915.47	10554
915.583	10607
915.696	10542
915.809	10710
915.921	10664
916.034	10565
916.146	10402
916.259	10580
916.371	10508
916.483	10481
916.595	10432
916.708	10432
916.82	10421
916.932	10375
917.044	10379
917.156	10417
917.268	10314
917.38	10348
917.491	10306
917.603	10363
917.715	10455
917.826	10421
917.938	10318
918.049	10284
918.161	10402
918.272	10470
918.384	10443
918.495	10333
918.606	10257
918.717	10200
918.828	10234
918.939	10314
919.05	10128
919.161	10135
919.272	10017
919.383	10090
919.494	10310
919.604	10432
919.715	10268
919.826	10154
919.936	10230
920.047	10405
920.157	10181
920.267	10459
920.378	10257
920.488	10219
920.598	10394
920.708	10565
920.818	10462
920.928	10379
921.038	10580
921.148	10535
921.258	10234
921.368	10223
921.477	10093
921.587	10105
921.697	9975
921.806	10128
921.916	10002
922.025	9827
922.134	9781
922.244	9736
922.353	9857
922.462	9694
922.571	9648
922.68	9481
922.789	9386
922.898	9538
923.007	9412
923.116	9454
923.224	9542
923.333	9401
923.442	9389
923.55	9378
923.659	9428
923.767	9382
923.876	9344
923.984	9405
924.092	9306
924.201	9329
924.309	9336
924.417	9298
924.525	9253
924.633	9245
924.741	10238
924.849	9165
924.956	9313
925.064	9135
925.172	9100
925.279	9043
925.387	9207
925.494	9176
925.602	9294
925.709	9317
925.816	9047
925.924	9074
926.031	9211
926.138	9184
926.245	9131
926.352	9047
926.459	9180
926.566	9203
926.673	9119
926.779	9024
926.886	8982
926.993	8883
927.099	8849
927.206	8800
927.312	8815
927.419	8918
927.525	8762
927.631	8921
927.737	8769
927.843	8796
927.95	8693
928.056	8754
928.162	8819
928.267	8838
928.373	9477
928.479	8921
928.585	8617
928.69	8792
928.796	8823
928.901	8663
929.007	8492
929.112	8735
929.218	8655
929.323	8598
929.428	8564
929.533	8705
929.638	8556
929.743	8583
929.848	8705
929.953	8617
930.058	8560
930.163	8290
930.267	8450
930.372	8545
930.477	8355
930.581	8575
930.685	8480
930.79	8294
930.894	8366
930.998	8377
931.103	8480
931.207	8134
931.311	8100
931.415	7970
931.519	7822
931.623	7868
