Data from test_V78500241_3467.txt Node
Date: Fri Mar 25 14:57:51 CST 2022
User: usil
Spectrometer: V785-0024
Trigger mode: 0
Integration Time (sec): 4.000000E-1
Scans to average: 1
Nonlinearity correction enabled: false
Boxcar width: 0
Storing dark spectrum: false
XAxis mode: Wavelengths
Number of Pixels in Spectrum: 1024
>>>>>Begin Spectral Data<<<<<
801.071	21975
801.214	21876
801.356	21564
801.499	21466
801.641	21374
801.783	21310
801.926	21302
802.068	21264
802.211	21119
802.353	21077
802.496	20781
802.638	20716
802.78	20712
802.923	20644
803.065	20545
803.208	20594
803.35	20545
803.492	20682
803.635	20632
803.777	20552
803.919	20655
804.061	20960
804.204	20526
804.346	20579
804.488	20404
804.63	20571
804.773	20465
804.915	20571
805.057	20484
805.199	20488
805.341	20377
805.483	20659
805.626	20568
805.768	20404
805.91	20484
806.052	20480
806.194	20381
806.336	20587
806.478	20579
806.62	20457
806.762	20537
806.904	20655
807.046	20948
807.188	20781
807.33	20773
807.472	20819
807.614	20788
807.756	20720
807.898	20659
808.04	20526
808.182	20404
808.324	20507
808.465	20450
808.607	20781
808.749	20952
808.891	20864
809.033	21096
809.174	20838
809.316	20769
809.458	20834
809.6	20727
809.741	20758
809.883	20914
810.025	21001
810.166	21013
810.308	21032
810.45	20921
810.591	20849
810.733	20804
810.875	20727
811.016	20526
811.158	20560
811.299	20590
811.441	20697
811.582	20705
811.724	20556
811.865	20507
812.007	20602
812.148	20682
812.29	20575
812.431	20708
812.573	20899
812.714	20986
812.855	21127
812.997	21230
813.138	21439
813.279	21249
813.421	21074
813.562	20941
813.703	20842
813.845	20640
813.986	20514
814.127	20339
814.268	20298
814.41	20206
814.551	20115
814.692	20153
814.833	20115
814.974	19997
815.115	20157
815.256	20001
815.397	19898
815.539	20016
815.68	19852
815.821	19689
815.962	19822
816.103	19845
816.244	19658
816.385	19639
816.526	19651
816.666	19487
816.807	19324
816.948	19343
817.089	19411
817.23	19358
817.371	19213
817.512	19289
817.653	19289
817.793	19221
817.934	19236
818.075	19251
818.216	19213
818.356	19198
818.497	19171
818.638	18932
818.778	18954
818.919	18863
819.06	19000
819.2	19046
819.341	19099
819.481	19084
819.622	19198
819.762	19571
819.903	19457
820.043	19251
820.184	19346
820.324	19190
820.465	19293
820.605	19331
820.746	19266
820.886	19076
821.026	19251
821.167	19202
821.307	19187
821.447	19148
821.588	19110
821.728	19004
821.868	18795
822.008	18635
822.149	18608
822.289	18635
822.429	18479
822.569	18330
822.709	18429
822.849	18270
822.99	18136
823.13	18163
823.27	18159
823.41	17954
823.55	17912
823.69	18034
823.83	18079
823.97	18011
824.11	17745
824.25	17672
824.389	17771
824.529	17821
824.669	17805
824.809	17916
824.949	17813
825.089	17821
825.228	17798
825.368	17585
825.508	17471
825.648	17649
825.787	17562
825.927	17691
826.067	17585
826.206	17474
826.346	17562
826.485	17570
826.625	17573
826.765	17623
826.904	17547
827.044	17376
827.183	17318
827.323	17311
827.462	17334
827.601	17277
827.741	17121
827.88	17250
828.02	17212
828.159	17143
828.298	17269
828.437	17345
828.577	17288
828.716	17341
828.855	17200
828.994	17006
829.134	17060
829.273	16900
829.412	16927
829.551	16934
829.69	17048
829.829	17147
829.968	17090
830.107	17014
830.246	17048
830.385	16946
830.524	16927
830.663	16778
830.802	16774
830.941	16664
831.08	16573
831.219	16721
831.357	16691
831.496	16923
831.635	16649
831.774	16542
831.913	16607
832.051	16432
832.19	16398
832.329	16565
832.467	16333
832.606	16318
832.744	16249
832.883	16306
833.022	16268
833.16	16447
833.299	16440
833.437	16303
833.576	16394
833.714	16371
833.852	16424
833.991	16379
834.129	16459
834.267	16443
834.406	16348
834.544	16432
834.682	16371
834.821	16348
834.959	16580
835.097	16314
835.235	16577
835.373	16356
835.511	16447
835.65	16379
835.788	16322
835.926	16162
836.064	16162
836.202	16181
836.34	16314
836.478	16470
836.615	16325
836.753	16413
836.891	16443
837.029	16394
837.167	16246
837.305	16280
837.443	16158
837.58	16086
837.718	16272
837.856	16154
837.993	16051
838.131	16200
838.269	16051
838.406	16109
838.544	16010
838.681	15831
838.819	15876
838.956	15690
839.094	15679
839.231	15808
839.369	15865
839.506	16181
839.643	16010
839.781	15793
839.918	15694
840.055	15698
840.193	15781
840.33	15778
840.467	15717
840.604	15747
840.742	16074
840.879	15671
841.016	15705
841.153	15622
841.29	15808
841.427	15827
841.564	15842
841.701	15694
841.838	15629
841.975	15606
842.112	15584
842.249	15534
842.385	15538
842.522	15694
842.659	15629
842.796	15545
842.933	15496
843.069	15450
843.206	15481
843.343	15618
843.479	15591
843.616	15534
843.752	15443
843.889	15367
844.025	15515
844.162	15382
844.298	15428
844.435	15355
844.571	15264
844.708	15397
844.844	15458
844.98	15553
845.117	15439
845.253	15344
845.389	15252
845.525	15306
845.661	15310
845.798	15058
845.934	15089
846.07	14975
846.206	15157
846.342	15302
846.478	15051
846.614	15024
846.75	14880
846.886	14823
847.022	14937
847.158	14887
847.294	14906
847.429	14971
847.565	14880
847.701	15157
847.837	14617
847.972	14606
848.108	14727
848.244	14640
848.379	14568
848.515	14533
848.65	14484
848.786	14545
848.921	14473
849.057	14579
849.192	14537
849.328	14560
849.463	14610
849.598	14495
849.734	14412
849.869	14313
850.004	14225
850.14	14298
850.275	14301
850.41	14119
850.545	14161
850.68	14191
850.815	14294
850.95	14309
851.085	14438
851.22	14385
851.355	14263
851.49	14244
851.625	14244
851.76	14248
851.895	14191
852.03	14123
852.165	14263
852.299	14252
852.434	14396
852.569	14317
852.703	14286
852.838	14313
852.973	14412
853.107	14385
853.242	14229
853.376	14237
853.511	13993
853.645	14123
853.78	14199
853.914	14202
854.048	14088
854.183	14069
854.317	14218
854.451	14423
854.585	14183
854.72	14043
854.854	14229
854.988	14107
855.122	14187
855.256	14008
855.39	14001
855.524	14286
855.658	14229
855.792	14202
855.926	14218
856.06	14233
856.194	14259
856.327	14168
856.461	14115
856.595	14043
856.729	14123
856.862	14115
856.996	14191
857.13	14199
857.263	14218
857.397	14183
857.53	14081
857.664	14164
857.797	14343
857.931	14240
858.064	14024
858.197	14225
858.331	14084
858.464	14043
858.597	13970
858.731	14142
858.864	14050
858.997	14149
859.13	14069
859.263	14191
859.396	14195
859.529	14081
859.662	14069
859.795	14027
859.928	14195
860.061	14199
860.194	14309
860.327	14130
860.46	14123
860.592	14195
860.725	14313
860.858	14210
860.99	14142
861.123	13989
861.256	14073
861.388	14058
861.521	14724
861.653	13982
861.786	13936
861.918	14065
862.05	14024
862.183	14039
862.315	14073
862.447	14103
862.58	14069
862.712	13917
862.844	13803
862.976	14016
863.108	13982
863.24	14309
863.372	13906
863.504	13818
863.636	13871
863.768	13951
863.9	13883
864.032	13879
864.164	13860
864.296	13791
864.428	14016
864.559	14027
864.691	14005
864.823	13925
864.954	13917
865.086	13951
865.217	13814
865.349	13898
865.48	13894
865.612	13974
865.743	14043
865.875	13883
866.006	13890
866.137	13883
866.269	13830
866.4	13883
866.531	13807
866.662	13822
866.793	13860
866.924	13818
867.055	13928
867.186	13852
867.317	13913
867.448	13746
867.579	13868
867.71	13742
867.841	13814
867.972	13944
868.103	13932
868.233	13887
868.364	13898
868.495	13902
868.625	14134
868.756	14199
868.886	14065
869.017	14149
869.147	14290
869.278	14225
869.408	14168
869.539	14123
869.669	14286
869.799	14202
869.929	14275
870.06	14339
870.19	14438
870.32	14404
870.45	14495
870.58	14492
870.71	14594
870.84	14636
870.97	14545
871.1	14629
871.23	14659
871.36	14735
871.489	14552
871.619	14705
871.749	14781
871.879	14716
872.008	14914
872.138	14765
872.267	14701
872.397	14602
872.526	14598
872.656	14530
872.785	14598
872.915	14731
873.044	14830
873.173	14826
873.303	14754
873.432	14834
873.561	14880
873.69	14762
873.819	14712
873.948	14823
874.077	14788
874.206	14864
874.335	14796
874.464	14967
874.593	15051
874.722	14975
874.851	15176
874.979	15180
875.108	15226
875.237	15066
875.365	14998
875.494	15222
875.623	15176
875.751	15070
875.88	15081
876.008	15332
876.136	15287
876.265	15492
876.393	15705
876.521	15709
876.65	15595
876.778	15488
876.906	15526
877.034	15454
877.162	15435
877.29	15477
877.418	15564
877.546	15572
877.674	15481
877.802	15534
877.93	15633
878.058	15603
878.185	15443
878.313	15561
878.441	15542
878.568	15435
878.696	15447
878.824	15496
878.951	15599
879.079	15732
879.206	15850
879.333	15656
879.461	15492
879.588	15572
879.715	15701
879.842	15831
879.97	15496
880.097	15348
880.224	15382
880.351	15416
880.478	15469
880.605	15382
880.732	15363
880.859	15667
880.986	15424
881.112	15397
881.239	15317
881.366	15138
881.493	15074
881.619	15017
881.746	15020
881.872	15020
881.999	14944
882.125	15116
882.252	15047
882.378	15005
882.505	15245
882.631	14925
882.757	14788
882.883	14944
883.01	14834
883.136	14765
883.262	14773
883.388	14708
883.514	14880
883.64	14819
883.766	14773
883.892	14689
884.018	14697
884.143	14864
884.269	14918
884.395	14629
884.52	14522
884.646	14560
884.772	14419
884.897	14507
885.023	14461
885.148	14621
885.274	14769
885.399	14659
885.524	14549
885.65	14549
885.775	14545
885.9	14610
886.025	14731
886.15	14625
886.275	14636
886.4	14408
886.525	14507
886.65	14442
886.775	14457
886.9	14674
887.025	14758
887.149	14617
887.274	14381
887.399	14347
887.523	14278
887.648	14362
887.773	14286
887.897	14434
888.021	14400
888.146	14309
888.27	14476
888.395	14446
888.519	14450
888.643	14423
888.767	14492
888.891	14199
889.015	14263
889.139	14301
889.263	14202
889.387	14343
889.511	14442
889.635	14408
889.759	14252
889.883	14225
890.006	14313
890.13	14374
890.254	14233
890.377	14153
890.501	14111
890.624	14031
890.748	14176
890.871	13951
890.995	13928
891.118	13822
891.241	14012
891.364	13947
891.488	13997
891.611	13947
891.734	13967
891.857	13974
891.98	14005
892.103	14081
892.226	13967
892.349	14012
892.471	13868
892.594	13913
892.717	13947
892.839	14069
892.962	13944
893.085	14069
893.207	13967
893.33	13837
893.452	13989
893.575	14012
893.697	13906
893.819	14164
893.941	14218
894.064	14065
894.186	13913
894.308	13928
894.43	14069
894.552	14168
894.674	14077
894.796	13917
894.918	13967
895.04	14069
895.161	14088
895.283	14050
895.405	13944
895.526	14092
895.648	14035
895.769	14130
895.891	14183
896.012	14119
896.134	14187
896.255	14119
896.376	14092
896.498	14103
896.619	14176
896.74	14115
896.861	14172
896.982	14511
897.103	14670
897.224	14461
897.345	14343
897.466	14336
897.587	14419
897.708	14564
897.828	14473
897.949	14374
898.07	14244
898.19	14396
898.311	14564
898.431	14450
898.552	14492
898.672	14568
898.792	14568
898.913	14476
899.033	14446
899.153	14404
899.273	14263
899.393	14419
899.513	14339
899.633	14339
899.753	14362
899.873	14278
899.993	14355
900.113	14229
900.232	14415
900.352	14229
900.472	14221
900.591	14271
900.711	14271
900.83	14180
900.95	14317
901.069	14301
901.189	14103
901.308	13890
901.427	13830
901.546	13795
901.665	13875
901.784	13951
901.904	13909
902.023	13708
902.141	13502
902.26	13438
902.379	13445
902.498	13457
902.617	13411
902.735	13472
902.854	13407
902.973	13441
903.091	13175
903.21	13145
903.328	13209
903.446	13099
903.565	12932
903.683	13012
903.801	12989
903.919	13053
904.038	13023
904.156	12863
904.274	12871
904.392	12852
904.51	12776
904.627	12833
904.745	12920
904.863	12894
904.981	12669
905.098	12448
905.216	12506
905.334	12631
905.451	12563
905.569	12540
905.686	12620
905.803	12456
905.921	12376
906.038	12429
906.155	12380
906.272	12201
906.389	12376
906.506	12076
906.623	12064
906.74	12136
906.857	11984
906.974	12030
907.091	12155
907.208	12285
907.324	12152
907.441	11961
907.557	11859
907.674	11783
907.79	11828
907.907	11809
908.023	11878
908.139	11832
908.256	11798
908.372	11817
908.488	11786
908.604	11638
908.72	11680
908.836	11638
908.952	11619
909.068	11668
909.184	11790
909.3	11642
909.415	11767
909.531	11604
909.647	11497
909.762	11452
909.878	11334
909.993	11440
910.108	11421
910.224	11334
910.339	11414
910.454	11330
910.57	11269
910.685	11189
910.8	11501
910.915	11501
911.03	11273
911.145	11147
911.259	11151
911.374	11140
911.489	11056
911.604	11006
911.718	10873
911.833	10942
911.947	10706
912.062	10683
912.176	10835
912.291	10816
912.405	10858
912.519	11109
912.633	11086
912.748	10976
912.862	10850
912.976	10755
913.09	10725
913.204	10736
913.318	10831
913.431	10831
913.545	10847
913.659	10805
913.772	10755
913.886	10588
914	10527
914.113	10744
914.226	10793
914.34	10755
914.453	10546
914.566	10717
914.68	10637
914.793	10611
914.906	10333
915.019	10325
915.132	10295
915.245	10398
915.358	10367
915.47	10386
915.583	10428
915.696	10432
915.809	10512
915.921	10500
916.034	10402
916.146	10318
916.259	10303
916.371	10451
916.483	10356
916.595	10295
916.708	10276
916.82	10409
916.932	10215
917.044	10322
917.156	10310
917.268	10181
917.38	10246
917.491	10185
917.603	10234
917.715	10329
917.826	10314
917.938	10253
918.049	10082
918.161	10158
918.272	10280
918.384	10367
918.495	10246
918.606	10124
918.717	9968
918.828	10158
918.939	10124
919.05	9972
919.161	10051
919.272	9903
919.383	10013
919.494	10109
919.604	10299
919.715	10131
919.826	10067
919.936	10044
920.047	10154
920.157	10181
920.267	10303
920.378	10223
920.488	10143
920.598	10375
920.708	10512
920.818	10390
920.928	10276
921.038	10466
921.148	10409
921.258	10169
921.368	10109
921.477	10029
921.587	9964
921.697	9835
921.806	9941
921.916	9915
922.025	9694
922.134	9720
922.244	9633
922.353	9743
922.462	9564
922.571	9466
922.68	9351
922.789	9397
922.898	9287
923.007	9294
923.116	9370
923.224	9431
923.333	9359
923.442	9294
923.55	9169
923.659	9211
923.767	9329
923.876	9192
923.984	9344
924.092	9188
924.201	9264
924.309	9260
924.417	9291
924.525	9188
924.633	9218
924.741	10139
924.849	8990
924.956	9146
925.064	9074
925.172	8921
925.279	8960
925.387	9055
925.494	9028
925.602	9245
925.709	9123
925.816	9001
925.924	9066
926.031	9176
926.138	9047
926.245	9039
926.352	8982
926.459	9116
926.566	9119
926.673	9017
926.779	8883
926.886	8956
926.993	8727
927.099	8811
927.206	8716
927.312	8754
927.419	8785
927.525	8766
927.631	8777
927.737	8766
927.843	8598
927.95	8552
928.056	8617
928.162	8663
928.267	8708
928.373	9279
928.479	8716
928.585	8495
928.69	8587
928.796	8712
928.901	8602
929.007	8400
929.112	8526
929.218	8499
929.323	8511
929.428	8488
929.533	8571
929.638	8396
929.743	8343
929.848	8503
929.953	8446
930.058	8358
930.163	8233
930.267	8229
930.372	8434
930.477	8237
930.581	8461
930.685	8374
930.79	8149
930.894	8176
930.998	8199
931.103	8317
931.207	8001
931.311	7898
931.415	7887
931.519	7734
931.623	7666
