Data from test_V78500241_416.txt Node
Date: Fri Mar 25 14:36:37 CST 2022
User: usil
Spectrometer: V785-0024
Trigger mode: 0
Integration Time (sec): 4.000000E-1
Scans to average: 1
Nonlinearity correction enabled: false
Boxcar width: 0
Storing dark spectrum: false
XAxis mode: Wavelengths
Number of Pixels in Spectrum: 1024
>>>>>Begin Spectral Data<<<<<
801.071	26552
801.214	26541
801.356	26244
801.499	26252
801.641	26206
801.783	25974
801.926	26176
802.068	26027
802.211	25963
802.353	25803
802.496	25693
802.638	25571
802.78	25700
802.923	25586
803.065	25552
803.208	25548
803.35	25556
803.492	25643
803.635	25662
803.777	25605
803.919	25677
804.061	25932
804.204	25658
804.346	25472
804.488	25434
804.63	25537
804.773	25571
804.915	25563
805.057	25712
805.199	25689
805.341	25616
805.483	25753
805.626	25529
805.768	25388
805.91	25582
806.052	25639
806.194	25468
806.336	25757
806.478	25575
806.62	25601
806.762	25841
806.904	25947
807.046	26043
807.188	25986
807.33	25955
807.472	26024
807.614	25875
807.756	25944
807.898	25822
808.04	25685
808.182	25674
808.324	25746
808.465	25696
808.607	25982
808.749	26164
808.891	26187
809.033	26218
809.174	26240
809.316	26107
809.458	26035
809.6	26119
809.741	26172
809.883	26176
810.025	26252
810.166	26290
810.308	26225
810.45	26320
810.591	26286
810.733	25944
810.875	25890
811.016	25974
811.158	25913
811.299	25887
811.441	26035
811.582	25894
811.724	25925
811.865	25955
812.007	26054
812.148	25864
812.29	25966
812.431	26111
812.573	26157
812.714	26278
812.855	26313
812.997	26317
813.138	26556
813.279	26438
813.421	26400
813.562	26221
813.703	26301
813.845	26084
813.986	25795
814.127	25685
814.268	25327
814.41	25639
814.551	25438
814.692	25441
814.833	25297
814.974	25422
815.115	25441
815.256	25308
815.397	25259
815.539	25362
815.68	25133
815.821	25168
815.962	25358
816.103	25221
816.244	24951
816.385	25034
816.526	24909
816.666	24798
816.807	24684
816.948	24665
817.089	24783
817.23	24620
817.371	24688
817.512	24608
817.653	24597
817.793	24498
817.934	24589
818.075	24536
818.216	24620
818.356	24631
818.497	24422
818.638	24281
818.778	24171
818.919	24285
819.06	24270
819.2	24483
819.341	24593
819.481	24563
819.622	24696
819.762	24703
819.903	24677
820.043	24521
820.184	24654
820.324	24639
820.465	24597
820.605	24623
820.746	24612
820.886	24426
821.026	24563
821.167	24570
821.307	24658
821.447	24505
821.588	24433
821.728	24315
821.868	24034
822.008	24011
822.149	23866
822.289	23908
822.429	23786
822.569	23634
822.709	23589
822.849	23273
822.99	23364
823.13	23284
823.27	23364
823.41	23258
823.55	23060
823.69	23307
823.83	23166
823.97	23162
824.11	22957
824.25	22889
824.389	22968
824.529	22904
824.669	22908
824.809	23056
824.949	23037
825.089	22949
825.228	22995
825.368	22763
825.508	22713
825.648	22736
825.787	22771
825.927	22713
826.067	22596
826.206	22725
826.346	22733
826.485	22721
826.625	22683
826.765	22915
826.904	22717
827.044	22466
827.183	22546
827.323	22386
827.462	22428
827.601	22386
827.741	22398
827.88	22421
828.02	22299
828.159	22291
828.298	22303
828.437	22504
828.577	22253
828.716	22599
828.855	22379
828.994	22173
829.134	22211
829.273	22124
829.412	22051
829.551	22074
829.69	22078
829.829	22036
829.968	22188
830.107	22143
830.246	22188
830.385	22166
830.524	21918
830.663	22090
830.802	21816
830.941	21736
831.08	21625
831.219	21781
831.357	21770
831.496	21972
831.635	21690
831.774	21538
831.913	21553
832.051	21435
832.19	21500
832.329	21389
832.467	21336
832.606	21302
832.744	21161
832.883	21477
833.022	21348
833.16	21393
833.299	21424
833.437	21291
833.576	21355
833.714	21180
833.852	21439
833.991	21496
834.129	21496
834.267	21325
834.406	21374
834.544	21355
834.682	21302
834.821	21378
834.959	21435
835.097	21310
835.235	21443
835.373	21367
835.511	21268
835.65	21157
835.788	21135
835.926	20933
836.064	20921
836.202	21028
836.34	21154
836.478	21272
836.615	21150
836.753	21165
836.891	21344
837.029	21112
837.167	21241
837.305	21119
837.443	21062
837.58	20994
837.718	21192
837.856	21074
837.993	21093
838.131	20990
838.269	20948
838.406	20937
838.544	20849
838.681	20651
838.819	20678
838.956	20674
839.094	20526
839.231	20602
839.369	20693
839.506	20902
839.643	20731
839.781	20393
839.918	20446
840.055	20556
840.193	20408
840.33	20400
840.467	20324
840.604	20442
840.742	20655
840.879	20252
841.016	20347
841.153	20290
841.29	20423
841.427	20530
841.564	20568
841.701	20374
841.838	20362
841.975	20221
842.112	20206
842.249	20111
842.385	20126
842.522	20187
842.659	20195
842.796	20176
842.933	20115
843.069	20157
843.206	20054
843.343	20233
843.479	20229
843.616	20172
843.752	19925
843.889	19955
844.025	20020
844.162	19887
844.298	19841
844.435	19959
844.571	19841
844.708	19890
844.844	20008
844.98	19978
845.117	19967
845.253	19784
845.389	19712
845.525	19738
845.661	19719
845.798	19727
845.934	19750
846.07	19609
846.206	19670
846.342	19830
846.478	19655
846.614	19384
846.75	19247
846.886	19350
847.022	19354
847.158	19563
847.294	19411
847.429	19403
847.565	19251
847.701	19472
847.837	19088
847.972	18958
848.108	19225
848.244	19061
848.379	18966
848.515	18867
848.65	18878
848.786	18837
848.921	19015
849.057	18985
849.192	19012
849.328	19023
849.463	18878
849.598	18798
849.734	18833
849.869	18814
850.004	18696
850.14	18608
850.275	18817
850.41	18620
850.545	18570
850.68	18650
850.815	18661
850.95	18673
851.085	18783
851.22	18764
851.355	18623
851.49	18646
851.625	18551
851.76	18536
851.895	18513
852.03	18475
852.165	18593
852.299	18642
852.434	18764
852.569	18646
852.703	18593
852.838	18570
852.973	18623
853.107	18696
853.242	18536
853.376	18536
853.511	18327
853.645	18338
853.78	18490
853.914	18509
854.048	18357
854.183	18418
854.317	18471
854.451	18601
854.585	18467
854.72	18433
854.854	18502
854.988	18380
855.122	18426
855.256	18369
855.39	18525
855.524	18509
855.658	18525
855.792	18494
855.926	18376
856.06	18585
856.194	18525
856.327	18418
856.461	18399
856.595	18422
856.729	18311
856.862	18585
856.996	18429
857.13	18578
857.263	18517
857.397	18517
857.53	18467
857.664	18369
857.797	18521
857.931	18540
858.064	18422
858.197	18574
858.331	18403
858.464	18467
858.597	18460
858.731	18429
858.864	18365
858.997	18384
859.13	18452
859.263	18460
859.396	18513
859.529	18403
859.662	18452
859.795	18456
859.928	18456
860.061	18559
860.194	18635
860.327	18612
860.46	18308
860.592	18475
860.725	18566
860.858	18532
860.99	18395
861.123	18315
861.256	18330
861.388	18414
861.521	19164
861.653	18140
861.786	18338
861.918	18262
862.05	18437
862.183	18448
862.315	18521
862.447	18433
862.58	18448
862.712	18186
862.844	18110
862.976	18361
863.108	18228
863.24	18597
863.372	18098
863.504	18213
863.636	18133
863.768	18174
863.9	18247
864.032	18110
864.164	18129
864.296	18254
864.428	18232
864.559	18239
864.691	18133
864.823	18178
864.954	18121
865.086	18079
865.217	18064
865.349	18091
865.48	18049
865.612	18178
865.743	18285
865.875	18133
866.006	18057
866.137	18136
866.269	18022
866.4	18022
866.531	18026
866.662	18026
866.793	17980
866.924	17950
867.055	18110
867.186	17950
867.317	18011
867.448	17882
867.579	17923
867.71	17923
867.841	18022
867.972	18045
868.103	17996
868.233	18121
868.364	17980
868.495	17999
868.625	18281
868.756	18330
868.886	18114
869.017	18277
869.147	18369
869.278	18273
869.408	18197
869.539	18243
869.669	18285
869.799	18190
869.929	18388
870.06	18437
870.19	18715
870.32	18475
870.45	18585
870.58	18616
870.71	18700
870.84	18688
870.97	18635
871.1	18673
871.23	18848
871.36	18890
871.489	18707
871.619	18844
871.749	18844
871.879	18776
872.008	18985
872.138	18905
872.267	18882
872.397	18692
872.526	18734
872.656	18582
872.785	18711
872.915	18802
873.044	18890
873.173	18837
873.303	18795
873.432	18943
873.561	18852
873.69	18916
873.819	18787
873.948	19019
874.077	18954
874.206	18932
874.335	18886
874.464	19050
874.593	19065
874.722	19137
874.851	19156
874.979	19183
875.108	19278
875.237	19141
875.365	19076
875.494	19221
875.623	19244
875.751	19023
875.88	19247
876.008	19168
876.136	19320
876.265	19597
876.393	19658
876.521	19731
876.65	19643
876.778	19590
876.906	19525
877.034	19552
877.162	19472
877.29	19537
877.418	19502
877.546	19571
877.674	19586
877.802	19483
877.93	19521
878.058	19483
878.185	19426
878.313	19476
878.441	19533
878.568	19502
878.696	19453
878.824	19575
878.951	19693
879.079	19719
879.206	19784
879.333	19719
879.461	19685
879.588	19628
879.715	19746
879.842	19822
879.97	19643
880.097	19346
880.224	19472
880.351	19415
880.478	19506
880.605	19411
880.732	19350
880.859	19582
880.986	19373
881.112	19430
881.239	19293
881.366	19171
881.493	19099
881.619	18916
881.746	19023
881.872	19057
881.999	19091
882.125	18878
882.252	19015
882.378	18916
882.505	19095
882.631	18897
882.757	18749
882.883	18863
883.01	18726
883.136	18749
883.262	18620
883.388	18593
883.514	18848
883.64	18779
883.766	18692
883.892	18506
884.018	18578
884.143	18696
884.269	18966
884.395	18536
884.52	18441
884.646	18403
884.772	18384
884.897	18353
885.023	18490
885.148	18582
885.274	18563
885.399	18601
885.524	18426
885.65	18384
885.775	18490
885.9	18456
886.025	18464
886.15	18547
886.275	18376
886.4	18292
886.525	18277
886.65	18338
886.775	18296
886.9	18646
887.025	18589
887.149	18475
887.274	18251
887.399	18174
887.523	18258
887.648	18102
887.773	18102
887.897	18258
888.021	18125
888.146	18133
888.27	18289
888.395	18361
888.519	18281
888.643	18178
888.767	18239
888.891	18178
889.015	17950
889.139	18053
889.263	18015
889.387	18072
889.511	18232
889.635	18136
889.759	18019
889.883	18011
890.006	18007
890.13	18163
890.254	17904
890.377	17969
890.501	17790
890.624	17764
890.748	17783
890.871	17691
890.995	17535
891.118	17505
891.241	17661
891.364	17642
891.488	17710
891.611	17634
891.734	17653
891.857	17767
891.98	17722
892.103	17608
892.226	17535
892.349	17619
892.471	17474
892.594	17627
892.717	17634
892.839	17611
892.962	17566
893.085	17691
893.207	17501
893.33	17387
893.452	17379
893.575	17672
893.697	17570
893.819	17786
893.941	17710
894.064	17661
894.186	17395
894.308	17592
894.43	17722
894.552	17687
894.674	17627
894.796	17596
894.918	17585
895.04	17482
895.161	17661
895.283	17665
895.405	17535
895.526	17623
895.648	17566
895.769	17611
895.891	17577
896.012	17741
896.134	17771
896.255	17642
896.376	17608
896.498	17684
896.619	17646
896.74	17646
896.861	17703
896.982	18079
897.103	18194
897.224	18019
897.345	17931
897.466	17832
897.587	17893
897.708	18041
897.828	17988
897.949	17840
898.07	17756
898.19	17866
898.311	17977
898.431	17813
898.552	17847
898.672	18026
898.792	17954
898.913	17802
899.033	17874
899.153	17691
899.273	17600
899.393	17668
899.513	17623
899.633	17661
899.753	17630
899.873	17634
899.993	17630
900.113	17649
900.232	17672
900.352	17611
900.472	17505
900.591	17474
900.711	17562
900.83	17429
900.95	17528
901.069	17630
901.189	17360
901.308	17124
901.427	17197
901.546	17090
901.665	17136
901.784	17212
901.904	17006
902.023	16869
902.141	16687
902.26	16660
902.379	16755
902.498	16611
902.617	16478
902.735	16630
902.854	16634
902.973	16565
903.091	16352
903.21	16344
903.328	16287
903.446	16253
903.565	16128
903.683	16071
903.801	16078
903.919	16101
904.038	16071
904.156	15979
904.274	16074
904.392	15789
904.51	15941
904.627	15998
904.745	15899
904.863	16040
904.981	15686
905.098	15595
905.216	15595
905.334	15542
905.451	15614
905.569	15568
905.686	15641
905.803	15469
905.921	15435
906.038	15576
906.155	15523
906.272	15272
906.389	15351
906.506	15093
906.623	15142
906.74	15154
906.857	15119
906.974	15116
907.091	15245
907.208	15211
907.324	15241
907.441	15013
907.557	15001
907.674	14952
907.79	14834
907.907	14785
908.023	14891
908.139	14845
908.256	14781
908.372	14800
908.488	14746
908.604	14590
908.72	14514
908.836	14457
908.952	14545
909.068	14625
909.184	14678
909.3	14533
909.415	14511
909.531	14545
909.647	14290
909.762	14286
909.878	14347
909.993	14282
910.108	14240
910.224	14275
910.339	14233
910.454	14168
910.57	14183
910.685	14005
910.8	14343
910.915	14233
911.03	14001
911.145	13906
911.259	13879
911.374	13913
911.489	13940
911.604	13772
911.718	13727
911.833	13616
911.947	13540
912.062	13495
912.176	13613
912.291	13548
912.405	13590
912.519	13803
912.633	13833
912.748	13708
912.862	13616
912.976	13556
913.09	13400
913.204	13457
913.318	13510
913.431	13597
913.545	13628
913.659	13624
913.772	13540
913.886	13343
914	13343
914.113	13365
914.226	13384
914.34	13415
914.453	13164
914.566	13476
914.68	13236
914.793	13164
914.906	13103
915.019	13000
915.132	12951
915.245	12970
915.358	12996
915.47	13110
915.583	13015
915.696	12951
915.809	13190
915.921	13099
916.034	13023
916.146	12909
916.259	12844
916.371	13000
916.483	13004
916.595	12859
916.708	12966
916.82	12875
916.932	12745
917.044	12897
917.156	12867
917.268	12768
917.38	12764
917.491	12650
917.603	12741
917.715	12947
917.826	12749
917.938	12681
918.049	12612
918.161	12722
918.272	12897
918.384	12833
918.495	12715
918.606	12555
918.717	12429
918.828	12585
918.939	12506
919.05	12483
919.161	12502
919.272	12334
919.383	12399
919.494	12544
919.604	12639
919.715	12498
919.826	12418
919.936	12353
920.047	12494
920.157	12547
920.267	12681
920.378	12517
920.488	12509
920.598	12627
920.708	12814
920.818	12593
920.928	12616
921.038	12825
921.148	12688
921.258	12551
921.368	12357
921.477	12254
921.587	12319
921.697	12133
921.806	12258
921.916	12171
922.025	11939
922.134	11980
922.244	11832
922.353	11977
922.462	11935
922.571	11733
922.68	11600
922.789	11657
922.898	11596
923.007	11573
923.116	11646
923.224	11608
923.333	11600
923.442	11463
923.55	11421
923.659	11406
923.767	11547
923.876	11414
923.984	11440
924.092	11364
924.201	11417
924.309	11356
924.417	11417
924.525	11307
924.633	11292
924.741	12220
924.849	11143
924.956	11277
925.064	11109
925.172	11189
925.279	11117
925.387	11170
925.494	11121
925.602	11208
925.709	11235
925.816	11083
925.924	11124
926.031	11216
926.138	11105
926.245	11265
926.352	11056
926.459	11181
926.566	11128
926.673	11029
926.779	10984
926.886	11010
926.993	10824
927.099	10774
927.206	10729
927.312	10801
927.419	10809
927.525	10782
927.631	10759
927.737	10748
927.843	10675
927.95	10527
928.056	10733
928.162	10641
928.267	10706
928.373	11303
928.479	10790
928.585	10500
928.69	10611
928.796	10645
928.901	10523
929.007	10508
929.112	10519
929.218	10451
929.323	10409
929.428	10489
929.533	10512
929.638	10367
929.743	10299
929.848	10432
929.953	10386
930.058	10291
930.163	10162
930.267	10109
930.372	10333
930.477	10074
930.581	10333
930.685	10154
930.79	9945
930.894	10074
930.998	10032
931.103	10063
931.207	9778
931.311	9755
931.415	9637
931.519	9466
931.623	9488
