Data from test_V78500241_3070.txt Node
Date: Fri Mar 25 14:55:05 CST 2022
User: usil
Spectrometer: V785-0024
Trigger mode: 0
Integration Time (sec): 4.000000E-1
Scans to average: 1
Nonlinearity correction enabled: false
Boxcar width: 0
Storing dark spectrum: false
XAxis mode: Wavelengths
Number of Pixels in Spectrum: 1024
>>>>>Begin Spectral Data<<<<<
801.071	21964
801.214	22105
801.356	21713
801.499	21580
801.641	21466
801.783	21416
801.926	21428
802.068	21428
802.211	21313
802.353	21119
802.496	21062
802.638	21017
802.78	20891
802.923	20804
803.065	20804
803.208	20651
803.35	20891
803.492	20834
803.635	20830
803.777	20804
803.919	20842
804.061	21131
804.204	20777
804.346	20686
804.488	20549
804.63	20773
804.773	20613
804.915	20648
805.057	20701
805.199	20594
805.341	20788
805.483	20853
805.626	20796
805.768	20625
805.91	20777
806.052	20716
806.194	20621
806.336	20849
806.478	20640
806.62	20575
806.762	20765
806.904	20899
807.046	21116
807.188	20998
807.33	20982
807.472	21070
807.614	20918
807.756	20933
807.898	20819
808.04	20678
808.182	20765
808.324	20807
808.465	20834
808.607	21051
808.749	21089
808.891	21169
809.033	21249
809.174	21173
809.316	21070
809.458	21138
809.6	21028
809.741	21142
809.883	21100
810.025	21173
810.166	21233
810.308	21211
810.45	21180
810.591	21039
810.733	20960
810.875	20941
811.016	20724
811.158	20807
811.299	20842
811.441	20887
811.582	20990
811.724	20804
811.865	20788
812.007	20792
812.148	20876
812.29	20792
812.431	20918
812.573	21146
812.714	21279
812.855	21321
812.997	21420
813.138	21511
813.279	21317
813.421	21272
813.562	21237
813.703	21055
813.845	20895
813.986	20693
814.127	20499
814.268	20469
814.41	20415
814.551	20423
814.692	20473
814.833	20229
814.974	20275
815.115	20427
815.256	20282
815.397	20176
815.539	20187
815.68	20024
815.821	19936
815.962	20092
816.103	20043
816.244	19890
816.385	19784
816.526	19769
816.666	19643
816.807	19548
816.948	19544
817.089	19605
817.23	19529
817.371	19537
817.512	19430
817.653	19476
817.793	19510
817.934	19510
818.075	19594
818.216	19460
818.356	19438
818.497	19289
818.638	19228
818.778	19263
818.919	19217
819.06	19183
819.2	19358
819.341	19396
819.481	19422
819.622	19548
819.762	19731
819.903	19624
820.043	19476
820.184	19476
820.324	19396
820.465	19525
820.605	19381
820.746	19308
820.886	19343
821.026	19537
821.167	19419
821.307	19434
821.447	19396
821.588	19316
821.728	19194
821.868	18951
822.008	18848
822.149	18741
822.289	18867
822.429	18707
822.569	18525
822.709	18566
822.849	18399
822.99	18369
823.13	18258
823.27	18319
823.41	18201
823.55	18171
823.69	18209
823.83	18201
823.97	18045
824.11	17920
824.25	17897
824.389	17992
824.529	18026
824.669	17973
824.809	17954
824.949	18140
825.089	17958
825.228	17984
825.368	17687
825.508	17748
825.648	17748
825.787	17863
825.927	17840
826.067	17577
826.206	17638
826.346	17733
826.485	17748
826.625	17703
826.765	17828
826.904	17718
827.044	17490
827.183	17376
827.323	17337
827.462	17547
827.601	17379
827.741	17459
827.88	17463
828.02	17318
828.159	17360
828.298	17474
828.437	17474
828.577	17436
828.716	17608
828.855	17383
828.994	17140
829.134	17193
829.273	17185
829.412	17140
829.551	17147
829.69	17216
829.829	17204
829.968	17387
830.107	17246
830.246	17197
830.385	17094
830.524	17064
830.663	16957
830.802	16991
830.941	16778
831.08	16801
831.219	16858
831.357	16965
831.496	17067
831.635	16755
831.774	16603
831.913	16729
832.051	16523
832.19	16550
832.329	16622
832.467	16523
832.606	16409
832.744	16485
832.883	16337
833.022	16440
833.16	16527
833.299	16432
833.437	16470
833.576	16554
833.714	16508
833.852	16432
833.991	16603
834.129	16588
834.267	16519
834.406	16550
834.544	16577
834.682	16622
834.821	16596
834.959	16664
835.097	16462
835.235	16599
835.373	16550
835.511	16675
835.65	16489
835.788	16508
835.926	16223
836.064	16226
836.202	16318
836.34	16497
836.478	16580
836.615	16405
836.753	16394
836.891	16550
837.029	16432
837.167	16344
837.305	16398
837.443	16367
837.58	16211
837.718	16360
837.856	16265
837.993	16348
838.131	16207
838.269	16211
838.406	16219
838.544	16162
838.681	16006
838.819	15899
838.956	15899
839.094	15812
839.231	15846
839.369	16036
839.506	16181
839.643	16086
839.781	15953
839.918	15816
840.055	15850
840.193	15759
840.33	15850
840.467	15850
840.604	15808
840.742	16169
840.879	15686
841.016	15717
841.153	15804
841.29	15918
841.427	15911
841.564	15865
841.701	15880
841.838	15774
841.975	15732
842.112	15789
842.249	15622
842.385	15652
842.522	15793
842.659	15572
842.796	15663
842.933	15625
843.069	15511
843.206	15580
843.343	15717
843.479	15538
843.616	15595
843.752	15420
843.889	15469
844.025	15526
844.162	15370
844.298	15515
844.435	15382
844.571	15222
844.708	15435
844.844	15412
844.98	15599
845.117	15504
845.253	15329
845.389	15287
845.525	15355
845.661	15260
845.798	15131
845.934	15279
846.07	15207
846.206	15317
846.342	15317
846.478	15157
846.614	15009
846.75	14834
846.886	14914
847.022	15036
847.158	14967
847.294	14960
847.429	15032
847.565	14948
847.701	15146
847.837	14716
847.972	14670
848.108	14861
848.244	14762
848.379	14575
848.515	14541
848.65	14484
848.786	14575
848.921	14564
849.057	14617
849.192	14693
849.328	14560
849.463	14617
849.598	14587
849.734	14465
849.869	14419
850.004	14385
850.14	14450
850.275	14396
850.41	14286
850.545	14385
850.68	14275
850.815	14396
850.95	14408
851.085	14457
851.22	14522
851.355	14202
851.49	14324
851.625	14290
851.76	14339
851.895	14229
852.03	14229
852.165	14248
852.299	14328
852.434	14381
852.569	14427
852.703	14454
852.838	14415
852.973	14473
853.107	14522
853.242	14355
853.376	14225
853.511	14138
853.645	14191
853.78	14275
853.914	14180
854.048	14119
854.183	14183
854.317	14187
854.451	14389
854.585	14195
854.72	14214
854.854	14271
854.988	14096
855.122	14202
855.256	14096
855.39	14282
855.524	14366
855.658	14286
855.792	14320
855.926	14259
856.06	14278
856.194	14366
856.327	14225
856.461	14126
856.595	14138
856.729	14142
856.862	14294
856.996	14278
857.13	14256
857.263	14324
857.397	14259
857.53	14199
857.664	14290
857.797	14374
857.931	14275
858.064	14244
858.197	14374
858.331	14149
858.464	14221
858.597	14065
858.731	14187
858.864	14244
858.997	14119
859.13	14191
859.263	14259
859.396	14282
859.529	14218
859.662	14031
859.795	14195
859.928	14328
860.061	14282
860.194	14324
860.327	14069
860.46	14225
860.592	14301
860.725	14355
860.858	14282
860.99	14309
861.123	14233
861.256	14252
861.388	14195
861.521	14944
861.653	14138
861.786	14107
861.918	14111
862.05	14107
862.183	14183
862.315	14161
862.447	14240
862.58	14172
862.712	13989
862.844	13986
862.976	14039
863.108	14065
863.24	14358
863.372	13913
863.504	13883
863.636	14016
863.768	14008
863.9	14046
864.032	13875
864.164	13951
864.296	13967
864.428	14046
864.559	14100
864.691	14050
864.823	14016
864.954	14043
865.086	14088
865.217	13955
865.349	13921
865.48	13963
865.612	14073
865.743	14039
865.875	13890
866.006	13898
866.137	13936
866.269	13955
866.4	13955
866.531	13913
866.662	13936
866.793	14005
866.924	13970
867.055	14001
867.186	13887
867.317	13879
867.448	13879
867.579	13898
867.71	13970
867.841	13909
867.972	13925
868.103	13947
868.233	13894
868.364	13967
868.495	14058
868.625	14218
868.756	14248
868.886	14092
869.017	14202
869.147	14309
869.278	14267
869.408	14180
869.539	14161
869.669	14351
869.799	14301
869.929	14320
870.06	14320
870.19	14590
870.32	14446
870.45	14556
870.58	14571
870.71	14689
870.84	14689
870.97	14625
871.1	14568
871.23	14849
871.36	14788
871.489	14678
871.619	14731
871.749	14834
871.879	14891
872.008	14864
872.138	14838
872.267	14864
872.397	14739
872.526	14678
872.656	14689
872.785	14678
872.915	14914
873.044	14918
873.173	14800
873.303	14895
873.432	14849
873.561	14906
873.69	14853
873.819	14963
873.948	14906
874.077	14902
874.206	14842
874.335	14792
874.464	15047
874.593	15241
874.722	15074
874.851	15226
874.979	15249
875.108	15154
875.237	15180
875.365	15070
875.494	15119
875.623	15332
875.751	15176
875.88	15195
876.008	15336
876.136	15389
876.265	15587
876.393	15713
876.521	15682
876.65	15618
876.778	15694
876.906	15564
877.034	15492
877.162	15519
877.29	15469
877.418	15599
877.546	15549
877.674	15622
877.802	15625
877.93	15523
878.058	15519
878.185	15534
878.313	15481
878.441	15606
878.568	15386
878.696	15507
878.824	15561
878.951	15568
879.079	15648
879.206	15975
879.333	15778
879.461	15656
879.588	15667
879.715	15759
879.842	15842
879.97	15709
880.097	15469
880.224	15507
880.351	15488
880.478	15439
880.605	15370
880.732	15420
880.859	15743
880.986	15435
881.112	15507
881.239	15291
881.366	15195
881.493	15154
881.619	14998
881.746	15089
881.872	15047
881.999	15146
882.125	15161
882.252	15245
882.378	15169
882.505	15291
882.631	15024
882.757	14960
882.883	14986
883.01	14891
883.136	14941
883.262	14826
883.388	14682
883.514	14918
883.64	14937
883.766	14857
883.892	14731
884.018	14834
884.143	14941
884.269	15001
884.395	14648
884.52	14583
884.646	14640
884.772	14617
884.897	14499
885.023	14636
885.148	14674
885.274	14746
885.399	14823
885.524	14617
885.65	14667
885.775	14648
885.9	14651
886.025	14746
886.15	14693
886.275	14617
886.4	14518
886.525	14549
886.65	14602
886.775	14560
886.9	14739
887.025	14815
887.149	14571
887.274	14434
887.399	14427
887.523	14419
887.648	14393
887.773	14473
887.897	14530
888.021	14549
888.146	14400
888.27	14583
888.395	14575
888.519	14571
888.643	14503
888.767	14571
888.891	14381
889.015	14191
889.139	14332
889.263	14309
889.387	14393
889.511	14530
889.635	14492
889.759	14301
889.883	14259
890.006	14309
890.13	14427
890.254	14317
890.377	14343
890.501	14092
890.624	14100
890.748	14244
890.871	14084
890.995	13917
891.118	13890
891.241	14020
891.364	14031
891.488	14058
891.611	14050
891.734	13978
891.857	14084
891.98	14005
892.103	14088
892.226	14039
892.349	14024
892.471	13951
892.594	13997
892.717	14027
892.839	13967
892.962	14050
893.085	14046
893.207	14043
893.33	13917
893.452	13925
893.575	14062
893.697	14027
893.819	14191
893.941	14210
894.064	14221
894.186	14058
894.308	14001
894.43	14195
894.552	14294
894.674	14176
894.796	13982
894.918	14065
895.04	14077
895.161	14149
895.283	14233
895.405	14058
895.526	14183
895.648	14065
895.769	14225
895.891	14278
896.012	14172
896.134	14309
896.255	14145
896.376	14244
896.498	14088
896.619	14187
896.74	14176
896.861	14164
896.982	14556
897.103	14629
897.224	14545
897.345	14374
897.466	14313
897.587	14537
897.708	14602
897.828	14488
897.949	14503
898.07	14305
898.19	14461
898.311	14610
898.431	14552
898.552	14434
898.672	14667
898.792	14556
898.913	14541
899.033	14511
899.153	14389
899.273	14355
899.393	14362
899.513	14499
899.633	14412
899.753	14415
899.873	14317
899.993	14427
900.113	14484
900.232	14507
900.352	14442
900.472	14343
900.591	14244
900.711	14256
900.83	14115
900.95	14389
901.069	14343
901.189	14130
901.308	14039
901.427	13894
901.546	13906
901.665	14005
901.784	14020
901.904	13849
902.023	13776
902.141	13601
902.26	13502
902.379	13537
902.498	13426
902.617	13483
902.735	13506
902.854	13499
902.973	13434
903.091	13156
903.21	13225
903.328	13350
903.446	13217
903.565	13046
903.683	13050
903.801	13031
903.919	13145
904.038	13000
904.156	12878
904.274	12996
904.392	12829
904.51	12894
904.627	12909
904.745	12954
904.863	12958
904.981	12753
905.098	12635
905.216	12532
905.334	12665
905.451	12585
905.569	12692
905.686	12707
905.803	12623
905.921	12388
906.038	12486
906.155	12460
906.272	12338
906.389	12304
906.506	12110
906.623	12140
906.74	12224
906.857	12110
906.974	12098
907.091	12232
907.208	12270
907.324	12247
907.441	12079
907.557	11939
907.674	11920
907.79	11824
907.907	11931
908.023	11893
908.139	11885
908.256	11794
908.372	11882
908.488	11855
908.604	11710
908.72	11623
908.836	11668
908.952	11600
909.068	11745
909.184	11874
909.3	11718
909.415	11707
909.531	11646
909.647	11619
909.762	11440
909.878	11471
909.993	11478
910.108	11406
910.224	11440
910.339	11421
910.454	11315
910.57	11242
910.685	11258
910.8	11455
910.915	11376
911.03	11318
911.145	11220
911.259	11064
911.374	11086
911.489	11048
911.604	11105
911.718	10923
911.833	10949
911.947	10778
912.062	10767
912.176	10896
912.291	10942
912.405	10915
912.519	11113
912.633	11113
912.748	10991
912.862	10889
912.976	10774
913.09	10729
913.204	10744
913.318	10752
913.431	10862
913.545	10854
913.659	10885
913.772	10793
913.886	10634
914	10664
914.113	10801
914.226	10812
914.34	10702
914.453	10596
914.566	10755
914.68	10653
914.793	10596
914.906	10436
915.019	10409
915.132	10322
915.245	10405
915.358	10413
915.47	10485
915.583	10462
915.696	10523
915.809	10603
915.921	10675
916.034	10478
916.146	10379
916.259	10352
916.371	10417
916.483	10466
916.595	10371
916.708	10337
916.82	10386
916.932	10382
917.044	10337
917.156	10379
917.268	10211
917.38	10287
917.491	10196
917.603	10253
917.715	10344
917.826	10291
917.938	10310
918.049	10139
918.161	10280
918.272	10451
918.384	10413
918.495	10295
918.606	10086
918.717	10105
918.828	10112
918.939	10116
919.05	10032
919.161	10090
919.272	9926
919.383	10040
919.494	10169
919.604	10306
919.715	10112
919.826	10086
919.936	10059
920.047	10276
920.157	10097
920.267	10322
920.378	10169
920.488	10219
920.598	10337
920.708	10504
920.818	10284
920.928	10299
921.038	10637
921.148	10459
921.258	10090
921.368	10150
921.477	10105
921.587	10006
921.697	9816
921.806	10006
921.916	9861
922.025	9740
922.134	9743
922.244	9690
922.353	9740
922.462	9587
922.571	9561
922.68	9408
922.789	9412
922.898	9405
923.007	9416
923.116	9435
923.224	9450
923.333	9424
923.442	9294
923.55	9237
923.659	9306
923.767	9321
923.876	9268
923.984	9329
924.092	9192
924.201	9207
924.309	9279
924.417	9291
924.525	9184
924.633	9302
924.741	10154
924.849	8963
924.956	9154
925.064	9058
925.172	8982
925.279	8975
925.387	9077
925.494	9047
925.602	9165
925.709	9081
925.816	9024
925.924	9097
926.031	9138
926.138	9097
926.245	9211
926.352	9005
926.459	9116
926.566	9226
926.673	9047
926.779	8937
926.886	8960
926.993	8830
927.099	8758
927.206	8727
927.312	8720
927.419	8777
927.525	8746
927.631	8819
927.737	8682
927.843	8686
927.95	8564
928.056	8708
928.162	8693
928.267	8705
928.373	9306
928.479	8842
928.585	8579
928.69	8743
928.796	8754
928.901	8575
929.007	8514
929.112	8621
929.218	8560
929.323	8526
929.428	8545
929.533	8644
929.638	8465
929.743	8469
929.848	8564
929.953	8549
930.058	8393
930.163	8305
930.267	8267
930.372	8377
930.477	8248
930.581	8541
930.685	8351
930.79	8259
930.894	8263
930.998	8134
931.103	8317
931.207	7997
931.311	7967
931.415	7871
931.519	7708
931.623	7685
