Data from test_V78500241_2586.txt Node
Date: Fri Mar 25 14:51:43 CST 2022
User: usil
Spectrometer: V785-0024
Trigger mode: 0
Integration Time (sec): 4.000000E-1
Scans to average: 1
Nonlinearity correction enabled: false
Boxcar width: 0
Storing dark spectrum: false
XAxis mode: Wavelengths
Number of Pixels in Spectrum: 1024
>>>>>Begin Spectral Data<<<<<
801.071	22002
801.214	21888
801.356	21736
801.499	21618
801.641	21336
801.783	21370
801.926	21523
802.068	21344
802.211	21344
802.353	21230
802.496	21039
802.638	20914
802.78	20842
802.923	20739
803.065	20636
803.208	20815
803.35	20731
803.492	20845
803.635	20746
803.777	20750
803.919	20788
804.061	21070
804.204	20815
804.346	20716
804.488	20507
804.63	20773
804.773	20629
804.915	20583
805.057	20750
805.199	20663
805.341	20659
805.483	20739
805.626	20697
805.768	20606
805.91	20659
806.052	20663
806.194	20590
806.336	20731
806.478	20651
806.62	20484
806.762	20701
806.904	20845
807.046	21116
807.188	20982
807.33	21013
807.472	21039
807.614	20781
807.756	20963
807.898	20750
808.04	20762
808.182	20594
808.324	20712
808.465	20663
808.607	20792
808.749	20929
808.891	21036
809.033	21142
809.174	21123
809.316	21013
809.458	20982
809.6	21070
809.741	21085
809.883	20937
810.025	21009
810.166	21275
810.308	21081
810.45	21157
810.591	21074
810.733	20979
810.875	20743
811.016	20727
811.158	20796
811.299	20830
811.441	20887
811.582	20967
811.724	20781
811.865	20765
812.007	20670
812.148	20899
812.29	20883
812.431	20864
812.573	21028
812.714	21192
812.855	21218
812.997	21378
813.138	21523
813.279	21363
813.421	21310
813.562	21165
813.703	21127
813.845	20872
813.986	20632
814.127	20549
814.268	20336
814.41	20370
814.551	20377
814.692	20366
814.833	20183
814.974	20317
815.115	20400
815.256	20206
815.397	20259
815.539	20126
815.68	20054
815.821	20065
815.962	20081
816.103	20039
816.244	19993
816.385	19776
816.526	19799
816.666	19734
816.807	19552
816.948	19556
817.089	19632
817.23	19537
817.371	19540
817.512	19499
817.653	19510
817.793	19324
817.934	19578
818.075	19483
818.216	19533
818.356	19426
818.497	19289
818.638	19088
818.778	19061
818.919	19122
819.06	19141
819.2	19350
819.341	19304
819.481	19316
819.622	19495
819.762	19468
819.903	19563
820.043	19556
820.184	19335
820.324	19468
820.465	19499
820.605	19464
820.746	19422
820.886	19308
821.026	19369
821.167	19369
821.307	19441
821.447	19316
821.588	19320
821.728	19129
821.868	18993
822.008	18882
822.149	18905
822.289	18848
822.429	18658
822.569	18631
822.709	18532
822.849	18456
822.99	18319
823.13	18232
823.27	18194
823.41	18209
823.55	18110
823.69	18174
823.83	18171
823.97	18083
824.11	17984
824.25	17946
824.389	17923
824.529	17931
824.669	18022
824.809	18102
824.949	17996
825.089	18015
825.228	17965
825.368	17707
825.508	17779
825.648	17687
825.787	17809
825.927	17722
826.067	17672
826.206	17699
826.346	17687
826.485	17714
826.625	17604
826.765	17802
826.904	17824
827.044	17452
827.183	17455
827.323	17261
827.462	17417
827.601	17414
827.741	17311
827.88	17345
828.02	17284
828.159	17330
828.298	17459
828.437	17505
828.577	17349
828.716	17463
828.855	17303
828.994	17204
829.134	17132
829.273	17185
829.412	17079
829.551	17113
829.69	17124
829.829	17136
829.968	17193
830.107	17200
830.246	17162
830.385	17136
830.524	17010
830.663	17006
830.802	16927
830.941	16835
831.08	16675
831.219	16831
831.357	16900
831.496	16991
831.635	16782
831.774	16694
831.913	16611
832.051	16478
832.19	16577
832.329	16546
832.467	16546
832.606	16516
832.744	16405
832.883	16542
833.022	16500
833.16	16428
833.299	16478
833.437	16569
833.576	16558
833.714	16500
833.852	16592
833.991	16618
834.129	16596
834.267	16588
834.406	16428
834.544	16588
834.682	16558
834.821	16436
834.959	16675
835.097	16504
835.235	16729
835.373	16588
835.511	16546
835.65	16478
835.788	16436
835.926	16188
836.064	16306
836.202	16295
836.34	16432
836.478	16535
836.615	16337
836.753	16447
836.891	16596
837.029	16402
837.167	16318
837.305	16322
837.443	16310
837.58	16303
837.718	16295
837.856	16371
837.993	16329
838.131	16299
838.269	16272
838.406	16253
838.544	16154
838.681	15972
838.819	15915
838.956	15941
839.094	15835
839.231	15895
839.369	15960
839.506	16226
839.643	16067
839.781	15873
839.918	15888
840.055	15903
840.193	15892
840.33	15907
840.467	15831
840.604	15850
840.742	16150
840.879	15751
841.016	15724
841.153	15808
841.29	15907
841.427	15854
841.564	15895
841.701	15884
841.838	15895
841.975	15816
842.112	15781
842.249	15701
842.385	15488
842.522	15873
842.659	15698
842.796	15660
842.933	15713
843.069	15603
843.206	15496
843.343	15759
843.479	15591
843.616	15709
843.752	15435
843.889	15393
844.025	15462
844.162	15367
844.298	15401
844.435	15374
844.571	15412
844.708	15500
844.844	15618
844.98	15644
845.117	15500
845.253	15340
845.389	15321
845.525	15378
845.661	15226
845.798	15233
845.934	15192
846.07	15188
846.206	15260
846.342	15340
846.478	15279
846.614	15089
846.75	15051
846.886	15074
847.022	15070
847.158	15032
847.294	15005
847.429	14982
847.565	14925
847.701	15218
847.837	14788
847.972	14735
848.108	14773
848.244	14758
848.379	14670
848.515	14511
848.65	14514
848.786	14579
848.921	14590
849.057	14716
849.192	14674
849.328	14598
849.463	14663
849.598	14545
849.734	14530
849.869	14556
850.004	14408
850.14	14454
850.275	14309
850.41	14248
850.545	14301
850.68	14393
850.815	14347
850.95	14427
851.085	14507
851.22	14545
851.355	14351
851.49	14389
851.625	14320
851.76	14301
851.895	14290
852.03	14252
852.165	14290
852.299	14419
852.434	14412
852.569	14415
852.703	14423
852.838	14469
852.973	14480
853.107	14537
853.242	14347
853.376	14305
853.511	14164
853.645	14256
853.78	14305
853.914	14161
854.048	14252
854.183	14168
854.317	14294
854.451	14514
854.585	14199
854.72	14210
854.854	14256
854.988	14126
855.122	14191
855.256	14077
855.39	14153
855.524	14366
855.658	14294
855.792	14259
855.926	14290
856.06	14248
856.194	14389
856.327	14195
856.461	14134
856.595	14176
856.729	14206
856.862	14404
856.996	14275
857.13	14301
857.263	14278
857.397	14454
857.53	14221
857.664	14313
857.797	14317
857.931	14339
858.064	14324
858.197	14278
858.331	14183
858.464	14149
858.597	14126
858.731	14271
858.864	14206
858.997	14210
859.13	14278
859.263	14233
859.396	14305
859.529	14195
859.662	14237
859.795	14244
859.928	14347
860.061	14457
860.194	14290
860.327	14278
860.46	14298
860.592	14286
860.725	14282
860.858	14317
860.99	14259
861.123	14218
861.256	14126
861.388	14309
861.521	14823
861.653	14149
861.786	13986
861.918	14153
862.05	14142
862.183	14111
862.315	14248
862.447	14248
862.58	14210
862.712	14039
862.844	13986
862.976	14073
863.108	14016
863.24	14480
863.372	14039
863.504	13921
863.636	14024
863.768	14005
863.9	14092
864.032	14016
864.164	14008
864.296	14024
864.428	14115
864.559	14145
864.691	14069
864.823	14027
864.954	14077
865.086	14134
865.217	14039
865.349	14046
865.48	14058
865.612	14058
865.743	14183
865.875	14031
866.006	14024
866.137	14027
866.269	14039
866.4	13986
866.531	13944
866.662	13986
866.793	14001
866.924	13936
867.055	14016
867.186	13997
867.317	14035
867.448	13921
867.579	13947
867.71	13917
867.841	14024
867.972	13986
868.103	14012
868.233	14016
868.364	14103
868.495	14062
868.625	14252
868.756	14347
868.886	14195
869.017	14263
869.147	14320
869.278	14415
869.408	14317
869.539	14278
869.669	14286
869.799	14278
869.929	14370
870.06	14355
870.19	14598
870.32	14617
870.45	14667
870.58	14686
870.71	14697
870.84	14682
870.97	14644
871.1	14621
871.23	14906
871.36	14842
871.489	14720
871.619	14781
871.749	14872
871.879	14834
872.008	14960
872.138	14868
872.267	14849
872.397	14750
872.526	14697
872.656	14670
872.785	14640
872.915	14861
873.044	14910
873.173	14857
873.303	14975
873.432	14929
873.561	14952
873.69	14868
873.819	14918
873.948	15036
874.077	14891
874.206	14876
874.335	14857
874.464	15150
874.593	15211
874.722	15131
874.851	15268
874.979	15203
875.108	15161
875.237	15077
875.365	14998
875.494	15066
875.623	15306
875.751	15211
875.88	15165
876.008	15397
876.136	15488
876.265	15511
876.393	15808
876.521	15789
876.65	15743
876.778	15675
876.906	15580
877.034	15580
877.162	15572
877.29	15576
877.418	15584
877.546	15576
877.674	15591
877.802	15660
877.93	15614
878.058	15656
878.185	15564
878.313	15568
878.441	15614
878.568	15538
878.696	15614
878.824	15618
878.951	15622
879.079	15831
879.206	15926
879.333	15789
879.461	15690
879.588	15736
879.715	15892
879.842	15911
879.97	15732
880.097	15412
880.224	15549
880.351	15485
880.478	15485
880.605	15435
880.732	15389
880.859	15789
880.986	15587
881.112	15553
881.239	15355
881.366	15241
881.493	15131
881.619	15150
881.746	15222
881.872	15184
881.999	15081
882.125	15157
882.252	15214
882.378	15195
882.505	15241
882.631	15127
882.757	14887
882.883	14998
883.01	14910
883.136	14906
883.262	14819
883.388	14883
883.514	14887
883.64	15005
883.766	14864
883.892	14750
884.018	14842
884.143	14956
884.269	15043
884.395	14674
884.52	14640
884.646	14659
884.772	14632
884.897	14636
885.023	14724
885.148	14743
885.274	14788
885.399	14724
885.524	14765
885.65	14724
885.775	14697
885.9	14670
886.025	14807
886.15	14826
886.275	14541
886.4	14583
886.525	14617
886.65	14575
886.775	14575
886.9	14743
887.025	14899
887.149	14648
887.274	14454
887.399	14484
887.523	14469
887.648	14446
887.773	14347
887.897	14594
888.021	14530
888.146	14408
888.27	14541
888.395	14488
888.519	14492
888.643	14587
888.767	14514
888.891	14408
889.015	14366
889.139	14404
889.263	14355
889.387	14457
889.511	14587
889.635	14488
889.759	14317
889.883	14355
890.006	14393
890.13	14408
890.254	14305
890.377	14320
890.501	14191
890.624	14161
890.748	14206
890.871	14073
890.995	14024
891.118	13982
891.241	14081
891.364	14092
891.488	14130
891.611	14005
891.734	13970
891.857	14069
891.98	14050
892.103	14191
892.226	14176
892.349	14008
892.471	13890
892.594	14096
892.717	14054
892.839	13970
892.962	14100
893.085	14123
893.207	13967
893.33	13951
893.452	13986
893.575	14096
893.697	14012
893.819	14252
893.941	14252
894.064	14187
894.186	14008
894.308	13974
894.43	14252
894.552	14282
894.674	14138
894.796	14050
894.918	14138
895.04	14119
895.161	14149
895.283	14256
895.405	14100
895.526	14221
895.648	14225
895.769	14240
895.891	14153
896.012	14362
896.134	14263
896.255	14271
896.376	14267
896.498	14271
896.619	14248
896.74	14290
896.861	14267
896.982	14552
897.103	14804
897.224	14522
897.345	14533
897.466	14450
897.587	14537
897.708	14602
897.828	14564
897.949	14480
898.07	14419
898.19	14431
898.311	14682
898.431	14469
898.552	14545
898.672	14655
898.792	14651
898.913	14651
899.033	14575
899.153	14434
899.273	14427
899.393	14389
899.513	14461
899.633	14499
899.753	14446
899.873	14374
899.993	14446
900.113	14469
900.232	14469
900.352	14332
900.472	14324
900.591	14309
900.711	14343
900.83	14290
900.95	14457
901.069	14336
901.189	14202
901.308	14092
901.427	13978
901.546	13959
901.665	13932
901.784	13959
901.904	13879
902.023	13837
902.141	13643
902.26	13449
902.379	13620
902.498	13502
902.617	13491
902.735	13655
902.854	13578
902.973	13434
903.091	13285
903.21	13263
903.328	13278
903.446	13187
903.565	13129
903.683	13133
903.801	13008
903.919	13175
904.038	13065
904.156	12973
904.274	12958
904.392	12920
904.51	12897
904.627	12951
904.745	12939
904.863	12935
904.981	12726
905.098	12582
905.216	12547
905.334	12696
905.451	12669
905.569	12612
905.686	12650
905.803	12566
905.921	12525
906.038	12433
906.155	12403
906.272	12372
906.389	12346
906.506	12232
906.623	12136
906.74	12148
906.857	12121
906.974	12182
907.091	12315
907.208	12285
907.324	12258
907.441	12102
907.557	11923
907.674	11977
907.79	11980
907.907	11920
908.023	12026
908.139	11973
908.256	11950
908.372	11942
908.488	11878
908.604	11794
908.72	11600
908.836	11771
908.952	11661
909.068	11657
909.184	11764
909.3	11752
909.415	11733
909.531	11802
909.647	11467
909.762	11467
909.878	11406
909.993	11478
910.108	11501
910.224	11467
910.339	11402
910.454	11395
910.57	11311
910.685	11239
910.8	11493
910.915	11463
911.03	11398
911.145	11220
911.259	11250
911.374	11201
911.489	11136
911.604	11105
911.718	10938
911.833	10927
911.947	10877
912.062	10771
912.176	10953
912.291	10885
912.405	10915
912.519	11166
912.633	11178
912.748	10995
912.862	10976
912.976	10805
913.09	10793
913.204	10733
913.318	10938
913.431	10965
913.545	10866
913.659	10942
913.772	10828
913.886	10691
914	10664
914.113	10797
914.226	10869
914.34	10881
914.453	10710
914.566	10752
914.68	10596
914.793	10626
914.906	10519
915.019	10371
915.132	10428
915.245	10443
915.358	10447
915.47	10478
915.583	10516
915.696	10478
915.809	10615
915.921	10588
916.034	10451
916.146	10379
916.259	10428
916.371	10573
916.483	10428
916.595	10405
916.708	10386
916.82	10398
916.932	10371
917.044	10287
917.156	10333
917.268	10204
917.38	10299
917.491	10344
917.603	10352
917.715	10386
917.826	10390
917.938	10295
918.049	10139
918.161	10386
918.272	10440
918.384	10398
918.495	10333
918.606	10109
918.717	10067
918.828	10120
918.939	10166
919.05	10051
919.161	10067
919.272	9991
919.383	10071
919.494	10219
919.604	10481
919.715	10207
919.826	10124
919.936	10177
920.047	10238
920.157	10124
920.267	10303
920.378	10276
920.488	10211
920.598	10405
920.708	10546
920.818	10436
920.928	10371
921.038	10489
921.148	10577
921.258	10249
921.368	10177
921.477	10002
921.587	10128
921.697	10006
921.806	10040
921.916	9968
922.025	9823
922.134	9797
922.244	9610
922.353	9770
922.462	9648
922.571	9644
922.68	9469
922.789	9393
922.898	9408
923.007	9431
923.116	9488
923.224	9443
923.333	9450
923.442	9279
923.55	9336
923.659	9431
923.767	9439
923.876	9332
923.984	9412
924.092	9306
924.201	9351
924.309	9279
924.417	9344
924.525	9302
924.633	9275
924.741	9956
924.849	9108
924.956	9260
925.064	9085
925.172	8960
925.279	9108
925.387	9108
925.494	9112
925.602	9161
925.709	9104
925.816	9058
925.924	9146
926.031	9218
926.138	9131
926.245	9135
926.352	9017
926.459	9135
926.566	9138
926.673	8982
926.779	8990
926.886	9009
926.993	8895
927.099	8811
927.206	8796
927.312	8826
927.419	8807
927.525	8762
927.631	8910
927.737	8724
927.843	8686
927.95	8659
928.056	8682
928.162	8781
928.267	8861
928.373	9329
928.479	8758
928.585	8625
928.69	8667
928.796	8689
928.901	8632
929.007	8507
929.112	8590
929.218	8568
929.323	8537
929.428	8442
929.533	8678
929.638	8461
929.743	8549
929.848	8533
929.953	8484
930.058	8374
930.163	8275
930.267	8275
930.372	8374
930.477	8244
930.581	8431
930.685	8374
930.79	8248
930.894	8320
930.998	8305
931.103	8427
931.207	8096
931.311	8027
931.415	7913
931.519	7803
931.623	7788
