Data from test_V78500241_2589.txt Node
Date: Fri Mar 25 14:51:44 CST 2022
User: usil
Spectrometer: V785-0024
Trigger mode: 0
Integration Time (sec): 4.000000E-1
Scans to average: 1
Nonlinearity correction enabled: false
Boxcar width: 0
Storing dark spectrum: false
XAxis mode: Wavelengths
Number of Pixels in Spectrum: 1024
>>>>>Begin Spectral Data<<<<<
801.071	22135
801.214	21918
801.356	21739
801.499	21720
801.641	21561
801.783	21424
801.926	21340
802.068	21252
802.211	21264
802.353	21169
802.496	20982
802.638	20975
802.78	20845
802.923	20785
803.065	20716
803.208	20769
803.35	20815
803.492	20830
803.635	20842
803.777	20716
803.919	20868
804.061	21074
804.204	20800
804.346	20632
804.488	20541
804.63	20651
804.773	20594
804.915	20674
805.057	20762
805.199	20663
805.341	20785
805.483	20739
805.626	20564
805.768	20686
805.91	20678
806.052	20727
806.194	20446
806.336	20762
806.478	20693
806.62	20621
806.762	20644
806.904	20876
807.046	21036
807.188	21005
807.33	21036
807.472	21074
807.614	20899
807.756	20811
807.898	20648
808.04	20743
808.182	20804
808.324	20667
808.465	20674
808.607	20895
808.749	20929
808.891	21100
809.033	21294
809.174	21070
809.316	21005
809.458	21089
809.6	21009
809.741	20963
809.883	20986
810.025	21184
810.166	21237
810.308	21127
810.45	21036
810.591	20906
810.733	20933
810.875	20746
811.016	20773
811.158	20659
811.299	20746
811.441	20872
811.582	20921
811.724	20910
811.865	20697
812.007	20727
812.148	20682
812.29	20872
812.431	20933
812.573	21074
812.714	21199
812.855	21157
812.997	21363
813.138	21416
813.279	21507
813.421	21176
813.562	21218
813.703	20990
813.845	21070
813.986	20693
814.127	20518
814.268	20412
814.41	20328
814.551	20442
814.692	20446
814.833	20278
814.974	20267
815.115	20301
815.256	20149
815.397	20248
815.539	20210
815.68	20069
815.821	20020
815.962	20142
816.103	20046
816.244	19955
816.385	19879
816.526	19799
816.666	19476
816.807	19502
816.948	19476
817.089	19628
817.23	19529
817.371	19453
817.512	19460
817.653	19460
817.793	19468
817.934	19422
818.075	19346
818.216	19464
818.356	19445
818.497	19434
818.638	19152
818.778	19038
818.919	19110
819.06	19236
819.2	19308
819.341	19441
819.481	19362
819.622	19491
819.762	19609
819.903	19620
820.043	19521
820.184	19514
820.324	19449
820.465	19544
820.605	19441
820.746	19460
820.886	19221
821.026	19316
821.167	19403
821.307	19350
821.447	19407
821.588	19194
821.728	19126
821.868	19053
822.008	18859
822.149	18795
822.289	18817
822.429	18635
822.569	18506
822.709	18513
822.849	18357
822.99	18334
823.13	18277
823.27	18365
823.41	18247
823.55	18125
823.69	18194
823.83	18129
823.97	18121
824.11	17885
824.25	17977
824.389	17931
824.529	18011
824.669	17885
824.809	17942
824.949	17999
825.089	18015
825.228	17901
825.368	17775
825.508	17786
825.648	17668
825.787	17684
825.927	17737
826.067	17672
826.206	17630
826.346	17790
826.485	17779
826.625	17615
826.765	17790
826.904	17824
827.044	17619
827.183	17379
827.323	17387
827.462	17463
827.601	17444
827.741	17395
827.88	17452
828.02	17273
828.159	17360
828.298	17360
828.437	17448
828.577	17341
828.716	17558
828.855	17261
828.994	17178
829.134	17128
829.273	17227
829.412	17143
829.551	17086
829.69	17117
829.829	17170
829.968	17216
830.107	17250
830.246	17220
830.385	17071
830.524	17109
830.663	16949
830.802	16873
830.941	16729
831.08	16736
831.219	16873
831.357	16812
831.496	17029
831.635	16687
831.774	16679
831.913	16733
832.051	16554
832.19	16519
832.329	16641
832.467	16474
832.606	16363
832.744	16500
832.883	16512
833.022	16413
833.16	16554
833.299	16489
833.437	16489
833.576	16558
833.714	16428
833.852	16565
833.991	16542
834.129	16584
834.267	16508
834.406	16573
834.544	16569
834.682	16569
834.821	16569
834.959	16687
835.097	16531
835.235	16641
835.373	16702
835.511	16554
835.65	16565
835.788	16516
835.926	16314
836.064	16348
836.202	16257
836.34	16413
836.478	16538
836.615	16390
836.753	16447
836.891	16512
837.029	16440
837.167	16398
837.305	16352
837.443	16417
837.58	16398
837.718	16470
837.856	16284
837.993	16265
838.131	16318
838.269	16185
838.406	16322
838.544	16181
838.681	16029
838.819	16040
838.956	15934
839.094	15854
839.231	15861
839.369	15991
839.506	16246
839.643	16097
839.781	15994
839.918	15831
840.055	15934
840.193	15911
840.33	15838
840.467	15800
840.604	15884
840.742	16147
840.879	15705
841.016	15720
841.153	15785
841.29	15991
841.427	15808
841.564	15880
841.701	15827
841.838	15728
841.975	15800
842.112	15766
842.249	15618
842.385	15564
842.522	15812
842.659	15804
842.796	15625
842.933	15682
843.069	15625
843.206	15682
843.343	15709
843.479	15694
843.616	15660
843.752	15420
843.889	15412
844.025	15587
844.162	15363
844.298	15500
844.435	15435
844.571	15386
844.708	15447
844.844	15614
844.98	15682
845.117	15580
845.253	15332
845.389	15389
845.525	15386
845.661	15351
845.798	15150
845.934	15291
846.07	15211
846.206	15348
846.342	15306
846.478	15192
846.614	14986
846.75	14963
846.886	15009
847.022	15077
847.158	15051
847.294	15017
847.429	15070
847.565	14994
847.701	15351
847.837	14739
847.972	14769
848.108	14716
848.244	14845
848.379	14693
848.515	14632
848.65	14682
848.786	14583
848.921	14678
849.057	14648
849.192	14655
849.328	14617
849.463	14590
849.598	14598
849.734	14476
849.869	14518
850.004	14419
850.14	14385
850.275	14457
850.41	14248
850.545	14332
850.68	14358
850.815	14366
850.95	14355
851.085	14602
851.22	14511
851.355	14389
851.49	14301
851.625	14305
851.76	14263
851.895	14259
852.03	14210
852.165	14339
852.299	14351
852.434	14499
852.569	14442
852.703	14362
852.838	14461
852.973	14495
853.107	14495
853.242	14332
853.376	14225
853.511	14168
853.645	14210
853.78	14320
853.914	14214
854.048	14202
854.183	14199
854.317	14248
854.451	14339
854.585	14161
854.72	14176
854.854	14347
854.988	14168
855.122	14202
855.256	14119
855.39	14202
855.524	14309
855.658	14233
855.792	14248
855.926	14240
856.06	14339
856.194	14351
856.327	14252
856.461	14248
856.595	14252
856.729	14218
856.862	14374
856.996	14240
857.13	14259
857.263	14332
857.397	14404
857.53	14343
857.664	14385
857.797	14381
857.931	14370
858.064	14218
858.197	14282
858.331	14237
858.464	14199
858.597	14187
858.731	14237
858.864	14275
858.997	14183
859.13	14339
859.263	14195
859.396	14298
859.529	14183
859.662	14176
859.795	14221
859.928	14256
860.061	14476
860.194	14419
860.327	14271
860.46	14199
860.592	14393
860.725	14415
860.858	14396
860.99	14191
861.123	14233
861.256	14176
861.388	14358
861.521	14864
861.653	14218
861.786	14130
861.918	14100
862.05	14134
862.183	14244
862.315	14221
862.447	14286
862.58	14176
862.712	14008
862.844	13951
862.976	14012
863.108	14062
863.24	14499
863.372	13974
863.504	13993
863.636	13997
863.768	14069
863.9	13982
864.032	13997
864.164	13986
864.296	14039
864.428	14077
864.559	14142
864.691	14210
864.823	14107
864.954	14069
865.086	14031
865.217	13944
865.349	13963
865.48	14077
865.612	14020
865.743	14161
865.875	14073
866.006	14012
866.137	13879
866.269	14062
866.4	13967
866.531	13986
866.662	13936
866.793	14008
866.924	13982
867.055	14062
867.186	14012
867.317	13963
867.448	13890
867.579	13913
867.71	13909
867.841	13906
867.972	13963
868.103	13932
868.233	14050
868.364	14046
868.495	14065
868.625	14358
868.756	14278
868.886	14164
869.017	14195
869.147	14381
869.278	14454
869.408	14339
869.539	14259
869.669	14415
869.799	14191
869.929	14374
870.06	14400
870.19	14556
870.32	14530
870.45	14606
870.58	14644
870.71	14777
870.84	14727
870.97	14636
871.1	14670
871.23	14823
871.36	14853
871.489	14777
871.619	14857
871.749	14880
871.879	14902
872.008	14963
872.138	14948
872.267	14880
872.397	14754
872.526	14724
872.656	14583
872.785	14640
872.915	14899
873.044	15013
873.173	14883
873.303	14944
873.432	15017
873.561	14971
873.69	14880
873.819	14925
873.948	15039
874.077	14990
874.206	14853
874.335	14925
874.464	15138
874.593	15203
874.722	15157
874.851	15169
874.979	15294
875.108	15291
875.237	15104
875.365	15184
875.494	15249
875.623	15325
875.751	15226
875.88	15287
876.008	15424
876.136	15485
876.265	15637
876.393	15800
876.521	15720
876.65	15694
876.778	15667
876.906	15671
877.034	15633
877.162	15679
877.29	15587
877.418	15576
877.546	15720
877.674	15637
877.802	15603
877.93	15633
878.058	15542
878.185	15488
878.313	15542
878.441	15724
878.568	15462
878.696	15572
878.824	15720
878.951	15709
879.079	15717
879.206	16002
879.333	15751
879.461	15701
879.588	15644
879.715	15831
879.842	15857
879.97	15686
880.097	15488
880.224	15469
880.351	15488
880.478	15519
880.605	15515
880.732	15401
880.859	15694
880.986	15485
881.112	15629
881.239	15401
881.366	15264
881.493	15275
881.619	15062
881.746	15199
881.872	15062
881.999	15100
882.125	15043
882.252	15180
882.378	15066
882.505	15287
882.631	15138
882.757	15051
882.883	15074
883.01	14864
883.136	14838
883.262	14765
883.388	14781
883.514	15001
883.64	14998
883.766	14868
883.892	14769
884.018	14880
884.143	14979
884.269	14979
884.395	14678
884.52	14541
884.646	14590
884.772	14522
884.897	14511
885.023	14686
885.148	14853
885.274	14895
885.399	14697
885.524	14617
885.65	14682
885.775	14648
885.9	14731
886.025	14716
886.15	14655
886.275	14674
886.4	14549
886.525	14655
886.65	14670
886.775	14640
886.9	14762
887.025	14857
887.149	14617
887.274	14541
887.399	14454
887.523	14404
887.648	14351
887.773	14355
887.897	14590
888.021	14549
888.146	14495
888.27	14598
888.395	14667
888.519	14560
888.643	14655
888.767	14621
888.891	14457
889.015	14377
889.139	14396
889.263	14347
889.387	14469
889.511	14541
889.635	14408
889.759	14377
889.883	14415
890.006	14492
890.13	14374
890.254	14336
890.377	14393
890.501	14126
890.624	14172
890.748	14229
890.871	14062
890.995	14062
891.118	14008
891.241	14073
891.364	14020
891.488	14123
891.611	14119
891.734	14001
891.857	14027
891.98	14062
892.103	14107
892.226	14073
892.349	14016
892.471	13925
892.594	14050
892.717	14096
892.839	14027
892.962	14149
893.085	14107
893.207	14046
893.33	13917
893.452	14050
893.575	14005
893.697	14084
893.819	14244
893.941	14290
894.064	14214
894.186	14054
894.308	13997
894.43	14145
894.552	14355
894.674	14248
894.796	14084
894.918	14130
895.04	14088
895.161	14210
895.283	14172
895.405	14096
895.526	14077
895.648	14161
895.769	14221
895.891	14256
896.012	14275
896.134	14233
896.255	14195
896.376	14237
896.498	14237
896.619	14221
896.74	14278
896.861	14305
896.982	14545
897.103	14746
897.224	14556
897.345	14495
897.466	14511
897.587	14564
897.708	14674
897.828	14575
897.949	14503
898.07	14347
898.19	14476
898.311	14636
898.431	14480
898.552	14560
898.672	14644
898.792	14701
898.913	14678
899.033	14549
899.153	14381
899.273	14240
899.393	14415
899.513	14362
899.633	14412
899.753	14427
899.873	14396
899.993	14473
900.113	14389
900.232	14530
900.352	14419
900.472	14339
900.591	14221
900.711	14347
900.83	14259
900.95	14473
901.069	14454
901.189	14142
901.308	14035
901.427	13890
901.546	13986
901.665	14001
901.784	14016
901.904	13841
902.023	13807
902.141	13556
902.26	13632
902.379	13651
902.498	13586
902.617	13453
902.735	13495
902.854	13578
902.973	13491
903.091	13232
903.21	13164
903.328	13194
903.446	13103
903.565	13126
903.683	13023
903.801	13069
903.919	13107
904.038	13198
904.156	12958
904.274	12916
904.392	12939
904.51	12985
904.627	12894
904.745	13027
904.863	12993
904.981	12707
905.098	12544
905.216	12635
905.334	12544
905.451	12589
905.569	12650
905.686	12715
905.803	12540
905.921	12467
906.038	12525
906.155	12460
906.272	12308
906.389	12365
906.506	12213
906.623	12167
906.74	12201
906.857	12148
906.974	12102
907.091	12251
907.208	12437
907.324	12323
907.441	12178
907.557	11969
907.674	11920
907.79	11904
907.907	11996
908.023	11973
908.139	11923
908.256	11946
908.372	11916
908.488	11870
908.604	11714
908.72	11680
908.836	11627
908.952	11699
909.068	11707
909.184	11847
909.3	11718
909.415	11775
909.531	11714
909.647	11535
909.762	11448
909.878	11402
909.993	11520
910.108	11452
910.224	11497
910.339	11433
910.454	11334
910.57	11307
910.685	11292
910.8	11615
910.915	11505
911.03	11429
911.145	11208
911.259	11166
911.374	11140
911.489	11052
911.604	11045
911.718	10930
911.833	11045
911.947	10877
912.062	10774
912.176	10953
912.291	11037
912.405	10911
912.519	11208
912.633	11155
912.748	11075
912.862	10984
912.976	10809
913.09	10729
913.204	10835
913.318	10816
913.431	10930
913.545	10900
913.659	10965
913.772	10820
913.886	10710
914	10706
914.113	10755
914.226	10889
914.34	10790
914.453	10607
914.566	10771
914.68	10618
914.793	10672
914.906	10447
915.019	10405
915.132	10363
915.245	10546
915.358	10462
915.47	10421
915.583	10436
915.696	10466
915.809	10554
915.921	10607
916.034	10413
916.146	10394
916.259	10432
916.371	10470
916.483	10413
916.595	10436
916.708	10481
916.82	10356
916.932	10443
917.044	10382
917.156	10352
917.268	10295
917.38	10261
917.491	10299
917.603	10200
917.715	10443
917.826	10440
917.938	10234
918.049	10124
918.161	10287
918.272	10500
918.384	10428
918.495	10333
918.606	10135
918.717	10185
918.828	10147
918.939	10207
919.05	10029
919.161	10131
919.272	9994
919.383	10040
919.494	10291
919.604	10367
919.715	10169
919.826	10067
919.936	10078
920.047	10272
920.157	10234
920.267	10318
920.378	10188
920.488	10154
920.598	10409
920.708	10531
920.818	10432
920.928	10382
921.038	10577
921.148	10436
921.258	10310
921.368	10082
921.477	10093
921.587	9975
921.697	9937
921.806	10025
921.916	9903
922.025	9743
922.134	9755
922.244	9694
922.353	9812
922.462	9580
922.571	9576
922.68	9473
922.789	9412
922.898	9340
923.007	9393
923.116	9481
923.224	9408
923.333	9367
923.442	9325
923.55	9313
923.659	9344
923.767	9382
923.876	9325
923.984	9363
924.092	9211
924.201	9351
924.309	9367
924.417	9298
924.525	9188
924.633	9195
924.741	9972
924.849	9100
924.956	9180
925.064	9176
925.172	8948
925.279	8994
925.387	9070
925.494	9089
925.602	9272
925.709	9176
925.816	9039
925.924	9169
926.031	9241
926.138	9093
926.245	9077
926.352	9043
926.459	9173
926.566	9256
926.673	9013
926.779	8944
926.886	8944
926.993	8887
927.099	8819
927.206	8815
927.312	8754
927.419	8849
927.525	8906
927.631	8880
927.737	8758
927.843	8720
927.95	8613
928.056	8636
928.162	8735
928.267	8785
928.373	9359
928.479	8758
928.585	8549
928.69	8632
928.796	8720
928.901	8651
929.007	8473
929.112	8625
929.218	8625
929.323	8568
929.428	8499
929.533	8667
929.638	8454
929.743	8514
929.848	8560
929.953	8575
930.058	8480
930.163	8221
930.267	8301
930.372	8465
930.477	8275
930.581	8434
930.685	8400
930.79	8191
930.894	8324
930.998	8225
931.103	8404
931.207	8039
931.311	7986
931.415	7890
931.519	7715
931.623	7769
