Data from test_V78500241_1657.txt Node
Date: Fri Mar 25 14:45:15 CST 2022
User: usil
Spectrometer: V785-0024
Trigger mode: 0
Integration Time (sec): 4.000000E-1
Scans to average: 1
Nonlinearity correction enabled: false
Boxcar width: 0
Storing dark spectrum: false
XAxis mode: Wavelengths
Number of Pixels in Spectrum: 1024
>>>>>Begin Spectral Data<<<<<
801.071	22268
801.214	22086
801.356	21907
801.499	21838
801.641	21610
801.783	21564
801.926	21709
802.068	21523
802.211	21629
802.353	21473
802.496	21233
802.638	21313
802.78	21108
802.923	21020
803.065	20948
803.208	20975
803.35	20872
803.492	21039
803.635	21108
803.777	20921
803.919	21066
804.061	21294
804.204	21104
804.346	20906
804.488	20891
804.63	20902
804.773	20815
804.915	20876
805.057	21066
805.199	20880
805.341	21066
805.483	20971
805.626	20899
805.768	20967
805.91	21066
806.052	20925
806.194	20796
806.336	21135
806.478	20971
806.62	20746
806.762	21024
806.904	21093
807.046	21378
807.188	21302
807.33	21279
807.472	21367
807.614	21325
807.756	21222
807.898	21020
808.04	21005
808.182	21146
808.324	21005
808.465	21119
808.607	21214
808.749	21298
808.891	21294
809.033	21545
809.174	21538
809.316	21332
809.458	21317
809.6	21367
809.741	21325
809.883	21458
810.025	21515
810.166	21500
810.308	21538
810.45	21382
810.591	21431
810.733	21252
810.875	21165
811.016	21154
811.158	20967
811.299	21066
811.441	21199
811.582	21180
811.724	21081
811.865	20967
812.007	21009
812.148	21070
812.29	21039
812.431	21298
812.573	21439
812.714	21420
812.855	21606
812.997	21717
813.138	21774
813.279	21641
813.421	21542
813.562	21603
813.703	21283
813.845	21249
813.986	20921
814.127	20769
814.268	20701
814.41	20651
814.551	20686
814.692	20762
814.833	20739
814.974	20613
815.115	20617
815.256	20476
815.397	20545
815.539	20579
815.68	20446
815.821	20290
815.962	20362
816.103	20332
816.244	20195
816.385	20077
816.526	20138
816.666	19986
816.807	19746
816.948	19879
817.089	20035
817.23	19803
817.371	19769
817.512	19753
817.653	19807
817.793	19723
817.934	19837
818.075	19780
818.216	19807
818.356	19674
818.497	19506
818.638	19453
818.778	19510
818.919	19407
819.06	19559
819.2	19590
819.341	19559
819.481	19605
819.622	19761
819.762	20027
819.903	19818
820.043	19803
820.184	19791
820.324	19689
820.465	19940
820.605	19708
820.746	19693
820.886	19613
821.026	19666
821.167	19753
821.307	19883
821.447	19655
821.588	19548
821.728	19590
821.868	19320
822.008	19198
822.149	19091
822.289	19050
822.429	18916
822.569	18768
822.709	18932
822.849	18707
822.99	18616
823.13	18589
823.27	18604
823.41	18467
823.55	18372
823.69	18399
823.83	18334
823.97	18418
824.11	18121
824.25	18323
824.389	18087
824.529	18350
824.669	18251
824.809	18224
824.949	18304
825.089	18243
825.228	18232
825.368	17965
825.508	18045
825.648	18019
825.787	18064
825.927	18049
826.067	18045
826.206	17904
826.346	18019
826.485	18038
826.625	17999
826.765	18015
826.904	18022
827.044	17809
827.183	17687
827.323	17653
827.462	17718
827.601	17710
827.741	17741
827.88	17600
828.02	17486
828.159	17547
828.298	17729
828.437	17783
828.577	17653
828.716	17783
828.855	17665
828.994	17551
829.134	17501
829.273	17440
829.412	17337
829.551	17383
829.69	17376
829.829	17383
829.968	17558
830.107	17471
830.246	17410
830.385	17292
830.524	17265
830.663	17235
830.802	17094
830.941	17010
831.08	17067
831.219	17079
831.357	17098
831.496	17273
831.635	17037
831.774	17033
831.913	16934
832.051	16809
832.19	16771
832.329	16828
832.467	16752
832.606	16694
832.744	16866
832.883	16687
833.022	16675
833.16	16713
833.299	16793
833.437	16763
833.576	16672
833.714	16752
833.852	16885
833.991	16790
834.129	16896
834.267	16866
834.406	16759
834.544	16854
834.682	16831
834.821	16744
834.959	16965
835.097	16733
835.235	16850
835.373	16847
835.511	16710
835.65	16664
835.788	16630
835.926	16481
836.064	16489
836.202	16386
836.34	16713
836.478	16744
836.615	16668
836.753	16649
836.891	16710
837.029	16615
837.167	16649
837.305	16573
837.443	16622
837.58	16440
837.718	16512
837.856	16649
837.993	16527
838.131	16451
838.269	16462
838.406	16428
838.544	16394
838.681	16261
838.819	16333
838.956	16158
839.094	16097
839.231	16188
839.369	16093
839.506	16417
839.643	16379
839.781	16044
839.918	16063
840.055	16032
840.193	16116
840.33	15979
840.467	16116
840.604	16131
840.742	16223
840.879	15937
841.016	15983
841.153	15899
841.29	16291
841.427	16063
841.564	16097
841.701	16097
841.838	16010
841.975	16006
842.112	16048
842.249	15903
842.385	15778
842.522	15983
842.659	15983
842.796	15835
842.933	15831
843.069	15789
843.206	15854
843.343	15892
843.479	15797
843.616	15835
843.752	15671
843.889	15610
844.025	15797
844.162	15679
844.298	15797
844.435	15694
844.571	15603
844.708	15728
844.844	15728
844.98	15778
845.117	15736
845.253	15644
845.389	15408
845.525	15534
845.661	15557
845.798	15481
845.934	15557
846.07	15523
846.206	15515
846.342	15644
846.478	15469
846.614	15435
846.75	15077
846.886	15207
847.022	15294
847.158	15252
847.294	15260
847.429	15176
847.565	15100
847.701	15363
847.837	14941
847.972	14933
848.108	15001
848.244	14944
848.379	14792
848.515	14853
848.65	14765
848.786	14819
848.921	14857
849.057	14982
849.192	14902
849.328	14899
849.463	14899
849.598	14773
849.734	14758
849.869	14724
850.004	14579
850.14	14583
850.275	14674
850.41	14412
850.545	14545
850.68	14598
850.815	14488
850.95	14503
851.085	14727
851.22	14689
851.355	14575
851.49	14556
851.625	14568
851.76	14602
851.895	14450
852.03	14415
852.165	14568
852.299	14648
852.434	14735
852.569	14594
852.703	14640
852.838	14613
852.973	14648
853.107	14636
853.242	14530
853.376	14484
853.511	14271
853.645	14339
853.78	14625
853.914	14396
854.048	14400
854.183	14419
854.317	14408
854.451	14530
854.585	14404
854.72	14366
854.854	14419
854.988	14278
855.122	14389
855.256	14267
855.39	14412
855.524	14488
855.658	14415
855.792	14488
855.926	14438
856.06	14537
856.194	14476
856.327	14400
856.461	14366
856.595	14427
856.729	14351
856.862	14579
856.996	14469
857.13	14514
857.263	14613
857.397	14560
857.53	14427
857.664	14480
857.797	14522
857.931	14537
858.064	14503
858.197	14579
858.331	14362
858.464	14427
858.597	14278
858.731	14434
858.864	14446
858.997	14396
859.13	14404
859.263	14434
859.396	14541
859.529	14450
859.662	14454
859.795	14358
859.928	14469
860.061	14644
860.194	14549
860.327	14492
860.46	14556
860.592	14473
860.725	14518
860.858	14571
860.99	14427
861.123	14332
861.256	14434
861.388	14511
861.521	14979
861.653	14355
861.786	14358
861.918	14313
862.05	14393
862.183	14309
862.315	14465
862.447	14473
862.58	14370
862.712	14248
862.844	14069
862.976	14221
863.108	14301
863.24	14731
863.372	14256
863.504	14256
863.636	14123
863.768	14301
863.9	14225
864.032	14153
864.164	14142
864.296	14252
864.428	14362
864.559	14385
864.691	14343
864.823	14278
864.954	14362
865.086	14298
865.217	14138
865.349	14157
865.48	14187
865.612	14248
865.743	14324
865.875	14149
866.006	14286
866.137	14263
866.269	14149
866.4	14237
866.531	14161
866.662	14199
866.793	14123
866.924	14180
867.055	14339
867.186	14149
867.317	14092
867.448	14130
867.579	14221
867.71	14065
867.841	14157
867.972	14202
868.103	14195
868.233	14077
868.364	14176
868.495	14336
868.625	14362
868.756	14594
868.886	14374
869.017	14408
869.147	14533
869.278	14568
869.408	14396
869.539	14480
869.669	14564
869.799	14431
869.929	14556
870.06	14598
870.19	14720
870.32	14758
870.45	14792
870.58	14838
870.71	15036
870.84	14975
870.97	14838
871.1	14853
871.23	15036
871.36	15085
871.489	14941
871.619	15077
871.749	14982
871.879	15062
872.008	15074
872.138	15112
872.267	15066
872.397	14853
872.526	14781
872.656	14872
872.785	14872
872.915	15089
873.044	15165
873.173	15127
873.303	15127
873.432	15077
873.561	15161
873.69	15047
873.819	15142
873.948	15199
874.077	15142
874.206	14937
874.335	15089
874.464	15294
874.593	15348
874.722	15332
874.851	15393
874.979	15416
875.108	15431
875.237	15401
875.365	15252
875.494	15428
875.623	15504
875.751	15386
875.88	15458
876.008	15458
876.136	15648
876.265	15812
876.393	15972
876.521	15865
876.65	15869
876.778	15785
876.906	15781
877.034	15739
877.162	15770
877.29	15774
877.418	15888
877.546	15873
877.674	15766
877.802	15850
877.93	15785
878.058	15762
878.185	15755
878.313	15854
878.441	15865
878.568	15652
878.696	15762
878.824	15808
878.951	15987
879.079	16021
879.206	16112
879.333	16025
879.461	15926
879.588	15949
879.715	16002
879.842	16185
879.97	15899
880.097	15641
880.224	15656
880.351	15606
880.478	15739
880.605	15633
880.732	15675
880.859	15838
880.986	15641
881.112	15724
881.239	15530
881.366	15477
881.493	15344
881.619	15344
881.746	15325
881.872	15188
881.999	15283
882.125	15302
882.252	15382
882.378	15332
882.505	15500
882.631	15340
882.757	15169
882.883	15150
883.01	15135
883.136	15108
883.262	15017
883.388	14944
883.514	15081
883.64	15291
883.766	15104
883.892	14967
884.018	14994
884.143	15108
884.269	15195
884.395	14933
884.52	14811
884.646	14769
884.772	14758
884.897	14674
885.023	14773
885.148	14902
885.274	15028
885.399	14971
885.524	14826
885.65	14921
885.775	14834
885.9	14819
886.025	15009
886.15	14880
886.275	14769
886.4	14750
886.525	14804
886.65	14720
886.775	14697
886.9	14956
887.025	15089
887.149	14864
887.274	14625
887.399	14583
887.523	14670
887.648	14571
887.773	14560
887.897	14705
888.021	14659
888.146	14636
888.27	14819
888.395	14769
888.519	14682
888.643	14845
888.767	14792
888.891	14583
889.015	14629
889.139	14499
889.263	14461
889.387	14560
889.511	14625
889.635	14625
889.759	14518
889.883	14484
890.006	14533
890.13	14549
890.254	14396
890.377	14526
890.501	14294
890.624	14278
890.748	14358
890.871	14317
890.995	14206
891.118	14180
891.241	14229
891.364	14210
891.488	14324
891.611	14313
891.734	14240
891.857	14328
891.98	14278
892.103	14301
892.226	14294
892.349	14183
892.471	14123
892.594	14290
892.717	14187
892.839	14244
892.962	14240
893.085	14320
893.207	14244
893.33	14065
893.452	14275
893.575	14320
893.697	14180
893.819	14381
893.941	14355
894.064	14366
894.186	14233
894.308	14138
894.43	14461
894.552	14427
894.674	14377
894.796	14180
894.918	14180
895.04	14240
895.161	14370
895.283	14377
895.405	14206
895.526	14336
895.648	14286
895.769	14370
895.891	14305
896.012	14518
896.134	14571
896.255	14377
896.376	14313
896.498	14419
896.619	14404
896.74	14488
896.861	14541
896.982	14682
897.103	14861
897.224	14644
897.345	14773
897.466	14514
897.587	14762
897.708	14845
897.828	14625
897.949	14636
898.07	14583
898.19	14632
898.311	14769
898.431	14640
898.552	14758
898.672	14765
898.792	14876
898.913	14724
899.033	14697
899.153	14644
899.273	14526
899.393	14579
899.513	14530
899.633	14629
899.753	14659
899.873	14545
899.993	14602
900.113	14648
900.232	14533
900.352	14590
900.472	14484
900.591	14473
900.711	14461
900.83	14351
900.95	14476
901.069	14518
901.189	14457
901.308	14214
901.427	13993
901.546	14176
901.665	14115
901.784	14237
901.904	14012
902.023	13970
902.141	13780
902.26	13643
902.379	13883
902.498	13727
902.617	13586
902.735	13655
902.854	13693
902.973	13647
903.091	13460
903.21	13392
903.328	13426
903.446	13331
903.565	13198
903.683	13240
903.801	13072
903.919	13274
904.038	13236
904.156	13190
904.274	13145
904.392	13004
904.51	13122
904.627	13110
904.745	13179
904.863	13137
904.981	12859
905.098	12715
905.216	12726
905.334	12802
905.451	12806
905.569	12711
905.686	12817
905.803	12856
905.921	12604
906.038	12662
906.155	12639
906.272	12544
906.389	12486
906.506	12330
906.623	12399
906.74	12391
906.857	12194
906.974	12262
907.091	12403
907.208	12494
907.324	12376
907.441	12330
907.557	12098
907.674	12121
907.79	12045
907.907	12098
908.023	12152
908.139	12072
908.256	12015
908.372	11965
908.488	12011
908.604	11912
908.72	11794
908.836	11882
908.952	11809
909.068	11916
909.184	11996
909.3	11847
909.415	11904
909.531	11908
909.647	11634
909.762	11592
909.878	11547
909.993	11707
910.108	11703
910.224	11554
910.339	11570
910.454	11535
910.57	11501
910.685	11387
910.8	11680
910.915	11642
911.03	11501
911.145	11296
911.259	11345
911.374	11330
911.489	11227
911.604	11193
911.718	11086
911.833	11143
911.947	10987
912.062	10828
912.176	11124
912.291	11060
912.405	11098
912.519	11345
912.633	11261
912.748	11220
912.862	11052
912.976	10896
913.09	10820
913.204	10934
913.318	11029
913.431	11029
913.545	11014
913.659	11094
913.772	10927
913.886	10896
914	10831
914.113	10972
914.226	10946
914.34	10828
914.453	10721
914.566	10961
914.68	10755
914.793	10729
914.906	10675
915.019	10584
915.132	10554
915.245	10523
915.358	10626
915.47	10508
915.583	10679
915.696	10641
915.809	10725
915.921	10755
916.034	10592
916.146	10542
916.259	10478
916.371	10596
916.483	10592
916.595	10462
916.708	10558
916.82	10664
916.932	10489
917.044	10538
917.156	10485
917.268	10344
917.38	10382
917.491	10394
917.603	10440
917.715	10497
917.826	10470
917.938	10337
918.049	10299
918.161	10466
918.272	10531
918.384	10550
918.495	10459
918.606	10299
918.717	10192
918.828	10341
918.939	10337
919.05	10230
919.161	10325
919.272	10086
919.383	10109
919.494	10329
919.604	10489
919.715	10367
919.826	10166
919.936	10291
920.047	10306
920.157	10405
920.267	10546
920.378	10424
920.488	10310
920.598	10527
920.708	10634
920.818	10554
920.928	10531
921.038	10660
921.148	10596
921.258	10386
921.368	10371
921.477	10188
921.587	10112
921.697	9991
921.806	10173
921.916	10093
922.025	9899
922.134	9838
922.244	9793
922.353	9861
922.462	9667
922.571	9747
922.68	9561
922.789	9568
922.898	9561
923.007	9496
923.116	9606
923.224	9545
923.333	9443
923.442	9420
923.55	9454
923.659	9542
923.767	9519
923.876	9344
923.984	9564
924.092	9416
924.201	9458
924.309	9416
924.417	9401
924.525	9389
924.633	9374
924.741	10147
924.849	9214
924.956	9332
925.064	9112
925.172	9100
925.279	9165
925.387	9207
925.494	9165
925.602	9340
925.709	9306
925.816	9123
925.924	9188
926.031	9256
926.138	9253
926.245	9207
926.352	9173
926.459	9256
926.566	9249
926.673	9195
926.779	8967
926.886	9100
926.993	8933
927.099	8982
927.206	8861
927.312	8952
927.419	8982
927.525	8994
927.631	8982
927.737	8902
927.843	8826
927.95	8754
928.056	8807
928.162	8815
928.267	8845
928.373	9310
928.479	8895
928.585	8648
928.69	8849
928.796	8872
928.901	8697
929.007	8526
929.112	8769
929.218	8750
929.323	8682
929.428	8712
929.533	8731
929.638	8583
929.743	8571
929.848	8724
929.953	8610
930.058	8530
930.163	8461
930.267	8419
930.372	8560
930.477	8347
930.581	8621
930.685	8499
930.79	8305
930.894	8389
930.998	8313
931.103	8469
931.207	8191
931.311	8069
931.415	7989
931.519	7841
931.623	7799
