Data from test_V78500241_3378.txt Node
Date: Fri Mar 25 14:57:14 CST 2022
User: usil
Spectrometer: V785-0024
Trigger mode: 0
Integration Time (sec): 4.000000E-1
Scans to average: 1
Nonlinearity correction enabled: false
Boxcar width: 0
Storing dark spectrum: false
XAxis mode: Wavelengths
Number of Pixels in Spectrum: 1024
>>>>>Begin Spectral Data<<<<<
801.071	21956
801.214	21739
801.356	21648
801.499	21568
801.641	21348
801.783	21363
801.926	21294
802.068	21359
802.211	21161
802.353	21058
802.496	20876
802.638	20815
802.78	20705
802.923	20644
803.065	20594
803.208	20594
803.35	20640
803.492	20693
803.635	20708
803.777	20606
803.919	20731
804.061	20899
804.204	20705
804.346	20476
804.488	20583
804.63	20480
804.773	20556
804.915	20640
805.057	20648
805.199	20522
805.341	20492
805.483	20667
805.626	20651
805.768	20461
805.91	20583
806.052	20518
806.194	20404
806.336	20617
806.478	20526
806.62	20351
806.762	20697
806.904	20682
807.046	20868
807.188	20902
807.33	20838
807.472	20918
807.614	20792
807.756	20845
807.898	20564
808.04	20537
808.182	20499
808.324	20655
808.465	20606
808.607	20746
808.749	20823
808.891	20826
809.033	20910
809.174	21009
809.316	20845
809.458	20883
809.6	20773
809.741	20967
809.883	20868
810.025	20956
810.166	21108
810.308	20960
810.45	20849
810.591	20944
810.733	20781
810.875	20743
811.016	20533
811.158	20438
811.299	20632
811.441	20727
811.582	20739
811.724	20613
811.865	20423
812.007	20663
812.148	20659
812.29	20705
812.431	20811
812.573	21009
812.714	20921
812.855	21135
812.997	21264
813.138	21302
813.279	21184
813.421	21135
813.562	21055
813.703	21017
813.845	20845
813.986	20636
814.127	20374
814.268	20389
814.41	20214
814.551	20077
814.692	20183
814.833	20073
814.974	20172
815.115	20191
815.256	20020
815.397	20077
815.539	19913
815.68	19982
815.821	19917
815.962	19917
816.103	19909
816.244	19826
816.385	19594
816.526	19597
816.666	19472
816.807	19297
816.948	19422
817.089	19422
817.23	19396
817.371	19285
817.512	19259
817.653	19232
817.793	19263
817.934	19381
818.075	19312
818.216	19312
818.356	19278
818.497	19175
818.638	18977
818.778	18966
818.919	19008
819.06	19133
819.2	19145
819.341	19213
819.481	19209
819.622	19228
819.762	19537
819.903	19483
820.043	19369
820.184	19312
820.324	19354
820.465	19293
820.605	19350
820.746	19217
820.886	19190
821.026	19255
821.167	19202
821.307	19206
821.447	19225
821.588	19156
821.728	18989
821.868	18871
822.008	18681
822.149	18601
822.289	18688
822.429	18517
822.569	18391
822.709	18490
822.849	18235
822.99	18144
823.13	18190
823.27	18220
823.41	18003
823.55	17927
823.69	18026
823.83	18106
823.97	17965
824.11	17764
824.25	17821
824.389	17745
824.529	17874
824.669	17695
824.809	17794
824.949	17851
825.089	17897
825.228	17851
825.368	17585
825.508	17554
825.648	17646
825.787	17619
825.927	17634
826.067	17558
826.206	17573
826.346	17516
826.485	17516
826.625	17535
826.765	17703
826.904	17630
827.044	17372
827.183	17296
827.323	17250
827.462	17299
827.601	17185
827.741	17181
827.88	17231
828.02	17090
828.159	17261
828.298	17387
828.437	17315
828.577	17143
828.716	17379
828.855	17315
828.994	17079
829.134	16930
829.273	17109
829.412	17033
829.551	16911
829.69	16889
829.829	17041
829.968	17086
830.107	17022
830.246	17098
830.385	17029
830.524	16877
830.663	16892
830.802	16725
830.941	16641
831.08	16558
831.219	16755
831.357	16656
831.496	16767
831.635	16569
831.774	16504
831.913	16531
832.051	16417
832.19	16440
832.329	16447
832.467	16394
832.606	16295
832.744	16341
832.883	16337
833.022	16367
833.16	16390
833.299	16356
833.437	16447
833.576	16375
833.714	16371
833.852	16447
833.991	16516
834.129	16489
834.267	16447
834.406	16542
834.544	16428
834.682	16531
834.821	16379
834.959	16584
835.097	16436
835.235	16447
835.373	16470
835.511	16424
835.65	16363
835.788	16272
835.926	16196
836.064	16120
836.202	16226
836.34	16421
836.478	16440
836.615	16352
836.753	16379
836.891	16371
837.029	16462
837.167	16295
837.305	16261
837.443	16230
837.58	16131
837.718	16280
837.856	16150
837.993	16154
838.131	16200
838.269	16169
838.406	16101
838.544	16074
838.681	15892
838.819	15941
838.956	15812
839.094	15724
839.231	15895
839.369	15873
839.506	16090
839.643	16071
839.781	15842
839.918	15641
840.055	15770
840.193	15774
840.33	15686
840.467	15785
840.604	15778
840.742	15972
840.879	15648
841.016	15732
841.153	15720
841.29	15842
841.427	15671
841.564	15800
841.701	15747
841.838	15751
841.975	15599
842.112	15564
842.249	15568
842.385	15435
842.522	15785
842.659	15580
842.796	15515
842.933	15576
843.069	15466
843.206	15625
843.343	15587
843.479	15545
843.616	15545
843.752	15298
843.889	15332
844.025	15401
844.162	15332
844.298	15367
844.435	15306
844.571	15226
844.708	15363
844.844	15488
844.98	15526
845.117	15477
845.253	15275
845.389	15268
845.525	15268
845.661	15226
845.798	15127
845.934	15146
846.07	15058
846.206	15176
846.342	15222
846.478	15055
846.614	14861
846.75	14842
846.886	14804
847.022	14883
847.158	14925
847.294	14906
847.429	14944
847.565	14975
847.701	15024
847.837	14743
847.972	14560
848.108	14640
848.244	14697
848.379	14514
848.515	14583
848.65	14537
848.786	14522
848.921	14473
849.057	14667
849.192	14621
849.328	14503
849.463	14522
849.598	14503
849.734	14431
849.869	14438
850.004	14328
850.14	14286
850.275	14225
850.41	14191
850.545	14153
850.68	14168
850.815	14199
850.95	14221
851.085	14454
851.22	14408
851.355	14259
851.49	14149
851.625	14206
851.76	14256
851.895	14123
852.03	14119
852.165	14256
852.299	14328
852.434	14358
852.569	14244
852.703	14145
852.838	14347
852.973	14473
853.107	14427
853.242	14161
853.376	14126
853.511	14020
853.645	14103
853.78	14214
853.914	14168
854.048	14001
854.183	14100
854.317	14065
854.451	14263
854.585	14229
854.72	14096
854.854	14252
854.988	14092
855.122	14180
855.256	14138
855.39	14054
855.524	14138
855.658	14199
855.792	14176
855.926	14172
856.06	14202
856.194	14225
856.327	14157
856.461	14020
856.595	14183
856.729	14145
856.862	14286
856.996	14157
857.13	14180
857.263	14278
857.397	14183
857.53	14145
857.664	14176
857.797	14172
857.931	14343
858.064	14142
858.197	14199
858.331	14145
858.464	14084
858.597	14092
858.731	14073
858.864	14206
858.997	14107
859.13	14142
859.263	14218
859.396	14313
859.529	14164
859.662	14138
859.795	14062
859.928	14149
860.061	14259
860.194	14393
860.327	14107
860.46	14050
860.592	14256
860.725	14305
860.858	14313
860.99	14096
861.123	14081
861.256	13997
861.388	14126
861.521	14872
861.653	14054
861.786	13894
861.918	14008
862.05	14077
862.183	14096
862.315	14142
862.447	14210
862.58	14020
862.712	13921
862.844	13837
862.976	13967
863.108	13906
863.24	14339
863.372	13890
863.504	13963
863.636	14039
863.768	13936
863.9	14031
864.032	13860
864.164	13875
864.296	13951
864.428	14027
864.559	14039
864.691	13947
864.823	14031
864.954	13913
865.086	13959
865.217	13944
865.349	13864
865.48	13879
865.612	13898
865.743	13925
865.875	13909
866.006	13875
866.137	13890
866.269	13902
866.4	13902
866.531	13791
866.662	13875
866.793	13818
866.924	13795
867.055	13963
867.186	13921
867.317	13898
867.448	13818
867.579	13925
867.71	13837
867.841	13757
867.972	13875
868.103	13951
868.233	13890
868.364	13811
868.495	14012
868.625	14100
868.756	14214
868.886	14081
869.017	14058
869.147	14313
869.278	14168
869.408	14256
869.539	14145
869.669	14290
869.799	14237
869.929	14389
870.06	14282
870.19	14484
870.32	14438
870.45	14507
870.58	14530
870.71	14731
870.84	14651
870.97	14575
871.1	14522
871.23	14663
871.36	14785
871.489	14636
871.619	14758
871.749	14838
871.879	14830
872.008	14834
872.138	14777
872.267	14689
872.397	14686
872.526	14575
872.656	14533
872.785	14602
872.915	14792
873.044	14842
873.173	14777
873.303	14864
873.432	14804
873.561	14887
873.69	14815
873.819	14895
873.948	14925
874.077	14815
874.206	14765
874.335	14849
874.464	15058
874.593	15032
874.722	15028
874.851	15169
874.979	15169
875.108	15123
875.237	15017
875.365	14979
875.494	15108
875.623	15176
875.751	15051
875.88	15203
876.008	15268
876.136	15428
876.265	15458
876.393	15637
876.521	15648
876.65	15553
876.778	15500
876.906	15454
877.034	15420
877.162	15595
877.29	15447
877.418	15622
877.546	15553
877.674	15606
877.802	15561
877.93	15492
878.058	15496
878.185	15374
878.313	15595
878.441	15447
878.568	15401
878.696	15523
878.824	15576
878.951	15595
879.079	15599
879.206	15732
879.333	15728
879.461	15686
879.588	15557
879.715	15686
879.842	15823
879.97	15656
880.097	15428
880.224	15351
880.351	15378
880.478	15401
880.605	15393
880.732	15359
880.859	15625
880.986	15389
881.112	15443
881.239	15245
881.366	15203
881.493	15192
881.619	14998
881.746	14956
881.872	15108
881.999	15017
882.125	15001
882.252	15135
882.378	15104
882.505	15146
882.631	15062
882.757	14861
882.883	14861
883.01	14842
883.136	14777
883.262	14762
883.388	14697
883.514	14902
883.64	14872
883.766	14891
883.892	14765
884.018	14659
884.143	14807
884.269	14864
884.395	14640
884.52	14632
884.646	14575
884.772	14518
884.897	14476
885.023	14549
885.148	14667
885.274	14781
885.399	14651
885.524	14560
885.65	14686
885.775	14564
885.9	14552
886.025	14579
886.15	14613
886.275	14541
886.4	14503
886.525	14518
886.65	14457
886.775	14461
886.9	14575
887.025	14815
887.149	14594
887.274	14377
887.399	14393
887.523	14374
887.648	14317
887.773	14271
887.897	14419
888.021	14412
888.146	14351
888.27	14484
888.395	14511
888.519	14465
888.643	14476
888.767	14499
888.891	14393
889.015	14199
889.139	14328
889.263	14305
889.387	14442
889.511	14465
889.635	14385
889.759	14210
889.883	14263
890.006	14305
890.13	14366
890.254	14157
890.377	14256
890.501	14031
890.624	14058
890.748	14225
890.871	14012
890.995	13974
891.118	13887
891.241	13974
891.364	13986
891.488	14115
891.611	13921
891.734	14008
891.857	14016
891.98	13970
892.103	14035
892.226	14088
892.349	13951
892.471	13890
892.594	13978
892.717	13989
892.839	13951
892.962	14077
893.085	14039
893.207	13982
893.33	13944
893.452	13978
893.575	14043
893.697	14001
893.819	14157
893.941	14233
894.064	14180
894.186	13986
894.308	13997
894.43	14054
894.552	14168
894.674	14123
894.796	14008
894.918	14077
895.04	14039
895.161	14199
895.283	14088
895.405	13982
895.526	14130
895.648	14088
895.769	14183
895.891	14065
896.012	14218
896.134	14210
896.255	14092
896.376	14088
896.498	14100
896.619	14149
896.74	14153
896.861	14199
896.982	14396
897.103	14686
897.224	14461
897.345	14419
897.466	14450
897.587	14438
897.708	14484
897.828	14442
897.949	14328
898.07	14244
898.19	14412
898.311	14503
898.431	14370
898.552	14484
898.672	14606
898.792	14564
898.913	14587
899.033	14389
899.153	14377
899.273	14339
899.393	14263
899.513	14442
899.633	14427
899.753	14412
899.873	14381
899.993	14396
900.113	14275
900.232	14438
900.352	14366
900.472	14225
900.591	14290
900.711	14339
900.83	14199
900.95	14339
901.069	14370
901.189	14092
901.308	13947
901.427	13750
901.546	13849
901.665	13906
901.784	13902
901.904	13830
902.023	13636
902.141	13415
902.26	13468
902.379	13578
902.498	13468
902.617	13464
902.735	13525
902.854	13403
902.973	13365
903.091	13160
903.21	13266
903.328	13247
903.446	13129
903.565	12966
903.683	13110
903.801	12973
903.919	13050
904.038	12935
904.156	12878
904.274	12840
904.392	12837
904.51	12825
904.627	12878
904.745	12894
904.863	12939
904.981	12608
905.098	12597
905.216	12574
905.334	12566
905.451	12563
905.569	12521
905.686	12589
905.803	12620
905.921	12365
906.038	12547
906.155	12403
906.272	12292
906.389	12289
906.506	12243
906.623	12159
906.74	12155
906.857	12095
906.974	12087
907.091	12277
907.208	12292
907.324	12178
907.441	12102
907.557	11851
907.674	11889
907.79	11714
907.907	11847
908.023	11923
908.139	11916
908.256	11874
908.372	11843
908.488	11798
908.604	11634
908.72	11699
908.836	11668
908.952	11585
909.068	11710
909.184	11805
909.3	11786
909.415	11707
909.531	11680
909.647	11459
909.762	11467
909.878	11421
909.993	11493
910.108	11379
910.224	11478
910.339	11398
910.454	11398
910.57	11376
910.685	11178
910.8	11532
910.915	11482
911.03	11368
911.145	11174
911.259	11147
911.374	11174
911.489	11048
911.604	11064
911.718	10919
911.833	10995
911.947	10797
912.062	10736
912.176	10892
912.291	10881
912.405	10847
912.519	11143
912.633	11140
912.748	11098
912.862	10972
912.976	10877
913.09	10698
913.204	10714
913.318	10847
913.431	10892
913.545	10946
913.659	10915
913.772	10904
913.886	10714
914	10683
914.113	10721
914.226	10809
914.34	10809
914.453	10645
914.566	10740
914.68	10542
914.793	10565
914.906	10538
915.019	10402
915.132	10447
915.245	10402
915.358	10421
915.47	10489
915.583	10440
915.696	10493
915.809	10546
915.921	10554
916.034	10424
916.146	10394
916.259	10284
916.371	10508
916.483	10474
916.595	10341
916.708	10390
916.82	10379
916.932	10344
917.044	10276
917.156	10394
917.268	10268
917.38	10344
917.491	10234
917.603	10249
917.715	10402
917.826	10367
917.938	10215
918.049	10215
918.161	10356
918.272	10398
918.384	10394
918.495	10200
918.606	10143
918.717	10055
918.828	10143
918.939	10192
919.05	10013
919.161	10147
919.272	9945
919.383	10044
919.494	10234
919.604	10303
919.715	10181
919.826	10021
919.936	10147
920.047	10299
920.157	10150
920.267	10348
920.378	10204
920.488	10173
920.598	10440
920.708	10512
920.818	10371
920.928	10352
921.038	10478
921.148	10542
921.258	10166
921.368	10105
921.477	9994
921.587	10021
921.697	9880
921.806	10055
921.916	9899
922.025	9705
922.134	9701
922.244	9717
922.353	9778
922.462	9641
922.571	9564
922.68	9488
922.789	9477
922.898	9447
923.007	9469
923.116	9435
923.224	9431
923.333	9367
923.442	9325
923.55	9283
923.659	9245
923.767	9424
923.876	9294
923.984	9287
924.092	9176
924.201	9321
924.309	9256
924.417	9275
924.525	9230
924.633	9279
924.741	10185
924.849	9036
924.956	9203
925.064	9093
925.172	9089
925.279	9032
925.387	9097
925.494	9017
925.602	9272
925.709	9169
925.816	9028
925.924	9024
926.031	9173
926.138	9097
926.245	9097
926.352	8960
926.459	9131
926.566	9184
926.673	8975
926.779	8910
926.886	8929
926.993	8857
927.099	8785
927.206	8766
927.312	8750
927.419	8872
927.525	8766
927.631	8891
927.737	8724
927.843	8743
927.95	8533
928.056	8606
928.162	8731
928.267	8785
928.373	9367
928.479	8830
928.585	8575
928.69	8708
928.796	8731
928.901	8648
929.007	8442
929.112	8644
929.218	8590
929.323	8571
929.428	8473
929.533	8651
929.638	8370
929.743	8431
929.848	8617
929.953	8495
930.058	8419
930.163	8187
930.267	8317
930.372	8431
930.477	8218
930.581	8461
930.685	8393
930.79	8244
930.894	8225
930.998	8248
931.103	8305
931.207	8043
931.311	7928
931.415	7959
931.519	7795
931.623	7719
