Data from test_V78500241_376.txt Node
Date: Fri Mar 25 14:36:20 CST 2022
User: usil
Spectrometer: V785-0024
Trigger mode: 0
Integration Time (sec): 4.000000E-1
Scans to average: 1
Nonlinearity correction enabled: false
Boxcar width: 0
Storing dark spectrum: false
XAxis mode: Wavelengths
Number of Pixels in Spectrum: 1024
>>>>>Begin Spectral Data<<<<<
801.071	26788
801.214	26788
801.356	26568
801.499	26412
801.641	26229
801.783	26149
801.926	26267
802.068	26191
802.211	25909
802.353	26008
802.496	25936
802.638	25932
802.78	25814
802.923	25719
803.065	25696
803.208	25670
803.35	25712
803.492	25807
803.635	25879
803.777	25849
803.919	25811
804.061	26168
804.204	25860
804.346	25719
804.488	25613
804.63	25765
804.773	25700
804.915	25803
805.057	25765
805.199	25715
805.341	25738
805.483	25871
805.626	25890
805.768	25727
805.91	25849
806.052	25852
806.194	25662
806.336	26035
806.478	25830
806.62	25894
806.762	25795
806.904	25974
807.046	26229
807.188	26130
807.33	26180
807.472	26183
807.614	26012
807.756	25997
807.898	26005
808.04	25830
808.182	25833
808.324	25989
808.465	25974
808.607	26050
808.749	26195
808.891	26453
809.033	26362
809.174	26400
809.316	26282
809.458	26282
809.6	26278
809.741	26248
809.883	26336
810.025	26492
810.166	26347
810.308	26442
810.45	26442
810.591	26503
810.733	26221
810.875	26183
811.016	26065
811.158	26062
811.299	26313
811.441	26328
811.582	26332
811.724	26164
811.865	26069
812.007	26081
812.148	26138
812.29	26168
812.431	26183
812.573	26533
812.714	26469
812.855	26602
812.997	26731
813.138	26724
813.279	26724
813.421	26644
813.562	26583
813.703	26549
813.845	26347
813.986	26001
814.127	25803
814.268	25731
814.41	25727
814.551	25734
814.692	25563
814.833	25666
814.974	25708
815.115	25533
815.256	25548
815.397	25438
815.539	25601
815.68	25525
815.821	25377
815.962	25422
816.103	25369
816.244	25327
816.385	25251
816.526	25251
816.666	25088
816.807	24871
816.948	24958
817.089	24996
817.23	24783
817.371	24772
817.512	24882
817.653	24726
817.793	24825
817.934	24745
818.075	24726
818.216	24776
818.356	24757
818.497	24604
818.638	24483
818.778	24502
818.919	24448
819.06	24479
819.2	24525
819.341	24665
819.481	24688
819.622	24814
819.762	25080
819.903	24909
820.043	24913
820.184	24848
820.324	24726
820.465	24970
820.605	24817
820.746	24825
820.886	24665
821.026	24692
821.167	24757
821.307	24814
821.447	24608
821.588	24646
821.728	24475
821.868	24258
822.008	24114
822.149	24155
822.289	24194
822.429	23866
822.569	23813
822.709	23741
822.849	23638
822.99	23657
823.13	23436
823.27	23425
823.41	23299
823.55	23368
823.69	23372
823.83	23376
823.97	23269
824.11	23159
824.25	23124
824.389	23223
824.529	23307
824.669	23155
824.809	23170
824.949	23189
825.089	23181
825.228	23102
825.368	23010
825.508	22949
825.648	22968
825.787	22911
825.927	23041
826.067	22831
826.206	22885
826.346	22987
826.485	22953
826.625	22896
826.765	23006
826.904	22930
827.044	22584
827.183	22615
827.323	22691
827.462	22596
827.601	22569
827.741	22554
827.88	22531
828.02	22402
828.159	22626
828.298	22550
828.437	22706
828.577	22497
828.716	22698
828.855	22580
828.994	22390
829.134	22352
829.273	22500
829.412	22348
829.551	22272
829.69	22280
829.829	22295
829.968	22363
830.107	22253
830.246	22238
830.385	22303
830.524	22299
830.663	22044
830.802	22063
830.941	21915
831.08	21842
831.219	21865
831.357	21934
831.496	22048
831.635	21892
831.774	21671
831.913	21823
832.051	21781
832.19	21633
832.329	21766
832.467	21599
832.606	21534
832.744	21378
832.883	21428
833.022	21515
833.16	21488
833.299	21591
833.437	21564
833.576	21553
833.714	21507
833.852	21443
833.991	21724
834.129	21675
834.267	21542
834.406	21587
834.544	21492
834.682	21412
834.821	21515
834.959	21793
835.097	21507
835.235	21538
835.373	21530
835.511	21564
835.65	21450
835.788	21378
835.926	21199
836.064	21116
836.202	21264
836.34	21424
836.478	21416
836.615	21245
836.753	21313
836.891	21382
837.029	21367
837.167	21386
837.305	21382
837.443	21260
837.58	21245
837.718	21230
837.856	21184
837.993	21184
838.131	21176
838.269	21009
838.406	21203
838.544	21074
838.681	20952
838.819	20861
838.956	20655
839.094	20697
839.231	20716
839.369	20857
839.506	20967
839.643	20895
839.781	20727
839.918	20613
840.055	20792
840.193	20560
840.33	20583
840.467	20568
840.604	20682
840.742	20899
840.879	20438
841.016	20473
841.153	20533
841.29	20640
841.427	20651
841.564	20621
841.701	20552
841.838	20351
841.975	20476
842.112	20503
842.249	20271
842.385	20317
842.522	20514
842.659	20400
842.796	20259
842.933	20385
843.069	20240
843.206	20157
843.343	20461
843.479	20351
843.616	20275
843.752	20069
843.889	19978
844.025	20218
844.162	20088
844.298	20062
844.435	20005
844.571	20065
844.708	20134
844.844	20256
844.98	20161
845.117	20039
845.253	20054
845.389	19955
845.525	19963
845.661	19947
845.798	19849
845.934	19833
846.07	19845
846.206	19875
846.342	19879
846.478	19849
846.614	19567
846.75	19537
846.886	19457
847.022	19601
847.158	19662
847.294	19438
847.429	19578
847.565	19441
847.701	19746
847.837	19228
847.972	19122
848.108	19312
848.244	19339
848.379	19225
848.515	19099
848.65	19118
848.786	19080
848.921	19114
849.057	19175
849.192	19141
849.328	19061
849.463	18989
849.598	19076
849.734	18973
849.869	18867
850.004	18935
850.14	18878
850.275	18806
850.41	18757
850.545	18768
850.68	18829
850.815	18833
850.95	18791
851.085	18996
851.22	18894
851.355	18798
851.49	18684
851.625	18707
851.76	18821
851.895	18715
852.03	18631
852.165	18734
852.299	18825
852.434	18867
852.569	18791
852.703	18829
852.838	18817
852.973	18901
853.107	18859
853.242	18768
853.376	18589
853.511	18521
853.645	18441
853.78	18783
853.914	18540
854.048	18616
854.183	18646
854.317	18646
854.451	18779
854.585	18623
854.72	18669
854.854	18730
854.988	18646
855.122	18555
855.256	18563
855.39	18658
855.524	18722
855.658	18700
855.792	18722
855.926	18620
856.06	18566
856.194	18673
856.327	18601
856.461	18532
856.595	18532
856.729	18547
856.862	18688
856.996	18559
857.13	18601
857.263	18582
857.397	18779
857.53	18559
857.664	18608
857.797	18745
857.931	18654
858.064	18604
858.197	18741
858.331	18642
858.464	18589
858.597	18433
858.731	18540
858.864	18563
858.997	18566
859.13	18517
859.263	18608
859.396	18696
859.529	18517
859.662	18502
859.795	18483
859.928	18525
860.061	18616
860.194	18806
860.327	18566
860.46	18597
860.592	18703
860.725	18738
860.858	18646
860.99	18540
861.123	18441
861.256	18471
861.388	18506
861.521	19354
861.653	18422
861.786	18410
861.918	18445
862.05	18490
862.183	18521
862.315	18582
862.447	18616
862.58	18494
862.712	18376
862.844	18270
862.976	18445
863.108	18509
863.24	18768
863.372	18289
863.504	18414
863.636	18194
863.768	18342
863.9	18235
864.032	18232
864.164	18228
864.296	18220
864.428	18296
864.559	18338
864.691	18262
864.823	18270
864.954	18266
865.086	18277
865.217	18110
865.349	18197
865.48	18281
865.612	18182
865.743	18296
865.875	18178
866.006	18182
866.137	18178
866.269	18140
866.4	18163
866.531	18091
866.662	18087
866.793	18182
866.924	18072
867.055	18155
867.186	18121
867.317	18190
867.448	18083
867.579	18064
867.71	18076
867.841	18019
867.972	18171
868.103	18076
868.233	18110
868.364	18102
868.495	18232
868.625	18395
868.756	18528
868.886	18277
869.017	18380
869.147	18433
869.278	18467
869.408	18308
869.539	18334
869.669	18426
869.799	18475
869.929	18475
870.06	18559
870.19	18734
870.32	18547
870.45	18616
870.58	18764
870.71	18825
870.84	18989
870.97	18700
871.1	18871
871.23	18852
871.36	18977
871.489	18837
871.619	18753
871.749	18989
871.879	18962
872.008	19057
872.138	18878
872.267	19015
872.397	18814
872.526	18798
872.656	18867
872.785	18802
872.915	19000
873.044	19027
873.173	18966
873.303	19046
873.432	19122
873.561	19084
873.69	19061
873.819	19023
873.948	19141
874.077	18970
874.206	18901
874.335	19012
874.464	19206
874.593	19251
874.722	19091
874.851	19244
874.979	19183
875.108	19308
875.237	19164
875.365	19156
875.494	19141
875.623	19392
875.751	19274
875.88	19278
876.008	19384
876.136	19525
876.265	19632
876.393	19795
876.521	19738
876.65	19791
876.778	19677
876.906	19635
877.034	19609
877.162	19559
877.29	19643
877.418	19578
877.546	19666
877.674	19628
877.802	19616
877.93	19677
878.058	19666
878.185	19674
878.313	19693
878.441	19643
878.568	19449
878.696	19639
878.824	19700
878.951	19696
879.079	19830
879.206	19951
879.333	19879
879.461	19658
879.588	19814
879.715	19856
879.842	20016
879.97	19727
880.097	19635
880.224	19468
880.351	19556
880.478	19563
880.605	19480
880.732	19582
880.859	19731
880.986	19582
881.112	19491
881.239	19403
881.366	19175
881.493	19217
881.619	19084
881.746	19107
881.872	19183
881.999	19126
882.125	19061
882.252	19175
882.378	19213
882.505	19278
882.631	19065
882.757	18897
882.883	18993
883.01	18894
883.136	18837
883.262	18741
883.388	18719
883.514	18863
883.64	18897
883.766	18821
883.892	18776
884.018	18776
884.143	18856
884.269	18932
884.395	18646
884.52	18509
884.646	18684
884.772	18437
884.897	18460
885.023	18597
885.148	18715
885.274	18798
885.399	18681
885.524	18582
885.65	18494
885.775	18494
885.9	18494
886.025	18700
886.15	18486
886.275	18536
886.4	18502
886.525	18521
886.65	18407
886.775	18570
886.9	18620
887.025	18749
887.149	18547
887.274	18232
887.399	18315
887.523	18365
887.648	18190
887.773	18289
887.897	18429
888.021	18330
888.146	18178
888.27	18467
888.395	18475
888.519	18296
888.643	18353
888.767	18357
888.891	18174
889.015	18178
889.139	18243
889.263	18121
889.387	18258
889.511	18311
889.635	18247
889.759	18095
889.883	18140
890.006	18174
890.13	18235
890.254	18060
890.377	18030
890.501	17866
890.624	17897
890.748	17954
890.871	17863
890.995	17718
891.118	17680
891.241	17767
891.364	17741
891.488	18007
891.611	17783
891.734	17756
891.857	17832
891.98	17729
892.103	17630
892.226	17767
892.349	17729
892.471	17551
892.594	17684
892.717	17737
892.839	17718
892.962	17764
893.085	17653
893.207	17703
893.33	17653
893.452	17573
893.575	17741
893.697	17630
893.819	17760
893.941	17832
894.064	17779
894.186	17611
894.308	17676
894.43	17843
894.552	17824
894.674	17707
894.796	17547
894.918	17684
895.04	17756
895.161	17722
895.283	17741
895.405	17684
895.526	17695
895.648	17767
895.769	17847
895.891	17699
896.012	17885
896.134	17764
896.255	17824
896.376	17775
896.498	17775
896.619	17760
896.74	17802
896.861	17866
896.982	18087
897.103	18220
897.224	18125
897.345	17965
897.466	17897
897.587	17992
897.708	18167
897.828	18064
897.949	17946
898.07	17817
898.19	17950
898.311	18072
898.431	17897
898.552	18095
898.672	18079
898.792	17958
898.913	18022
899.033	17920
899.153	17878
899.273	17767
899.393	17809
899.513	17817
899.633	17805
899.753	17840
899.873	17767
899.993	17851
900.113	17714
900.232	17783
900.352	17707
900.472	17630
900.591	17665
900.711	17608
900.83	17539
900.95	17710
901.069	17726
901.189	17516
901.308	17307
901.427	17250
901.546	17208
901.665	17250
901.784	17337
901.904	17052
902.023	16991
902.141	16835
902.26	16759
902.379	16854
902.498	16660
902.617	16733
902.735	16782
902.854	16774
902.973	16755
903.091	16478
903.21	16421
903.328	16398
903.446	16409
903.565	16356
903.683	16284
903.801	16124
903.919	16265
904.038	16196
904.156	16082
904.274	16185
904.392	16025
904.51	15987
904.627	16025
904.745	16051
904.863	16135
904.981	15880
905.098	15686
905.216	15671
905.334	15766
905.451	15713
905.569	15656
905.686	15759
905.803	15595
905.921	15625
906.038	15663
906.155	15443
906.272	15466
906.389	15473
906.506	15264
906.623	15260
906.74	15222
906.857	15085
906.974	15142
907.091	15199
907.208	15386
907.324	15355
907.441	15157
907.557	15081
907.674	14933
907.79	15005
907.907	15017
908.023	14937
908.139	15013
908.256	14819
908.372	14750
908.488	14792
908.604	14678
908.72	14640
908.836	14602
908.952	14587
909.068	14625
909.184	14834
909.3	14663
909.415	14651
909.531	14617
909.647	14495
909.762	14412
909.878	14393
909.993	14393
910.108	14454
910.224	14336
910.339	14351
910.454	14233
910.57	14244
910.685	14084
910.8	14408
910.915	14351
911.03	14195
911.145	14027
911.259	14008
911.374	13974
911.489	13970
911.604	13906
911.718	13712
911.833	13788
911.947	13571
912.062	13696
912.176	13700
912.291	13731
912.405	13689
912.519	13940
912.633	13993
912.748	13788
912.862	13750
912.976	13677
913.09	13499
913.204	13552
913.318	13620
913.431	13639
913.545	13769
913.659	13674
913.772	13552
913.886	13476
914	13434
914.113	13590
914.226	13559
914.34	13514
914.453	13339
914.566	13537
914.68	13411
914.793	13369
914.906	13152
915.019	13198
915.132	13091
915.245	13118
915.358	13046
915.47	13194
915.583	13080
915.696	13141
915.809	13266
915.921	13274
916.034	13137
916.146	13053
916.259	13084
916.371	13126
916.483	13076
916.595	13057
916.708	12935
916.82	12806
916.932	12932
917.044	12894
917.156	12928
917.268	12741
917.38	12871
917.491	12776
917.603	12787
917.715	12962
917.826	12920
917.938	12783
918.049	12662
918.161	12825
918.272	12913
918.384	12901
918.495	12760
918.606	12650
918.717	12555
918.828	12650
918.939	12738
919.05	12502
919.161	12604
919.272	12410
919.383	12429
919.494	12639
919.604	12795
919.715	12601
919.826	12467
919.936	12597
920.047	12673
920.157	12597
920.267	12810
920.378	12566
920.488	12566
920.598	12722
920.708	12840
920.818	12703
920.928	12764
921.038	12913
921.148	12897
921.258	12570
921.368	12437
921.477	12418
921.587	12391
921.697	12209
921.806	12277
921.916	12209
922.025	12083
922.134	12064
922.244	11958
922.353	12019
922.462	11920
922.571	11859
922.68	11707
922.789	11642
922.898	11691
923.007	11646
923.116	11699
923.224	11684
923.333	11615
923.442	11547
923.55	11497
923.659	11433
923.767	11634
923.876	11501
923.984	11524
924.092	11478
924.201	11398
924.309	11467
924.417	11539
924.525	11410
924.633	11402
924.741	12380
924.849	11265
924.956	11391
925.064	11250
925.172	11140
925.279	11227
925.387	11261
925.494	11143
925.602	11334
925.709	11280
925.816	11109
925.924	11181
926.031	11303
926.138	11067
926.245	11208
926.352	11098
926.459	11178
926.566	11322
926.673	11064
926.779	11045
926.886	11067
926.993	10869
927.099	10786
927.206	10801
927.312	10801
927.419	10949
927.525	10816
927.631	10908
927.737	10767
927.843	10767
927.95	10550
928.056	10687
928.162	10755
928.267	10786
928.373	11269
928.479	10744
928.585	10558
928.69	10660
928.796	10656
928.901	10596
929.007	10440
929.112	10535
929.218	10497
929.323	10512
929.428	10421
929.533	10596
929.638	10306
929.743	10470
929.848	10493
929.953	10367
930.058	10295
930.163	10135
930.267	10173
930.372	10291
930.477	10128
930.581	10424
930.685	10234
930.79	10067
930.894	10139
930.998	10059
931.103	10139
931.207	9816
931.311	9755
931.415	9770
931.519	9454
931.623	9485
