Data from test_V78500241_1626.txt Node
Date: Fri Mar 25 14:45:02 CST 2022
User: usil
Spectrometer: V785-0024
Trigger mode: 0
Integration Time (sec): 4.000000E-1
Scans to average: 1
Nonlinearity correction enabled: false
Boxcar width: 0
Storing dark spectrum: false
XAxis mode: Wavelengths
Number of Pixels in Spectrum: 1024
>>>>>Begin Spectral Data<<<<<
801.071	22291
801.214	22219
801.356	22021
801.499	21998
801.641	21679
801.783	21759
801.926	21701
802.068	21644
802.211	21701
802.353	21557
802.496	21226
802.638	21279
802.78	21176
802.923	21294
803.065	21009
803.208	21089
803.35	21058
803.492	21131
803.635	21237
803.777	21173
803.919	21169
804.061	21428
804.204	21096
804.346	20956
804.488	20948
804.63	21047
804.773	20883
804.915	20979
805.057	21074
805.199	20899
805.341	20979
805.483	21119
805.626	20979
805.768	21017
805.91	20952
806.052	21005
806.194	20929
806.336	21138
806.478	20929
806.62	20982
806.762	20979
806.904	21154
807.046	21389
807.188	21245
807.33	21298
807.472	21374
807.614	21207
807.756	21256
807.898	21188
808.04	21077
808.182	21058
808.324	21104
808.465	21211
808.607	21344
808.749	21397
808.891	21393
809.033	21572
809.174	21481
809.316	21542
809.458	21401
809.6	21401
809.741	21477
809.883	21591
810.025	21625
810.166	21473
810.308	21507
810.45	21492
810.591	21389
810.733	21252
810.875	21119
811.016	21051
811.158	21058
811.299	21222
811.441	21272
811.582	21329
811.724	21150
811.865	21169
812.007	21123
812.148	21123
812.29	21154
812.431	21222
812.573	21485
812.714	21507
812.855	21610
812.997	21717
813.138	21975
813.279	21823
813.421	21728
813.562	21564
813.703	21431
813.845	21306
813.986	21165
814.127	20883
814.268	20792
814.41	20682
814.551	20667
814.692	20849
814.833	20689
814.974	20724
815.115	20667
815.256	20507
815.397	20571
815.539	20568
815.68	20408
815.821	20427
815.962	20442
816.103	20358
816.244	20111
816.385	20100
816.526	20157
816.666	20077
816.807	19894
816.948	19940
817.089	19921
817.23	19864
817.371	19818
817.512	19890
817.653	19807
817.793	19936
817.934	19803
818.075	19898
818.216	19902
818.356	19723
818.497	19601
818.638	19502
818.778	19464
818.919	19426
819.06	19529
819.2	19658
819.341	19727
819.481	19601
819.622	19769
819.762	20115
819.903	19887
820.043	19913
820.184	19788
820.324	19788
820.465	19898
820.605	19894
820.746	19871
820.886	19727
821.026	19769
821.167	19674
821.307	19769
821.447	19746
821.588	19559
821.728	19464
821.868	19274
822.008	19198
822.149	19160
822.289	19217
822.429	19004
822.569	18897
822.709	18859
822.849	18627
822.99	18753
823.13	18650
823.27	18665
823.41	18642
823.55	18323
823.69	18494
823.83	18441
823.97	18464
824.11	18254
824.25	18148
824.389	18216
824.529	18308
824.669	18315
824.809	18407
824.949	18350
825.089	18365
825.228	18228
825.368	18152
825.508	18117
825.648	18144
825.787	18144
825.927	17973
826.067	18003
826.206	17999
826.346	18125
826.485	18079
826.625	18011
826.765	18102
826.904	18114
827.044	17824
827.183	17828
827.323	17646
827.462	17748
827.601	17691
827.741	17745
827.88	17817
828.02	17608
828.159	17638
828.298	17775
828.437	17661
828.577	17680
828.716	17863
828.855	17699
828.994	17509
829.134	17524
829.273	17558
829.412	17459
829.551	17471
829.69	17501
829.829	17467
829.968	17630
830.107	17554
830.246	17528
830.385	17471
830.524	17372
830.663	17258
830.802	17227
830.941	17105
831.08	17052
831.219	17143
831.357	17117
831.496	17376
831.635	17037
831.774	16965
831.913	16949
832.051	16923
832.19	16881
832.329	16805
832.467	16949
832.606	16828
832.744	16721
832.883	16778
833.022	16755
833.16	16767
833.299	16915
833.437	16850
833.576	16862
833.714	16805
833.852	16862
833.991	16934
834.129	16900
834.267	16896
834.406	16873
834.544	16942
834.682	16938
834.821	16790
834.959	16980
835.097	16740
835.235	16919
835.373	16835
835.511	16831
835.65	16858
835.788	16717
835.926	16664
836.064	16569
836.202	16500
836.34	16866
836.478	16790
836.615	16698
836.753	16774
836.891	16911
837.029	16824
837.167	16561
837.305	16717
837.443	16497
837.58	16641
837.718	16634
837.856	16603
837.993	16451
838.131	16630
838.269	16531
838.406	16588
838.544	16519
838.681	16272
838.819	16265
838.956	16063
839.094	16150
839.231	16109
839.369	16249
839.506	16580
839.643	16405
839.781	16200
839.918	16071
840.055	16204
840.193	16207
840.33	16120
840.467	16074
840.604	16219
840.742	16405
840.879	16017
841.016	16021
841.153	16017
841.29	16200
841.427	16105
841.564	16204
841.701	16086
841.838	16109
841.975	16013
842.112	16074
842.249	16032
842.385	15819
842.522	16010
842.659	15918
842.796	15857
842.933	15869
843.069	15888
843.206	15831
843.343	15994
843.479	15945
843.616	15884
843.752	15728
843.889	15633
844.025	15884
844.162	15743
844.298	15743
844.435	15736
844.571	15622
844.708	15888
844.844	15945
844.98	15918
845.117	15759
845.253	15622
845.389	15599
845.525	15633
845.661	15610
845.798	15637
845.934	15622
846.07	15534
846.206	15682
846.342	15599
846.478	15545
846.614	15344
846.75	15180
846.886	15321
847.022	15348
847.158	15233
847.294	15294
847.429	15344
847.565	15230
847.701	15363
847.837	15093
847.972	14960
848.108	15051
848.244	15039
848.379	14883
848.515	14861
848.65	14701
848.786	14902
848.921	14853
849.057	14849
849.192	14925
849.328	14979
849.463	14887
849.598	14880
849.734	14754
849.869	14750
850.004	14636
850.14	14727
850.275	14651
850.41	14587
850.545	14644
850.68	14648
850.815	14651
850.95	14503
851.085	14853
851.22	14651
851.355	14587
851.49	14571
851.625	14632
851.76	14590
851.895	14568
852.03	14381
852.165	14579
852.299	14610
852.434	14731
852.569	14693
852.703	14743
852.838	14606
852.973	14807
853.107	14735
853.242	14678
853.376	14530
853.511	14351
853.645	14454
853.78	14518
853.914	14503
854.048	14499
854.183	14495
854.317	14495
854.451	14667
854.585	14438
854.72	14518
854.854	14552
854.988	14415
855.122	14507
855.256	14309
855.39	14465
855.524	14552
855.658	14644
855.792	14530
855.926	14549
856.06	14575
856.194	14610
856.327	14590
856.461	14427
856.595	14434
856.729	14385
856.862	14587
856.996	14564
857.13	14507
857.263	14659
857.397	14571
857.53	14530
857.664	14556
857.797	14499
857.931	14560
858.064	14564
858.197	14598
858.331	14431
858.464	14434
858.597	14442
858.731	14613
858.864	14412
858.997	14282
859.13	14446
859.263	14552
859.396	14629
859.529	14450
859.662	14396
859.795	14480
859.928	14492
860.061	14621
860.194	14678
860.327	14556
860.46	14423
860.592	14625
860.725	14571
860.858	14590
860.99	14552
861.123	14374
861.256	14396
861.388	14446
861.521	15195
861.653	14370
861.786	14317
861.918	14351
862.05	14400
862.183	14511
862.315	14473
862.447	14549
862.58	14415
862.712	14191
862.844	14138
862.976	14240
863.108	14252
863.24	14731
863.372	14248
863.504	14214
863.636	14195
863.768	14408
863.9	14233
864.032	14206
864.164	14278
864.296	14164
864.428	14419
864.559	14313
864.691	14301
864.823	14237
864.954	14290
865.086	14324
865.217	14298
865.349	14092
865.48	14164
865.612	14339
865.743	14358
865.875	14263
866.006	14195
866.137	14298
866.269	14240
866.4	14180
866.531	14161
866.662	14225
866.793	14157
866.924	14195
867.055	14267
867.186	14256
867.317	14214
867.448	14134
867.579	14191
867.71	14252
867.841	14168
867.972	14214
868.103	14240
868.233	14339
868.364	14400
868.495	14366
868.625	14473
868.756	14571
868.886	14419
869.017	14560
869.147	14663
869.278	14606
869.408	14545
869.539	14499
869.669	14640
869.799	14568
869.929	14644
870.06	14640
870.19	14845
870.32	14819
870.45	14887
870.58	14952
870.71	15036
870.84	15009
870.97	14975
871.1	14838
871.23	15070
871.36	15024
871.489	14910
871.619	15001
871.749	14975
871.879	15173
872.008	15150
872.138	15157
872.267	15077
872.397	14864
872.526	14921
872.656	14811
872.785	14986
872.915	15039
873.044	15138
873.173	15100
873.303	15173
873.432	15237
873.561	15226
873.69	15135
873.819	15135
873.948	15188
874.077	15272
874.206	15097
874.335	15138
874.464	15272
874.593	15386
874.722	15397
874.851	15477
874.979	15488
875.108	15542
875.237	15325
875.365	15363
875.494	15363
875.623	15481
875.751	15336
875.88	15428
876.008	15511
876.136	15633
876.265	15800
876.393	15907
876.521	15880
876.65	16006
876.778	15972
876.906	15861
877.034	15812
877.162	15759
877.29	15819
877.418	15873
877.546	15888
877.674	15766
877.802	15907
877.93	15907
878.058	15827
878.185	15816
878.313	15876
878.441	15857
878.568	15732
878.696	15755
878.824	15968
878.951	16044
879.079	16067
879.206	16226
879.333	16032
879.461	15915
879.588	15960
879.715	16238
879.842	16177
879.97	15949
880.097	15701
880.224	15743
880.351	15770
880.478	15652
880.605	15618
880.732	15778
880.859	15983
880.986	15717
881.112	15694
881.239	15629
881.366	15462
881.493	15424
881.619	15329
881.746	15348
881.872	15431
881.999	15382
882.125	15317
882.252	15397
882.378	15481
882.505	15439
882.631	15306
882.757	15207
882.883	15260
883.01	15222
883.136	15173
883.262	15180
883.388	14998
883.514	15230
883.64	15203
883.766	15188
883.892	15070
884.018	15013
884.143	15226
884.269	15359
884.395	14937
884.52	14845
884.646	14990
884.772	14746
884.897	14845
885.023	14826
885.148	14937
885.274	14941
885.399	15036
885.524	14853
885.65	14895
885.775	14948
885.9	14906
886.025	15001
886.15	14929
886.275	14845
886.4	14792
886.525	14838
886.65	14807
886.775	14861
886.9	14975
887.025	15081
887.149	14842
887.274	14678
887.399	14708
887.523	14667
887.648	14568
887.773	14556
887.897	14750
888.021	14895
888.146	14739
888.27	14834
888.395	14902
888.519	14792
888.643	14777
888.767	14716
888.891	14590
889.015	14587
889.139	14606
889.263	14545
889.387	14682
889.511	14705
889.635	14819
889.759	14495
889.883	14537
890.006	14590
890.13	14629
890.254	14499
890.377	14465
890.501	14343
890.624	14248
890.748	14446
890.871	14336
890.995	14191
891.118	14301
891.241	14202
891.364	14252
891.488	14366
891.611	14332
891.734	14278
891.857	14362
891.98	14305
892.103	14374
892.226	14305
892.349	14210
892.471	14046
892.594	14180
892.717	14240
892.839	14237
892.962	14225
893.085	14294
893.207	14286
893.33	14187
893.452	14176
893.575	14320
893.697	14206
893.819	14488
893.941	14499
894.064	14450
894.186	14301
894.308	14229
894.43	14396
894.552	14465
894.674	14389
894.796	14313
894.918	14381
895.04	14286
895.161	14415
895.283	14404
895.405	14324
895.526	14358
895.648	14415
895.769	14343
895.891	14507
896.012	14446
896.134	14446
896.255	14507
896.376	14427
896.498	14423
896.619	14457
896.74	14431
896.861	14526
896.982	14800
897.103	14960
897.224	14788
897.345	14682
897.466	14629
897.587	14655
897.708	14796
897.828	14659
897.949	14720
898.07	14579
898.19	14530
898.311	14823
898.431	14682
898.552	14792
898.672	14872
898.792	14830
898.913	14754
899.033	14651
899.153	14644
899.273	14495
899.393	14571
899.513	14674
899.633	14602
899.753	14712
899.873	14579
899.993	14678
900.113	14663
900.232	14693
900.352	14606
900.472	14530
900.591	14427
900.711	14537
900.83	14438
900.95	14663
901.069	14541
901.189	14461
901.308	14339
901.427	14187
901.546	14229
901.665	14172
901.784	14263
901.904	14092
902.023	14096
902.141	13784
902.26	13769
902.379	13765
902.498	13769
902.617	13715
902.735	13753
902.854	13811
902.973	13658
903.091	13518
903.21	13339
903.328	13506
903.446	13388
903.565	13384
903.683	13331
903.801	13240
903.919	13301
904.038	13293
904.156	13099
904.274	13171
904.392	13187
904.51	13129
904.627	13050
904.745	13179
904.863	13194
904.981	12939
905.098	12863
905.216	12871
905.334	12814
905.451	12859
905.569	12738
905.686	12867
905.803	12798
905.921	12623
906.038	12783
906.155	12620
906.272	12555
906.389	12536
906.506	12391
906.623	12391
906.74	12289
906.857	12311
906.974	12205
907.091	12437
907.208	12578
907.324	12338
907.441	12334
907.557	12095
907.674	12117
907.79	11980
907.907	12114
908.023	12167
908.139	12159
908.256	12034
908.372	12091
908.488	11939
908.604	11931
908.72	11847
908.836	11916
908.952	11923
909.068	11912
909.184	12030
909.3	11859
909.415	12007
909.531	11885
909.647	11733
909.762	11627
909.878	11642
909.993	11684
910.108	11619
910.224	11646
910.339	11623
910.454	11551
910.57	11535
910.685	11520
910.8	11733
910.915	11703
911.03	11577
911.145	11288
911.259	11349
911.374	11330
911.489	11356
911.604	11307
911.718	11140
911.833	11098
911.947	11029
912.062	10995
912.176	11041
912.291	11212
912.405	11121
912.519	11296
912.633	11246
912.748	11189
912.862	11124
912.976	11060
913.09	10801
913.204	10980
913.318	11045
913.431	10995
913.545	11124
913.659	11132
913.772	10980
913.886	10896
914	10858
914.113	10946
914.226	11003
914.34	10976
914.453	10812
914.566	10995
914.68	10854
914.793	10793
914.906	10630
915.019	10603
915.132	10615
915.245	10653
915.358	10710
915.47	10573
915.583	10694
915.696	10656
915.809	10706
915.921	10778
916.034	10630
916.146	10580
916.259	10474
916.371	10622
916.483	10679
916.595	10535
916.708	10550
916.82	10577
916.932	10497
917.044	10504
917.156	10394
917.268	10413
917.38	10428
917.491	10428
917.603	10489
917.715	10558
917.826	10580
917.938	10474
918.049	10329
918.161	10432
918.272	10554
918.384	10573
918.495	10451
918.606	10352
918.717	10257
918.828	10333
918.939	10421
919.05	10306
919.161	10284
919.272	10078
919.383	10166
919.494	10394
919.604	10527
919.715	10424
919.826	10253
919.936	10268
920.047	10402
920.157	10382
920.267	10546
920.378	10409
920.488	10379
920.598	10531
920.708	10645
920.818	10558
920.928	10455
921.038	10694
921.148	10683
921.258	10398
921.368	10348
921.477	10169
921.587	10169
921.697	10040
921.806	10188
921.916	10063
922.025	9975
922.134	9911
922.244	9842
922.353	9892
922.462	9835
922.571	9751
922.68	9633
922.789	9587
922.898	9561
923.007	9519
923.116	9675
923.224	9481
923.333	9530
923.442	9481
923.55	9397
923.659	9469
923.767	9545
923.876	9405
923.984	9488
924.092	9374
924.201	9370
924.309	9473
924.417	9397
924.525	9416
924.633	9397
924.741	10188
924.849	9268
924.956	9329
925.064	9291
925.172	9089
925.279	9241
925.387	9218
925.494	9279
925.602	9313
925.709	9287
925.816	9169
925.924	9294
926.031	9332
926.138	9275
926.245	9310
926.352	9116
926.459	9291
926.566	9317
926.673	9230
926.779	9119
926.886	9116
926.993	8941
927.099	8948
927.206	8876
927.312	8902
927.419	8975
927.525	8948
927.631	9001
927.737	8899
927.843	8804
927.95	8697
928.056	8853
928.162	8842
928.267	8914
928.373	9458
928.479	8921
928.585	8724
928.69	8880
928.796	8880
928.901	8769
929.007	8629
929.112	8811
929.218	8766
929.323	8613
929.428	8590
929.533	8819
929.638	8602
929.743	8655
929.848	8724
929.953	8667
930.058	8507
930.163	8400
930.267	8434
930.372	8564
930.477	8355
930.581	8663
930.685	8450
930.79	8320
930.894	8385
930.998	8423
931.103	8522
931.207	8172
931.311	8073
931.415	8050
931.519	7906
931.623	7799
