Data from test_V78500241_1471.txt Node
Date: Fri Mar 25 14:43:57 CST 2022
User: usil
Spectrometer: V785-0024
Trigger mode: 0
Integration Time (sec): 4.000000E-1
Scans to average: 1
Nonlinearity correction enabled: false
Boxcar width: 0
Storing dark spectrum: false
XAxis mode: Wavelengths
Number of Pixels in Spectrum: 1024
>>>>>Begin Spectral Data<<<<<
801.071	22386
801.214	22299
801.356	22044
801.499	21983
801.641	21785
801.783	21663
801.926	21732
802.068	21762
802.211	21614
802.353	21614
802.496	21485
802.638	21287
802.78	21252
802.923	21100
803.065	21165
803.208	21154
803.35	21169
803.492	21230
803.635	21180
803.777	21032
803.919	21100
804.061	21492
804.204	21142
804.346	20975
804.488	20982
804.63	20994
804.773	21032
804.915	21020
805.057	21165
805.199	21020
805.341	21173
805.483	21127
805.626	21119
805.768	20975
805.91	21051
806.052	21036
806.194	20872
806.336	21138
806.478	21184
806.62	21024
806.762	20944
806.904	21074
807.046	21431
807.188	21370
807.33	21389
807.472	21496
807.614	21306
807.756	21222
807.898	21378
808.04	21161
808.182	21222
808.324	21332
808.465	21298
808.607	21496
808.749	21595
808.891	21679
809.033	21937
809.174	21713
809.316	21583
809.458	21625
809.6	21614
809.741	21686
809.883	21561
810.025	21694
810.166	21690
810.308	21583
810.45	21603
810.591	21428
810.733	21393
810.875	21283
811.016	21161
811.158	21180
811.299	21241
811.441	21245
811.582	21302
811.724	21275
811.865	21211
812.007	21184
812.148	21241
812.29	21317
812.431	21500
812.573	21671
812.714	21622
812.855	21831
812.997	21717
813.138	21888
813.279	21854
813.421	21743
813.562	21679
813.703	21447
813.845	21401
813.986	21085
814.127	20872
814.268	20864
814.41	20921
814.551	20849
814.692	20689
814.833	20621
814.974	20716
815.115	20807
815.256	20526
815.397	20602
815.539	20629
815.68	20541
815.821	20465
815.962	20427
816.103	20450
816.244	20389
816.385	20431
816.526	20164
816.666	20092
816.807	19940
816.948	20016
817.089	20100
817.23	19982
817.371	19864
817.512	19913
817.653	19978
817.793	19826
817.934	19921
818.075	19947
818.216	19833
818.356	19837
818.497	19734
818.638	19620
818.778	19635
818.919	19616
819.06	19537
819.2	19871
819.341	19746
819.481	19784
819.622	19883
819.762	20092
819.903	20050
820.043	19951
820.184	19894
820.324	19932
820.465	19989
820.605	19807
820.746	19856
820.886	19708
821.026	19852
821.167	19887
821.307	19856
821.447	19803
821.588	19708
821.728	19521
821.868	19464
822.008	19331
822.149	19251
822.289	19202
822.429	19137
822.569	19046
822.709	18890
822.849	18787
822.99	18795
823.13	18791
823.27	18719
823.41	18673
823.55	18498
823.69	18627
823.83	18509
823.97	18498
824.11	18376
824.25	18266
824.389	18296
824.529	18513
824.669	18407
824.809	18517
824.949	18414
825.089	18441
825.228	18460
825.368	18251
825.508	18159
825.648	18254
825.787	18155
825.927	18201
826.067	18064
826.206	18129
826.346	18045
826.485	18083
826.625	18049
826.765	18220
826.904	18060
827.044	17870
827.183	17840
827.323	17745
827.462	17836
827.601	17775
827.741	17798
827.88	17859
828.02	17687
828.159	17874
828.298	17916
828.437	17999
828.577	17714
828.716	17984
828.855	17832
828.994	17615
829.134	17657
829.273	17577
829.412	17505
829.551	17558
829.69	17448
829.829	17562
829.968	17657
830.107	17726
830.246	17608
830.385	17429
830.524	17490
830.663	17455
830.802	17269
830.941	17178
831.08	17113
831.219	17155
831.357	17223
831.496	17349
831.635	17242
831.774	17003
831.913	17029
832.051	17052
832.19	16942
832.329	16987
832.467	16908
832.606	16866
832.744	16843
832.883	16839
833.022	16980
833.16	16812
833.299	16869
833.437	16911
833.576	16972
833.714	16972
833.852	16949
833.991	16866
834.129	16923
834.267	17045
834.406	16915
834.544	16949
834.682	16873
834.821	16972
834.959	17094
835.097	16873
835.235	17109
835.373	16908
835.511	16885
835.65	16915
835.788	16850
835.926	16786
836.064	16535
836.202	16710
836.34	16763
836.478	16961
836.615	16748
836.753	16862
836.891	16771
837.029	16797
837.167	16702
837.305	16683
837.443	16801
837.58	16683
837.718	16733
837.856	16653
837.993	16618
838.131	16691
838.269	16596
838.406	16706
838.544	16554
838.681	16390
838.819	16272
838.956	16226
839.094	16287
839.231	16337
839.369	16329
839.506	16630
839.643	16390
839.781	16322
839.918	16158
840.055	16215
840.193	16291
840.33	16177
840.467	16135
840.604	16306
840.742	16466
840.879	16093
841.016	16139
841.153	16128
841.29	16318
841.427	16204
841.564	16207
841.701	16246
841.838	16166
841.975	16139
842.112	16173
842.249	15953
842.385	15930
842.522	16109
842.659	16059
842.796	16044
842.933	15991
843.069	15888
843.206	15983
843.343	16063
843.479	15994
843.616	16006
843.752	15694
843.889	15759
844.025	15979
844.162	15800
844.298	15945
844.435	15812
844.571	15816
844.708	15869
844.844	16029
844.98	15880
845.117	15945
845.253	15835
845.389	15709
845.525	15876
845.661	15785
845.798	15850
845.934	15808
846.07	15816
846.206	15926
846.342	15857
846.478	15709
846.614	15420
846.75	15485
846.886	15412
847.022	15466
847.158	15393
847.294	15412
847.429	15431
847.565	15351
847.701	15606
847.837	15199
847.972	15135
848.108	15192
848.244	15100
848.379	15020
848.515	14986
848.65	15017
848.786	14872
848.921	14883
849.057	15036
849.192	15055
849.328	14902
849.463	15024
849.598	14895
849.734	14906
849.869	14849
850.004	14758
850.14	14735
850.275	14644
850.41	14655
850.545	14644
850.68	14659
850.815	14727
850.95	14720
851.085	14830
851.22	14716
851.355	14708
851.49	14659
851.625	14689
851.76	14667
851.895	14499
852.03	14636
852.165	14579
852.299	14853
852.434	14849
852.569	14758
852.703	14697
852.838	14826
852.973	14845
853.107	14906
853.242	14651
853.376	14560
853.511	14560
853.645	14613
853.78	14762
853.914	14655
854.048	14636
854.183	14499
854.317	14571
854.451	14697
854.585	14514
854.72	14575
854.854	14670
854.988	14450
855.122	14511
855.256	14374
855.39	14629
855.524	14602
855.658	14594
855.792	14545
855.926	14682
856.06	14727
856.194	14758
856.327	14575
856.461	14594
856.595	14541
856.729	14549
856.862	14560
856.996	14541
857.13	14705
857.263	14606
857.397	14636
857.53	14564
857.664	14632
857.797	14678
857.931	14826
858.064	14598
858.197	14674
858.331	14583
858.464	14545
858.597	14400
858.731	14663
858.864	14484
858.997	14499
859.13	14610
859.263	14571
859.396	14663
859.529	14575
859.662	14507
859.795	14492
859.928	14579
860.061	14735
860.194	14762
860.327	14541
860.46	14590
860.592	14644
860.725	14754
860.858	14743
860.99	14549
861.123	14518
861.256	14446
861.388	14606
861.521	15150
861.653	14473
861.786	14415
861.918	14480
862.05	14545
862.183	14629
862.315	14648
862.447	14648
862.58	14648
862.712	14419
862.844	14309
862.976	14476
863.108	14438
863.24	14811
863.372	14214
863.504	14362
863.636	14408
863.768	14336
863.9	14358
864.032	14438
864.164	14351
864.296	14450
864.428	14556
864.559	14571
864.691	14492
864.823	14454
864.954	14438
865.086	14457
865.217	14358
865.349	14389
865.48	14412
865.612	14362
865.743	14518
865.875	14469
866.006	14294
866.137	14339
866.269	14450
866.4	14324
866.531	14396
866.662	14377
866.793	14332
866.924	14271
867.055	14366
867.186	14278
867.317	14309
867.448	14259
867.579	14317
867.71	14317
867.841	14244
867.972	14377
868.103	14355
868.233	14328
868.364	14347
868.495	14545
868.625	14571
868.756	14804
868.886	14537
869.017	14583
869.147	14705
869.278	14796
869.408	14686
869.539	14636
869.669	14648
869.799	14613
869.929	14750
870.06	14792
870.19	14906
870.32	14876
870.45	14887
870.58	14994
870.71	15245
870.84	15176
870.97	14937
871.1	14975
871.23	15241
871.36	15233
871.489	15199
871.619	15188
871.749	15268
871.879	15291
872.008	15275
872.138	15275
872.267	15188
872.397	15131
872.526	15036
872.656	14960
872.785	15047
872.915	15252
873.044	15325
873.173	15256
873.303	15272
873.432	15249
873.561	15306
873.69	15256
873.819	15249
873.948	15393
874.077	15313
874.206	15279
874.335	15264
874.464	15313
874.593	15530
874.722	15469
874.851	15523
874.979	15564
875.108	15606
875.237	15500
875.365	15519
875.494	15557
875.623	15618
875.751	15507
875.88	15610
876.008	15584
876.136	15747
876.265	15945
876.393	15998
876.521	16112
876.65	16055
876.778	15983
876.906	15911
877.034	15876
877.162	16002
877.29	15907
877.418	16040
877.546	15945
877.674	15964
877.802	15975
877.93	16048
878.058	15892
878.185	15892
878.313	15911
878.441	16032
878.568	15827
878.696	15991
878.824	16021
878.951	16063
879.079	16234
879.206	16295
879.333	16230
879.461	16154
879.588	16211
879.715	16257
879.842	16322
879.97	16086
880.097	15907
880.224	15918
880.351	15960
880.478	15861
880.605	15789
880.732	15850
880.859	15960
880.986	15876
881.112	15987
881.239	15679
881.366	15660
881.493	15637
881.619	15538
881.746	15466
881.872	15572
881.999	15568
882.125	15424
882.252	15534
882.378	15591
882.505	15656
882.631	15431
882.757	15329
882.883	15355
883.01	15370
883.136	15340
883.262	15192
883.388	15207
883.514	15252
883.64	15340
883.766	15256
883.892	15237
884.018	15173
884.143	15363
884.269	15466
884.395	15135
884.52	15089
884.646	15024
884.772	15024
884.897	14967
885.023	15009
885.148	15116
885.274	15249
885.399	15218
885.524	15017
885.65	15024
885.775	15055
885.9	15070
886.025	15150
886.15	15070
886.275	14918
886.4	14963
886.525	15039
886.65	14952
886.775	14960
886.9	15192
887.025	15161
887.149	14971
887.274	14807
887.399	14857
887.523	14712
887.648	14792
887.773	14735
887.897	14944
888.021	14830
888.146	14845
888.27	14883
888.395	14921
888.519	14948
888.643	14880
888.767	14872
888.891	14701
889.015	14682
889.139	14708
889.263	14598
889.387	14845
889.511	14861
889.635	14815
889.759	14621
889.883	14663
890.006	14701
890.13	14861
890.254	14602
890.377	14651
890.501	14457
890.624	14533
890.748	14655
890.871	14511
890.995	14377
891.118	14233
891.241	14469
891.364	14415
891.488	14598
891.611	14370
891.734	14374
891.857	14446
891.98	14393
892.103	14507
892.226	14450
892.349	14393
892.471	14259
892.594	14385
892.717	14309
892.839	14317
892.962	14419
893.085	14408
893.207	14400
893.33	14267
893.452	14351
893.575	14465
893.697	14434
893.819	14526
893.941	14621
894.064	14552
894.186	14393
894.308	14457
894.43	14564
894.552	14678
894.674	14541
894.796	14431
894.918	14355
895.04	14339
895.161	14408
895.283	14541
895.405	14358
895.526	14587
895.648	14499
895.769	14556
895.891	14541
896.012	14602
896.134	14541
896.255	14537
896.376	14579
896.498	14488
896.619	14575
896.74	14442
896.861	14583
896.982	14876
897.103	15039
897.224	14769
897.345	14868
897.466	14724
897.587	14769
897.708	14876
897.828	14921
897.949	14819
898.07	14731
898.19	14762
898.311	14944
898.431	14830
898.552	14864
898.672	14960
898.792	14975
898.913	14910
899.033	14750
899.153	14807
899.273	14560
899.393	14689
899.513	14758
899.633	14838
899.753	14754
899.873	14667
899.993	14838
900.113	14754
900.232	14819
900.352	14777
900.472	14613
900.591	14598
900.711	14583
900.83	14549
900.95	14663
901.069	14625
901.189	14488
901.308	14317
901.427	14180
901.546	14320
901.665	14233
901.784	14263
901.904	14240
902.023	14073
902.141	13856
902.26	13890
902.379	13906
902.498	13875
902.617	13772
902.735	13795
902.854	13799
902.973	13765
903.091	13556
903.21	13502
903.328	13567
903.446	13514
903.565	13449
903.683	13449
903.801	13362
903.919	13381
904.038	13381
904.156	13247
904.274	13308
904.392	13236
904.51	13206
904.627	13225
904.745	13293
904.863	13377
904.981	12966
905.098	12928
905.216	12935
905.334	12905
905.451	12863
905.569	12810
905.686	12928
905.803	12844
905.921	12745
906.038	12886
906.155	12768
906.272	12570
906.389	12662
906.506	12475
906.623	12479
906.74	12525
906.857	12342
906.974	12323
907.091	12486
907.208	12585
907.324	12574
907.441	12384
907.557	12262
907.674	12216
907.79	12209
907.907	12087
908.023	12292
908.139	12159
908.256	12171
908.372	12190
908.488	12110
908.604	12011
908.72	11996
908.836	12034
908.952	11916
909.068	11996
909.184	12129
909.3	12015
909.415	11961
909.531	11973
909.647	11783
909.762	11733
909.878	11760
909.993	11748
910.108	11756
910.224	11767
910.339	11790
910.454	11752
910.57	11623
910.685	11528
910.8	11760
910.915	11783
911.03	11619
911.145	11478
911.259	11455
911.374	11490
911.489	11372
911.604	11356
911.718	11307
911.833	11239
911.947	11121
912.062	11064
912.176	11159
912.291	11242
912.405	11128
912.519	11395
912.633	11436
912.748	11334
912.862	11223
912.976	11109
913.09	11006
913.204	11025
913.318	11132
913.431	11117
913.545	11136
913.659	11197
913.772	11060
913.886	10972
914	10923
914.113	11136
914.226	11143
914.34	10995
914.453	10892
914.566	11033
914.68	10923
914.793	10843
914.906	10714
915.019	10668
915.132	10577
915.245	10698
915.358	10733
915.47	10660
915.583	10714
915.696	10820
915.809	10877
915.921	10790
916.034	10664
916.146	10660
916.259	10622
916.371	10809
916.483	10759
916.595	10672
916.708	10717
916.82	10577
916.932	10626
917.044	10603
917.156	10588
917.268	10462
917.38	10569
917.491	10527
917.603	10546
917.715	10516
917.826	10641
917.938	10485
918.049	10379
918.161	10508
918.272	10672
918.384	10664
918.495	10588
918.606	10352
918.717	10348
918.828	10436
918.939	10382
919.05	10337
919.161	10363
919.272	10211
919.383	10371
919.494	10512
919.604	10641
919.715	10421
919.826	10333
919.936	10352
920.047	10447
920.157	10508
920.267	10649
920.378	10417
920.488	10371
920.598	10561
920.708	10748
920.818	10592
920.928	10573
921.038	10679
921.148	10691
921.258	10462
921.368	10360
921.477	10272
921.587	10230
921.697	10177
921.806	10227
921.916	10150
922.025	9937
922.134	9964
922.244	9930
922.353	10025
922.462	9861
922.571	9743
922.68	9686
922.789	9660
922.898	9641
923.007	9610
923.116	9720
923.224	9686
923.333	9587
923.442	9485
923.55	9488
923.659	9599
923.767	9561
923.876	9473
923.984	9595
924.092	9431
924.201	9538
924.309	9534
924.417	9511
924.525	9477
924.633	9469
924.741	10398
924.849	9294
924.956	9431
925.064	9260
925.172	9310
925.279	9302
925.387	9310
925.494	9310
925.602	9504
925.709	9336
925.816	9154
925.924	9256
926.031	9374
926.138	9291
926.245	9355
926.352	9176
926.459	9397
926.566	9367
926.673	9249
926.779	9112
926.886	9127
926.993	8994
927.099	9009
927.206	8956
927.312	8990
927.419	9020
927.525	8948
927.631	8990
927.737	8948
927.843	8902
927.95	8804
928.056	8876
928.162	8941
928.267	8941
928.373	9469
928.479	9104
928.585	8667
928.69	8910
928.796	8861
928.901	8826
929.007	8644
929.112	8861
929.218	8781
929.323	8716
929.428	8766
929.533	8880
929.638	8636
929.743	8735
929.848	8872
929.953	8651
930.058	8632
930.163	8530
930.267	8533
930.372	8625
930.477	8476
930.581	8678
930.685	8625
930.79	8431
930.894	8484
930.998	8412
931.103	8537
931.207	8218
931.311	8202
931.415	8123
931.519	7970
931.623	7951
