Data from test_V78500241_2289.txt Node
Date: Fri Mar 25 14:49:39 CST 2022
User: usil
Spectrometer: V785-0024
Trigger mode: 0
Integration Time (sec): 4.000000E-1
Scans to average: 1
Nonlinearity correction enabled: false
Boxcar width: 0
Storing dark spectrum: false
XAxis mode: Wavelengths
Number of Pixels in Spectrum: 1024
>>>>>Begin Spectral Data<<<<<
801.071	22196
801.214	22002
801.356	21812
801.499	21793
801.641	21663
801.783	21603
801.926	21595
802.068	21511
802.211	21329
802.353	21325
802.496	21268
802.638	20910
802.78	20963
802.923	20902
803.065	20872
803.208	20864
803.35	20902
803.492	20933
803.635	20979
803.777	20826
803.919	20971
804.061	21188
804.204	20975
804.346	20921
804.488	20849
804.63	20880
804.773	20811
804.915	20754
805.057	20868
805.199	20712
805.341	20826
805.483	20921
805.626	20876
805.768	20686
805.91	20769
806.052	20731
806.194	20845
806.336	21036
806.478	20769
806.62	20785
806.762	20902
806.904	20952
807.046	21195
807.188	21211
807.33	21104
807.472	21138
807.614	20982
807.756	21066
807.898	20925
808.04	20777
808.182	20758
808.324	20944
808.465	21017
808.607	21081
808.749	21184
808.891	21203
809.033	21306
809.174	21211
809.316	21116
809.458	21226
809.6	21116
809.741	21207
809.883	21218
810.025	21420
810.166	21408
810.308	21233
810.45	21298
810.591	21192
810.733	21020
810.875	21043
811.016	20918
811.158	20864
811.299	20967
811.441	20963
811.582	21062
811.724	20994
811.865	20849
812.007	20967
812.148	20990
812.29	21055
812.431	21184
812.573	21291
812.714	21302
812.855	21462
812.997	21603
813.138	21690
813.279	21542
813.421	21431
813.562	21291
813.703	21218
813.845	21096
813.986	20914
814.127	20579
814.268	20556
814.41	20518
814.551	20473
814.692	20571
814.833	20511
814.974	20419
815.115	20370
815.256	20457
815.397	20343
815.539	20362
815.68	20210
815.821	20153
815.962	20202
816.103	20294
816.244	20115
816.385	19989
816.526	20092
816.666	19795
816.807	19723
816.948	19784
817.089	19616
817.23	19658
817.371	19708
817.512	19670
817.653	19624
817.793	19582
817.934	19693
818.075	19575
818.216	19578
818.356	19655
818.497	19415
818.638	19377
818.778	19312
818.919	19362
819.06	19377
819.2	19434
819.341	19544
819.481	19430
819.622	19647
819.762	19791
819.903	19845
820.043	19674
820.184	19643
820.324	19563
820.465	19746
820.605	19601
820.746	19552
820.886	19460
821.026	19628
821.167	19677
821.307	19632
821.447	19567
821.588	19506
821.728	19312
821.868	19194
822.008	18947
822.149	18989
822.289	18989
822.429	18825
822.569	18749
822.709	18760
822.849	18506
822.99	18467
823.13	18525
823.27	18521
823.41	18292
823.55	18281
823.69	18311
823.83	18376
823.97	18308
824.11	18041
824.25	18091
824.389	18057
824.529	18159
824.669	18155
824.809	18174
824.949	18144
825.089	18163
825.228	18041
825.368	17958
825.508	17813
825.648	17935
825.787	17866
825.927	17923
826.067	17824
826.206	17737
826.346	17908
826.485	17912
826.625	17859
826.765	17988
826.904	17961
827.044	17813
827.183	17585
827.323	17630
827.462	17680
827.601	17429
827.741	17592
827.88	17524
828.02	17467
828.159	17497
828.298	17649
828.437	17585
828.577	17417
828.716	17726
828.855	17448
828.994	17246
829.134	17284
829.273	17288
829.412	17341
829.551	17242
829.69	17311
829.829	17318
829.968	17425
830.107	17417
830.246	17284
830.385	17204
830.524	17178
830.663	17124
830.802	17094
830.941	16976
831.08	16824
831.219	17045
831.357	16987
831.496	17170
831.635	16919
831.774	16763
831.913	16771
832.051	16733
832.19	16725
832.329	16664
832.467	16599
832.606	16622
832.744	16649
832.883	16683
833.022	16626
833.16	16538
833.299	16649
833.437	16622
833.576	16607
833.714	16500
833.852	16588
833.991	16664
834.129	16740
834.267	16740
834.406	16622
834.544	16630
834.682	16596
834.821	16584
834.959	16748
835.097	16615
835.235	16774
835.373	16611
835.511	16713
835.65	16481
835.788	16504
835.926	16367
836.064	16424
836.202	16394
836.34	16436
836.478	16691
836.615	16516
836.753	16542
836.891	16618
837.029	16538
837.167	16424
837.305	16382
837.443	16382
837.58	16386
837.718	16424
837.856	16519
837.993	16356
838.131	16268
838.269	16371
838.406	16333
838.544	16287
838.681	16029
838.819	16082
838.956	15895
839.094	15926
839.231	16013
839.369	16169
839.506	16314
839.643	16215
839.781	15983
839.918	15964
840.055	15987
840.193	15922
840.33	15968
840.467	15941
840.604	15907
840.742	16261
840.879	15812
841.016	15880
841.153	15892
841.29	16006
841.427	16021
841.564	15987
841.701	15964
841.838	15876
841.975	15918
842.112	15861
842.249	15709
842.385	15667
842.522	15945
842.659	15800
842.796	15720
842.933	15660
843.069	15728
843.206	15717
843.343	15781
843.479	15679
843.616	15679
843.752	15561
843.889	15485
844.025	15751
844.162	15443
844.298	15720
844.435	15408
844.571	15431
844.708	15648
844.844	15682
844.98	15610
845.117	15656
845.253	15473
845.389	15359
845.525	15515
845.661	15382
845.798	15291
845.934	15393
846.07	15241
846.206	15355
846.342	15359
846.478	15275
846.614	15119
846.75	14979
846.886	14986
847.022	15268
847.158	15150
847.294	15005
847.429	14990
847.565	15024
847.701	15313
847.837	14861
847.972	14712
848.108	14880
848.244	14880
848.379	14693
848.515	14678
848.65	14648
848.786	14750
848.921	14769
849.057	14750
849.192	14708
849.328	14754
849.463	14800
849.598	14682
849.734	14598
849.869	14495
850.004	14503
850.14	14473
850.275	14389
850.41	14389
850.545	14415
850.68	14434
850.815	14438
850.95	14427
851.085	14655
851.22	14560
851.355	14476
851.49	14377
851.625	14393
851.76	14385
851.895	14301
852.03	14431
852.165	14431
852.299	14492
852.434	14610
852.569	14473
852.703	14393
852.838	14537
852.973	14522
853.107	14590
853.242	14415
853.376	14374
853.511	14191
853.645	14324
853.78	14480
853.914	14328
854.048	14362
854.183	14244
854.317	14294
854.451	14446
854.585	14244
854.72	14267
854.854	14286
854.988	14278
855.122	14351
855.256	14161
855.39	14267
855.524	14533
855.658	14358
855.792	14275
855.926	14336
856.06	14294
856.194	14423
856.327	14290
856.461	14221
856.595	14294
856.729	14290
856.862	14374
856.996	14404
857.13	14438
857.263	14412
857.397	14438
857.53	14309
857.664	14328
857.797	14328
857.931	14347
858.064	14389
858.197	14465
858.331	14339
858.464	14275
858.597	14237
858.731	14336
858.864	14275
858.997	14275
859.13	14259
859.263	14393
859.396	14339
859.529	14244
859.662	14206
859.795	14195
859.928	14267
860.061	14476
860.194	14533
860.327	14240
860.46	14324
860.592	14404
860.725	14412
860.858	14454
860.99	14305
861.123	14237
861.256	14305
861.388	14221
861.521	14925
861.653	14161
861.786	14126
861.918	14244
862.05	14259
862.183	14267
862.315	14343
862.447	14233
862.58	14271
862.712	14069
862.844	14024
862.976	14130
863.108	14180
863.24	14518
863.372	13997
863.504	14145
863.636	13913
863.768	14214
863.9	14138
864.032	14065
864.164	14103
864.296	14149
864.428	14229
864.559	14149
864.691	14123
864.823	14103
864.954	14145
865.086	14180
865.217	14054
865.349	14027
865.48	14043
865.612	14054
865.743	14168
865.875	14062
866.006	14100
866.137	14123
866.269	14001
866.4	13989
866.531	13978
866.662	14027
866.793	13967
866.924	14031
867.055	14081
867.186	14008
867.317	14046
867.448	13963
867.579	14024
867.71	13951
867.841	13970
867.972	14050
868.103	14024
868.233	14191
868.364	14081
868.495	14130
868.625	14282
868.756	14374
868.886	14153
869.017	14195
869.147	14499
869.278	14427
869.408	14339
869.539	14400
869.669	14385
869.799	14396
869.929	14446
870.06	14438
870.19	14670
870.32	14575
870.45	14682
870.58	14758
870.71	14796
870.84	14769
870.97	14724
871.1	14686
871.23	14902
871.36	14819
871.489	14739
871.619	14762
871.749	14807
871.879	14899
872.008	14948
872.138	14910
872.267	14914
872.397	14785
872.526	14708
872.656	14872
872.785	14727
872.915	14937
873.044	15116
873.173	14929
873.303	14990
873.432	14891
873.561	15017
873.69	14971
873.819	14956
873.948	14967
874.077	14910
874.206	15070
874.335	15024
874.464	15127
874.593	15302
874.722	15226
874.851	15287
874.979	15329
875.108	15370
875.237	15230
875.365	15233
875.494	15298
875.623	15268
875.751	15207
875.88	15264
876.008	15416
876.136	15336
876.265	15679
876.393	15755
876.521	15766
876.65	15804
876.778	15679
876.906	15705
877.034	15584
877.162	15660
877.29	15564
877.418	15675
877.546	15644
877.674	15751
877.802	15709
877.93	15667
878.058	15576
878.185	15557
878.313	15587
878.441	15717
878.568	15591
878.696	15595
878.824	15679
878.951	15713
879.079	15846
879.206	15994
879.333	15892
879.461	15759
879.588	15770
879.715	15895
879.842	15979
879.97	15800
880.097	15538
880.224	15447
880.351	15538
880.478	15603
880.605	15519
880.732	15496
880.859	15747
880.986	15572
881.112	15542
881.239	15435
881.366	15321
881.493	15275
881.619	15093
881.746	15214
881.872	15108
881.999	15135
882.125	15104
882.252	15233
882.378	15188
882.505	15306
882.631	15169
882.757	14975
882.883	15192
883.01	14986
883.136	14937
883.262	14849
883.388	14937
883.514	14941
883.64	15036
883.766	14990
883.892	14872
884.018	14883
884.143	14990
884.269	15074
884.395	14731
884.52	14727
884.646	14678
884.772	14621
884.897	14617
885.023	14651
885.148	14842
885.274	14925
885.399	14788
885.524	14693
885.65	14708
885.775	14750
885.9	14765
886.025	14929
886.15	14800
886.275	14648
886.4	14617
886.525	14659
886.65	14629
886.775	14655
886.9	14765
887.025	14914
887.149	14697
887.274	14537
887.399	14549
887.523	14427
887.648	14465
887.773	14465
887.897	14655
888.021	14568
888.146	14484
888.27	14689
888.395	14731
888.519	14511
888.643	14613
888.767	14621
888.891	14507
889.015	14400
889.139	14457
889.263	14408
889.387	14594
889.511	14606
889.635	14503
889.759	14362
889.883	14442
890.006	14393
890.13	14530
890.254	14267
890.377	14328
890.501	14103
890.624	14157
890.748	14263
890.871	14107
890.995	14084
891.118	13989
891.241	14027
891.364	14138
891.488	14214
891.611	14065
891.734	14138
891.857	14233
891.98	14130
892.103	14218
892.226	14210
892.349	13959
892.471	13970
892.594	14008
892.717	14111
892.839	14081
892.962	14103
893.085	14062
893.207	14092
893.33	13841
893.452	14039
893.575	14142
893.697	14100
893.819	14286
893.941	14259
894.064	14267
894.186	14050
894.308	14077
894.43	14187
894.552	14366
894.674	14161
894.796	14092
894.918	14210
895.04	14130
895.161	14233
895.283	14180
895.405	14183
895.526	14210
895.648	14187
895.769	14183
895.891	14240
896.012	14351
896.134	14290
896.255	14294
896.376	14301
896.498	14351
896.619	14336
896.74	14248
896.861	14358
896.982	14594
897.103	14830
897.224	14575
897.345	14541
897.466	14469
897.587	14446
897.708	14739
897.828	14556
897.949	14556
898.07	14294
898.19	14476
898.311	14667
898.431	14621
898.552	14568
898.672	14655
898.792	14769
898.913	14697
899.033	14648
899.153	14492
899.273	14366
899.393	14434
899.513	14514
899.633	14533
899.753	14583
899.873	14381
899.993	14590
900.113	14454
900.232	14526
900.352	14522
900.472	14454
900.591	14362
900.711	14317
900.83	14286
900.95	14412
901.069	14533
901.189	14256
901.308	14100
901.427	14088
901.546	14077
901.665	13993
901.784	14058
901.904	13944
902.023	13803
902.141	13609
902.26	13601
902.379	13601
902.498	13613
902.617	13537
902.735	13586
902.854	13605
902.973	13521
903.091	13308
903.21	13175
903.328	13297
903.446	13240
903.565	13202
903.683	13228
903.801	13050
903.919	13084
904.038	13168
904.156	13069
904.274	13008
904.392	12943
904.51	12973
904.627	13000
904.745	12920
904.863	13008
904.981	12795
905.098	12662
905.216	12734
905.334	12753
905.451	12711
905.569	12608
905.686	12677
905.803	12601
905.921	12479
906.038	12578
906.155	12574
906.272	12388
906.389	12414
906.506	12296
906.623	12281
906.74	12270
906.857	12114
906.974	12133
907.091	12273
907.208	12391
907.324	12380
907.441	12155
907.557	12045
907.674	12030
907.79	11897
907.907	11939
908.023	12007
908.139	12083
908.256	11931
908.372	11874
908.488	11912
908.604	11794
908.72	11714
908.836	11832
908.952	11726
909.068	11802
909.184	11851
909.3	11779
909.415	11809
909.531	11779
909.647	11619
909.762	11592
909.878	11551
909.993	11512
910.108	11570
910.224	11554
910.339	11592
910.454	11440
910.57	11391
910.685	11307
910.8	11630
910.915	11482
911.03	11414
911.145	11288
911.259	11162
911.374	11254
911.489	11128
911.604	11079
911.718	11029
911.833	11037
911.947	10892
912.062	10778
912.176	10900
912.291	11067
912.405	10968
912.519	11132
912.633	11143
912.748	11079
912.862	10976
912.976	10839
913.09	10812
913.204	10881
913.318	10934
913.431	10984
913.545	10881
913.659	10908
913.772	10987
913.886	10683
914	10679
914.113	10801
914.226	10904
914.34	10877
914.453	10641
914.566	10911
914.68	10698
914.793	10656
914.906	10459
915.019	10386
915.132	10413
915.245	10455
915.358	10466
915.47	10440
915.583	10538
915.696	10588
915.809	10569
915.921	10637
916.034	10462
916.146	10386
916.259	10421
916.371	10565
916.483	10611
916.595	10409
916.708	10421
916.82	10462
916.932	10421
917.044	10394
917.156	10382
917.268	10325
917.38	10291
917.491	10314
917.603	10360
917.715	10443
917.826	10489
917.938	10291
918.049	10169
918.161	10257
918.272	10554
918.384	10470
918.495	10367
918.606	10109
918.717	10074
918.828	10227
918.939	10192
919.05	10131
919.161	10169
919.272	10002
919.383	10055
919.494	10261
919.604	10382
919.715	10265
919.826	10093
919.936	10154
920.047	10367
920.157	10207
920.267	10424
920.378	10253
920.488	10219
920.598	10421
920.708	10546
920.818	10356
920.928	10424
921.038	10618
921.148	10550
921.258	10272
921.368	10131
921.477	10078
921.587	9991
921.697	9956
921.806	10124
921.916	9979
922.025	9804
922.134	9747
922.244	9698
922.353	9819
922.462	9724
922.571	9644
922.68	9545
922.789	9496
922.898	9439
923.007	9397
923.116	9561
923.224	9526
923.333	9511
923.442	9287
923.55	9378
923.659	9412
923.767	9443
923.876	9340
923.984	9439
924.092	9230
924.201	9306
924.309	9359
924.417	9370
924.525	9294
924.633	9294
924.741	10268
924.849	9066
924.956	9268
925.064	9093
925.172	9039
925.279	8967
925.387	9150
925.494	9154
925.602	9279
925.709	9176
925.816	9058
925.924	9138
926.031	9230
926.138	9142
926.245	9157
926.352	9062
926.459	9173
926.566	9287
926.673	9116
926.779	9039
926.886	9028
926.993	8876
927.099	8796
927.206	8853
927.312	8811
927.419	8891
927.525	8872
927.631	8876
927.737	8785
927.843	8743
927.95	8659
928.056	8693
928.162	8788
928.267	8758
928.373	9408
928.479	8857
928.585	8568
928.69	8697
928.796	8819
928.901	8640
929.007	8507
929.112	8659
929.218	8636
929.323	8575
929.428	8575
929.533	8670
929.638	8461
929.743	8518
929.848	8518
929.953	8571
930.058	8511
930.163	8317
930.267	8355
930.372	8476
930.477	8305
930.581	8537
930.685	8385
930.79	8248
930.894	8305
930.998	8282
931.103	8427
931.207	8111
931.311	8073
931.415	7993
931.519	7849
931.623	7788
