Data from test_V78500241_2283.txt Node
Date: Fri Mar 25 14:49:36 CST 2022
User: usil
Spectrometer: V785-0024
Trigger mode: 0
Integration Time (sec): 4.000000E-1
Scans to average: 1
Nonlinearity correction enabled: false
Boxcar width: 0
Storing dark spectrum: false
XAxis mode: Wavelengths
Number of Pixels in Spectrum: 1024
>>>>>Begin Spectral Data<<<<<
801.071	22097
801.214	22029
801.356	21930
801.499	21846
801.641	21443
801.783	21511
801.926	21606
802.068	21515
802.211	21386
802.353	21329
802.496	21169
802.638	20963
802.78	21051
802.923	21017
803.065	20899
803.208	20807
803.35	20857
803.492	20952
803.635	21036
803.777	20902
803.919	21093
804.061	21214
804.204	20990
804.346	20937
804.488	20781
804.63	20925
804.773	20800
804.915	20769
805.057	20887
805.199	20807
805.341	20994
805.483	20792
805.626	20811
805.768	20826
805.91	20868
806.052	20826
806.194	20705
806.336	20960
806.478	20830
806.62	20823
806.762	20883
806.904	21077
807.046	21226
807.188	21169
807.33	21096
807.472	21157
807.614	20979
807.756	21131
807.898	20933
808.04	20944
808.182	20861
808.324	20887
808.465	20998
808.607	21096
808.749	21146
808.891	21245
809.033	21389
809.174	21272
809.316	21165
809.458	21184
809.6	21222
809.741	21279
809.883	21161
810.025	21420
810.166	21355
810.308	21462
810.45	21317
810.591	21302
810.733	21036
810.875	20944
811.016	20963
811.158	20807
811.299	21123
811.441	21070
811.582	20986
811.724	20982
811.865	20967
812.007	20823
812.148	20937
812.29	21020
812.431	21135
812.573	21374
812.714	21359
812.855	21481
812.997	21561
813.138	21644
813.279	21549
813.421	21466
813.562	21397
813.703	21252
813.845	21135
813.986	20891
814.127	20758
814.268	20648
814.41	20621
814.551	20598
814.692	20579
814.833	20644
814.974	20442
815.115	20575
815.256	20461
815.397	20377
815.539	20457
815.68	20339
815.821	20088
815.962	20282
816.103	20290
816.244	20062
816.385	19993
816.526	19986
816.666	19746
816.807	19727
816.948	19791
817.089	19818
817.23	19734
817.371	19548
817.512	19674
817.653	19601
817.793	19556
817.934	19696
818.075	19708
818.216	19742
818.356	19586
818.497	19438
818.638	19312
818.778	19343
818.919	19407
819.06	19400
819.2	19468
819.341	19643
819.481	19506
819.622	19647
819.762	19761
819.903	19788
820.043	19715
820.184	19571
820.324	19548
820.465	19693
820.605	19670
820.746	19540
820.886	19495
821.026	19601
821.167	19571
821.307	19696
821.447	19601
821.588	19434
821.728	19278
821.868	19122
822.008	19027
822.149	19038
822.289	19019
822.429	18707
822.569	18688
822.709	18734
822.849	18559
822.99	18513
823.13	18509
823.27	18429
823.41	18441
823.55	18346
823.69	18327
823.83	18311
823.97	18224
824.11	18163
824.25	18076
824.389	18038
824.529	18266
824.669	18102
824.809	18258
824.949	18232
825.089	18152
825.228	18102
825.368	17988
825.508	17931
825.648	17927
825.787	17855
825.927	17863
826.067	17805
826.206	17870
826.346	17904
826.485	17790
826.625	17775
826.765	18011
826.904	17775
827.044	17596
827.183	17668
827.323	17482
827.462	17615
827.601	17608
827.741	17459
827.88	17471
828.02	17376
828.159	17554
828.298	17551
828.437	17581
828.577	17547
828.716	17661
828.855	17505
828.994	17296
829.134	17406
829.273	17463
829.412	17239
829.551	17231
829.69	17280
829.829	17341
829.968	17402
830.107	17368
830.246	17334
830.385	17330
830.524	17235
830.663	17151
830.802	16987
830.941	16938
831.08	16942
831.219	16999
831.357	16976
831.496	17033
831.635	16877
831.774	16820
831.913	16801
832.051	16721
832.19	16668
832.329	16694
832.467	16607
832.606	16497
832.744	16523
832.883	16554
833.022	16603
833.16	16599
833.299	16607
833.437	16599
833.576	16577
833.714	16653
833.852	16664
833.991	16607
834.129	16717
834.267	16634
834.406	16649
834.544	16706
834.682	16759
834.821	16535
834.959	16839
835.097	16588
835.235	16698
835.373	16660
835.511	16679
835.65	16478
835.788	16577
835.926	16352
836.064	16379
836.202	16363
836.34	16451
836.478	16626
836.615	16596
836.753	16500
836.891	16558
837.029	16481
837.167	16489
837.305	16432
837.443	16409
837.58	16295
837.718	16421
837.856	16432
837.993	16379
838.131	16367
838.269	16341
838.406	16272
838.544	16265
838.681	16105
838.819	16128
838.956	15949
839.094	15873
839.231	16032
839.369	16010
839.506	16405
839.643	16135
839.781	16006
839.918	15888
840.055	15922
840.193	15915
840.33	15846
840.467	15922
840.604	15945
840.742	16234
840.879	15755
841.016	15808
841.153	15876
841.29	16029
841.427	15937
841.564	16051
841.701	15991
841.838	15816
841.975	15838
842.112	15911
842.249	15603
842.385	15743
842.522	15930
842.659	15774
842.796	15713
842.933	15682
843.069	15720
843.206	15637
843.343	15770
843.479	15755
843.616	15682
843.752	15538
843.889	15485
844.025	15633
844.162	15538
844.298	15564
844.435	15557
844.571	15549
844.708	15553
844.844	15622
844.98	15557
845.117	15545
845.253	15473
845.389	15393
845.525	15504
845.661	15469
845.798	15302
845.934	15389
846.07	15161
846.206	15393
846.342	15397
846.478	15260
846.614	15127
846.75	15047
846.886	15028
847.022	15043
847.158	15131
847.294	15024
847.429	15131
847.565	14982
847.701	15363
847.837	14838
847.972	14746
848.108	14918
848.244	14842
848.379	14735
848.515	14640
848.65	14617
848.786	14621
848.921	14754
849.057	14670
849.192	14739
849.328	14716
849.463	14735
849.598	14594
849.734	14518
849.869	14575
850.004	14434
850.14	14556
850.275	14431
850.41	14244
850.545	14358
850.68	14431
850.815	14431
850.95	14446
851.085	14640
851.22	14499
851.355	14396
851.49	14358
851.625	14370
851.76	14358
851.895	14271
852.03	14450
852.165	14446
852.299	14427
852.434	14469
852.569	14454
852.703	14396
852.838	14533
852.973	14629
853.107	14579
853.242	14446
853.376	14358
853.511	14221
853.645	14343
853.78	14412
853.914	14313
854.048	14290
854.183	14298
854.317	14324
854.451	14457
854.585	14328
854.72	14195
854.854	14313
854.988	14176
855.122	14301
855.256	14164
855.39	14309
855.524	14328
855.658	14343
855.792	14240
855.926	14381
856.06	14465
856.194	14415
856.327	14240
856.461	14237
856.595	14210
856.729	14282
856.862	14389
856.996	14343
857.13	14404
857.263	14385
857.397	14446
857.53	14305
857.664	14351
857.797	14423
857.931	14450
858.064	14320
858.197	14408
858.331	14294
858.464	14278
858.597	14271
858.731	14309
858.864	14370
858.997	14298
859.13	14366
859.263	14267
859.396	14415
859.529	14294
859.662	14233
859.795	14309
859.928	14434
860.061	14511
860.194	14549
860.327	14374
860.46	14298
860.592	14461
860.725	14503
860.858	14442
860.99	14294
861.123	14180
861.256	14210
861.388	14210
861.521	14876
861.653	14218
861.786	14126
861.918	14202
862.05	14237
862.183	14294
862.315	14267
862.447	14259
862.58	14244
862.712	14058
862.844	14100
862.976	14111
863.108	14130
863.24	14336
863.372	14027
863.504	14183
863.636	14050
863.768	14138
863.9	14024
864.032	14050
864.164	14058
864.296	14107
864.428	14172
864.559	14176
864.691	14180
864.823	14119
864.954	14035
865.086	14134
865.217	14024
865.349	14069
865.48	14020
865.612	14077
865.743	14206
865.875	14142
866.006	14081
866.137	14092
866.269	14145
866.4	14058
866.531	14134
866.662	14024
866.793	14031
866.924	13967
867.055	14084
867.186	14077
867.317	14024
867.448	13997
867.579	13997
867.71	13947
867.841	13993
867.972	14073
868.103	14012
868.233	14069
868.364	14111
868.495	14103
868.625	14263
868.756	14370
868.886	14248
869.017	14339
869.147	14450
869.278	14362
869.408	14301
869.539	14259
869.669	14377
869.799	14339
869.929	14438
870.06	14408
870.19	14632
870.32	14583
870.45	14644
870.58	14727
870.71	14857
870.84	14887
870.97	14758
871.1	14697
871.23	14891
871.36	14800
871.489	14792
871.619	14857
871.749	14902
871.879	14956
872.008	15039
872.138	14880
872.267	14880
872.397	14754
872.526	14743
872.656	14655
872.785	14708
872.915	14963
873.044	14918
873.173	14891
873.303	15066
873.432	15085
873.561	15116
873.69	14941
873.819	14963
873.948	15036
874.077	14876
874.206	14906
874.335	15009
874.464	15241
874.593	15184
874.722	15199
874.851	15348
874.979	15203
875.108	15268
875.237	15195
875.365	15291
875.494	15203
875.623	15340
875.751	15222
875.88	15344
876.008	15302
876.136	15485
876.265	15724
876.393	15850
876.521	15705
876.65	15793
876.778	15770
876.906	15682
877.034	15584
877.162	15633
877.29	15694
877.418	15606
877.546	15705
877.674	15709
877.802	15720
877.93	15679
878.058	15663
878.185	15686
878.313	15663
878.441	15622
878.568	15553
878.696	15663
878.824	15732
878.951	15793
879.079	15899
879.206	15941
879.333	15785
879.461	15736
879.588	15762
879.715	15785
879.842	15975
879.97	15766
880.097	15576
880.224	15545
880.351	15515
880.478	15534
880.605	15526
880.732	15477
880.859	15759
880.986	15606
881.112	15511
881.239	15389
881.366	15317
881.493	15291
881.619	15135
881.746	15218
881.872	15207
881.999	15154
882.125	15081
882.252	15131
882.378	15161
882.505	15359
882.631	15112
882.757	15036
882.883	15104
883.01	14960
883.136	14963
883.262	14895
883.388	14811
883.514	14982
883.64	15169
883.766	14842
883.892	14868
884.018	14853
884.143	14952
884.269	15135
884.395	14765
884.52	14750
884.646	14731
884.772	14522
884.897	14629
885.023	14674
885.148	14838
885.274	14792
885.399	14754
885.524	14750
885.65	14712
885.775	14693
885.9	14746
886.025	14876
886.15	14872
886.275	14659
886.4	14613
886.525	14731
886.65	14693
886.775	14545
886.9	14826
887.025	15001
887.149	14823
887.274	14579
887.399	14476
887.523	14545
887.648	14431
887.773	14396
887.897	14610
888.021	14590
888.146	14560
888.27	14613
888.395	14640
888.519	14530
888.643	14606
888.767	14629
888.891	14423
889.015	14351
889.139	14389
889.263	14419
889.387	14492
889.511	14613
889.635	14499
889.759	14381
889.883	14320
890.006	14370
890.13	14469
890.254	14278
890.377	14263
890.501	14130
890.624	14100
890.748	14180
890.871	14039
890.995	14062
891.118	13955
891.241	14126
891.364	14107
891.488	14221
891.611	14084
891.734	14005
891.857	14214
891.98	14161
892.103	14138
892.226	14191
892.349	14016
892.471	14008
892.594	13951
892.717	14096
892.839	14153
892.962	14161
893.085	14180
893.207	14103
893.33	13974
893.452	14001
893.575	14180
893.697	14145
893.819	14172
893.941	14278
894.064	14244
894.186	14081
894.308	14103
894.43	14176
894.552	14294
894.674	14206
894.796	14111
894.918	14111
895.04	14244
895.161	14233
895.283	14320
895.405	14180
895.526	14214
895.648	14130
895.769	14240
895.891	14263
896.012	14298
896.134	14199
896.255	14240
896.376	14214
896.498	14252
896.619	14263
896.74	14328
896.861	14438
896.982	14564
897.103	14651
897.224	14507
897.345	14488
897.466	14480
897.587	14552
897.708	14629
897.828	14701
897.949	14442
898.07	14415
898.19	14552
898.311	14705
898.431	14537
898.552	14651
898.672	14727
898.792	14644
898.913	14674
899.033	14522
899.153	14427
899.273	14465
899.393	14492
899.513	14480
899.633	14560
899.753	14495
899.873	14511
899.993	14415
900.113	14503
900.232	14457
900.352	14389
900.472	14446
900.591	14400
900.711	14389
900.83	14290
900.95	14389
901.069	14499
901.189	14278
901.308	14058
901.427	13955
901.546	14043
901.665	14126
901.784	13970
901.904	13978
902.023	13814
902.141	13655
902.26	13636
902.379	13704
902.498	13594
902.617	13476
902.735	13552
902.854	13556
902.973	13457
903.091	13384
903.21	13350
903.328	13236
903.446	13365
903.565	13244
903.683	13168
903.801	13126
903.919	13171
904.038	13129
904.156	13042
904.274	13209
904.392	13015
904.51	13004
904.627	12958
904.745	13019
904.863	12981
904.981	12875
905.098	12703
905.216	12642
905.334	12589
905.451	12665
905.569	12620
905.686	12681
905.803	12681
905.921	12502
906.038	12623
906.155	12597
906.272	12376
906.389	12391
906.506	12243
906.623	12262
906.74	12327
906.857	12049
906.974	12243
907.091	12319
907.208	12426
907.324	12224
907.441	12140
907.557	12091
907.674	11965
907.79	11897
907.907	11889
908.023	12068
908.139	11893
908.256	11950
908.372	11863
908.488	11828
908.604	11775
908.72	11767
908.836	11794
908.952	11733
909.068	11786
909.184	11821
909.3	11775
909.415	11851
909.531	11794
909.647	11562
909.762	11581
909.878	11433
909.993	11592
910.108	11482
910.224	11497
910.339	11528
910.454	11448
910.57	11444
910.685	11181
910.8	11630
910.915	11509
911.03	11341
911.145	11299
911.259	11178
911.374	11193
911.489	11155
911.604	11166
911.718	11033
911.833	11018
911.947	10858
912.062	10816
912.176	10976
912.291	10866
912.405	10953
912.519	11166
912.633	11174
912.748	11041
912.862	10972
912.976	10805
913.09	10729
913.204	10889
913.318	10915
913.431	10938
913.545	10869
913.659	10953
913.772	10877
913.886	10691
914	10672
914.113	10812
914.226	10866
914.34	10790
914.453	10649
914.566	10862
914.68	10706
914.793	10580
914.906	10554
915.019	10497
915.132	10409
915.245	10474
915.358	10542
915.47	10508
915.583	10516
915.696	10535
915.809	10668
915.921	10611
916.034	10451
916.146	10447
916.259	10447
916.371	10565
916.483	10451
916.595	10409
916.708	10470
916.82	10409
916.932	10329
917.044	10474
917.156	10375
917.268	10367
917.38	10360
917.491	10394
917.603	10329
917.715	10363
917.826	10481
917.938	10284
918.049	10246
918.161	10303
918.272	10459
918.384	10451
918.495	10280
918.606	10261
918.717	10150
918.828	10295
918.939	10348
919.05	10158
919.161	10181
919.272	10040
919.383	10051
919.494	10356
919.604	10489
919.715	10223
919.826	10124
919.936	10265
920.047	10341
920.157	10230
920.267	10436
920.378	10257
920.488	10303
920.598	10421
920.708	10599
920.818	10424
920.928	10474
921.038	10531
921.148	10523
921.258	10257
921.368	10265
921.477	10147
921.587	10040
921.697	9968
921.806	10162
921.916	10063
922.025	9823
922.134	9808
922.244	9713
922.353	9838
922.462	9793
922.571	9606
922.68	9545
922.789	9542
922.898	9553
923.007	9485
923.116	9580
923.224	9545
923.333	9496
923.442	9397
923.55	9355
923.659	9454
923.767	9515
923.876	9382
923.984	9428
924.092	9344
924.201	9359
924.309	9439
924.417	9412
924.525	9321
924.633	9367
924.741	10238
924.849	9161
924.956	9325
925.064	9138
925.172	9024
925.279	9093
925.387	9203
925.494	9176
925.602	9256
925.709	9207
925.816	9112
925.924	9176
926.031	9233
926.138	9116
926.245	9264
926.352	9100
926.459	9203
926.566	9195
926.673	9154
926.779	8990
926.886	9039
926.993	8849
927.099	8921
927.206	8796
927.312	8800
927.419	8895
927.525	8895
927.631	8914
927.737	8781
927.843	8735
927.95	8678
928.056	8746
928.162	8777
928.267	8815
928.373	9431
928.479	8910
928.585	8621
928.69	8693
928.796	8788
928.901	8663
929.007	8533
929.112	8686
929.218	8659
929.323	8674
929.428	8598
929.533	8697
929.638	8476
929.743	8621
929.848	8632
929.953	8571
930.058	8492
930.163	8336
930.267	8305
930.372	8484
930.477	8355
930.581	8537
930.685	8499
930.79	8286
930.894	8332
930.998	8305
931.103	8461
931.207	8100
931.311	7989
931.415	8008
931.519	7803
931.623	7761
