Data from test_V78500241_2508.txt Node
Date: Fri Mar 25 14:51:10 CST 2022
User: usil
Spectrometer: V785-0024
Trigger mode: 0
Integration Time (sec): 4.000000E-1
Scans to average: 1
Nonlinearity correction enabled: false
Boxcar width: 0
Storing dark spectrum: false
XAxis mode: Wavelengths
Number of Pixels in Spectrum: 1024
>>>>>Begin Spectral Data<<<<<
801.071	22063
801.214	21945
801.356	21770
801.499	21610
801.641	21481
801.783	21431
801.926	21397
802.068	21401
802.211	21351
802.353	21230
802.496	20979
802.638	20918
802.78	20796
802.923	20834
803.065	20735
803.208	20765
803.35	20842
803.492	20857
803.635	20994
803.777	20731
803.919	20815
804.061	21066
804.204	20921
804.346	20724
804.488	20636
804.63	20659
804.773	20590
804.915	20667
805.057	20842
805.199	20636
805.341	20693
805.483	20807
805.626	20765
805.768	20575
805.91	20667
806.052	20686
806.194	20598
806.336	20788
806.478	20727
806.62	20617
806.762	20781
806.904	20861
807.046	21036
807.188	21043
807.33	21074
807.472	21013
807.614	20872
807.756	20921
807.898	20819
808.04	20796
808.182	20781
808.324	20644
808.465	20815
808.607	20971
808.749	21096
808.891	21028
809.033	21165
809.174	21043
809.316	20994
809.458	21116
809.6	20960
809.741	21020
809.883	21077
810.025	21119
810.166	21154
810.308	21195
810.45	21131
810.591	21036
810.733	20914
810.875	20849
811.016	20609
811.158	20575
811.299	20720
811.441	20918
811.582	20967
811.724	20769
811.865	20746
812.007	20686
812.148	20857
812.29	20804
812.431	20864
812.573	21066
812.714	21264
812.855	21351
812.997	21431
813.138	21443
813.279	21450
813.421	21241
813.562	21401
813.703	21005
813.845	20952
813.986	20655
814.127	20492
814.268	20415
814.41	20339
814.551	20320
814.692	20488
814.833	20221
814.974	20244
815.115	20434
815.256	20301
815.397	20271
815.539	20214
815.68	20138
815.821	20065
815.962	20153
816.103	20065
816.244	20054
816.385	19940
816.526	19681
816.666	19597
816.807	19476
816.948	19590
817.089	19624
817.23	19483
817.371	19358
817.512	19502
817.653	19510
817.793	19400
817.934	19426
818.075	19487
818.216	19407
818.356	19407
818.497	19270
818.638	19137
818.778	19122
818.919	19217
819.06	19282
819.2	19194
819.341	19270
819.481	19373
819.622	19483
819.762	19753
819.903	19464
820.043	19483
820.184	19468
820.324	19449
820.465	19506
820.605	19472
820.746	19434
820.886	19343
821.026	19438
821.167	19388
821.307	19575
821.447	19411
821.588	19304
821.728	19095
821.868	18996
822.008	18905
822.149	18871
822.289	18837
822.429	18623
822.569	18582
822.709	18551
822.849	18361
822.99	18315
823.13	18369
823.27	18372
823.41	18228
823.55	18064
823.69	18045
823.83	18144
823.97	18091
824.11	17973
824.25	17889
824.389	17927
824.529	18102
824.669	17927
824.809	17999
824.949	18015
825.089	17950
825.228	17969
825.368	17748
825.508	17832
825.648	17779
825.787	17695
825.927	17767
826.067	17680
826.206	17604
826.346	17745
826.485	17737
826.625	17638
826.765	17817
826.904	17767
827.044	17482
827.183	17486
827.323	17349
827.462	17493
827.601	17463
827.741	17433
827.88	17429
828.02	17250
828.159	17410
828.298	17463
828.437	17372
828.577	17417
828.716	17566
828.855	17353
828.994	17174
829.134	17254
829.273	17124
829.412	17140
829.551	17140
829.69	17204
829.829	17208
829.968	17273
830.107	17185
830.246	17197
830.385	17124
830.524	17083
830.663	17022
830.802	17006
830.941	16877
831.08	16721
831.219	16824
831.357	16748
831.496	16961
831.635	16774
831.774	16748
831.913	16622
832.051	16519
832.19	16588
832.329	16630
832.467	16512
832.606	16516
832.744	16436
832.883	16474
833.022	16516
833.16	16546
833.299	16561
833.437	16466
833.576	16516
833.714	16504
833.852	16546
833.991	16569
834.129	16550
834.267	16584
834.406	16694
834.544	16519
834.682	16603
834.821	16470
834.959	16752
835.097	16558
835.235	16588
835.373	16592
835.511	16474
835.65	16390
835.788	16424
835.926	16280
836.064	16116
836.202	16249
836.34	16421
836.478	16558
836.615	16272
836.753	16542
836.891	16478
837.029	16493
837.167	16428
837.305	16424
837.443	16306
837.58	16276
837.718	16291
837.856	16398
837.993	16310
838.131	16249
838.269	16173
838.406	16249
838.544	16207
838.681	15968
838.819	16044
838.956	15789
839.094	15911
839.231	15854
839.369	16082
839.506	16257
839.643	16097
839.781	15876
839.918	15865
840.055	15808
840.193	15774
840.33	15850
840.467	15835
840.604	15838
840.742	16101
840.879	15751
841.016	15778
841.153	15819
841.29	15972
841.427	15934
841.564	15846
841.701	15907
841.838	15899
841.975	15720
842.112	15861
842.249	15698
842.385	15652
842.522	15865
842.659	15675
842.796	15576
842.933	15625
843.069	15568
843.206	15610
843.343	15603
843.479	15667
843.616	15690
843.752	15378
843.889	15431
844.025	15618
844.162	15351
844.298	15530
844.435	15443
844.571	15382
844.708	15492
844.844	15507
844.98	15496
845.117	15481
845.253	15397
845.389	15351
845.525	15348
845.661	15348
845.798	15142
845.934	15203
846.07	15188
846.206	15207
846.342	15393
846.478	15283
846.614	14956
846.75	14929
846.886	14986
847.022	15070
847.158	15005
847.294	15043
847.429	14998
847.565	14876
847.701	15211
847.837	14686
847.972	14640
848.108	14838
848.244	14845
848.379	14731
848.515	14522
848.65	14499
848.786	14579
848.921	14545
849.057	14659
849.192	14765
849.328	14579
849.463	14621
849.598	14495
849.734	14571
849.869	14389
850.004	14385
850.14	14415
850.275	14423
850.41	14324
850.545	14298
850.68	14263
850.815	14389
850.95	14351
851.085	14583
851.22	14473
851.355	14381
851.49	14309
851.625	14282
851.76	14290
851.895	14290
852.03	14237
852.165	14336
852.299	14305
852.434	14457
852.569	14313
852.703	14324
852.838	14431
852.973	14522
853.107	14495
853.242	14366
853.376	14183
853.511	13997
853.645	14256
853.78	14408
853.914	14206
854.048	14229
854.183	14233
854.317	14187
854.451	14286
854.585	14210
854.72	14233
854.854	14301
854.988	14176
855.122	14221
855.256	14035
855.39	14221
855.524	14298
855.658	14259
855.792	14229
855.926	14309
856.06	14377
856.194	14317
856.327	14210
856.461	14256
856.595	14225
856.729	14191
856.862	14290
856.996	14225
857.13	14271
857.263	14492
857.397	14294
857.53	14240
857.664	14271
857.797	14336
857.931	14298
858.064	14275
858.197	14336
858.331	14176
858.464	14214
858.597	13997
858.731	14142
858.864	14164
858.997	14206
859.13	14290
859.263	14252
859.396	14301
859.529	14294
859.662	14244
859.795	14191
859.928	14233
860.061	14385
860.194	14423
860.327	14149
860.46	14286
860.592	14381
860.725	14358
860.858	14263
860.99	14225
861.123	14138
861.256	14176
861.388	14218
861.521	14724
861.653	14016
861.786	13986
861.918	14081
862.05	14229
862.183	14199
862.315	14134
862.447	14294
862.58	14172
862.712	14062
862.844	13989
862.976	14100
863.108	14058
863.24	14305
863.372	13959
863.504	13989
863.636	14043
863.768	14054
863.9	13951
864.032	14012
864.164	13993
864.296	14126
864.428	14126
864.559	14084
864.691	14138
864.823	14012
864.954	14058
865.086	13997
865.217	14081
865.349	13951
865.48	14008
865.612	13932
865.743	14164
865.875	14012
866.006	13970
866.137	14058
866.269	14046
866.4	13925
866.531	13906
866.662	13944
866.793	13982
866.924	13871
867.055	13890
867.186	13917
867.317	13890
867.448	14001
867.579	14020
867.71	13947
867.841	13944
867.972	14035
868.103	14084
868.233	13951
868.364	14103
868.495	14024
868.625	14256
868.756	14336
868.886	14214
869.017	14187
869.147	14336
869.278	14301
869.408	14210
869.539	14244
869.669	14313
869.799	14301
869.929	14362
870.06	14370
870.19	14511
870.32	14545
870.45	14670
870.58	14667
870.71	14701
870.84	14796
870.97	14636
871.1	14556
871.23	14868
871.36	14937
871.489	14853
871.619	14769
871.749	14845
871.879	14914
872.008	14933
872.138	14880
872.267	14754
872.397	14644
872.526	14686
872.656	14674
872.785	14701
872.915	14887
873.044	14963
873.173	14883
873.303	14910
873.432	14956
873.561	14967
873.69	14921
873.819	14971
873.948	14944
874.077	14925
874.206	14880
874.335	14819
874.464	15089
874.593	15157
874.722	15066
874.851	15272
874.979	15329
875.108	15268
875.237	15195
875.365	15074
875.494	15138
875.623	15275
875.751	15173
875.88	15355
876.008	15374
876.136	15363
876.265	15644
876.393	15705
876.521	15728
876.65	15781
876.778	15595
876.906	15671
877.034	15641
877.162	15736
877.29	15458
877.418	15603
877.546	15724
877.674	15599
877.802	15618
877.93	15644
878.058	15717
878.185	15477
878.313	15564
878.441	15599
878.568	15477
878.696	15450
878.824	15705
878.951	15671
879.079	15766
879.206	15949
879.333	15717
879.461	15580
879.588	15660
879.715	15819
879.842	15899
879.97	15667
880.097	15511
880.224	15488
880.351	15496
880.478	15431
880.605	15443
880.732	15462
880.859	15797
880.986	15439
881.112	15534
881.239	15340
881.366	15313
881.493	15268
881.619	15123
881.746	15150
881.872	15097
881.999	15119
882.125	15108
882.252	15207
882.378	15135
882.505	15237
882.631	15089
882.757	15062
882.883	14956
883.01	14990
883.136	14941
883.262	14872
883.388	14758
883.514	15024
883.64	14994
883.766	14891
883.892	14769
884.018	14830
884.143	14887
884.269	15074
884.395	14686
884.52	14621
884.646	14674
884.772	14613
884.897	14549
885.023	14697
885.148	14708
885.274	14906
885.399	14743
885.524	14629
885.65	14655
885.775	14686
885.9	14621
886.025	14788
886.15	14686
886.275	14625
886.4	14507
886.525	14625
886.65	14579
886.775	14632
886.9	14785
887.025	14838
887.149	14632
887.274	14465
887.399	14495
887.523	14492
887.648	14400
887.773	14457
887.897	14575
888.021	14499
888.146	14408
888.27	14594
888.395	14693
888.519	14610
888.643	14617
888.767	14549
888.891	14343
889.015	14362
889.139	14339
889.263	14240
889.387	14514
889.511	14621
889.635	14434
889.759	14313
889.883	14351
890.006	14396
890.13	14488
890.254	14278
890.377	14309
890.501	14123
890.624	14119
890.748	14256
890.871	14065
890.995	13932
891.118	13963
891.241	14103
891.364	14088
891.488	14126
891.611	14084
891.734	14187
891.857	14073
891.98	14062
892.103	14191
892.226	14092
892.349	14065
892.471	13879
892.594	14088
892.717	14100
892.839	14039
892.962	14046
893.085	14183
893.207	13932
893.33	13913
893.452	13986
893.575	14161
893.697	13890
893.819	14172
893.941	14305
894.064	14138
894.186	14008
894.308	13955
894.43	14115
894.552	14275
894.674	14248
894.796	13974
894.918	14130
895.04	14115
895.161	14161
895.283	14107
895.405	14153
895.526	14130
895.648	14244
895.769	14267
895.891	14142
896.012	14355
896.134	14286
896.255	14286
896.376	14149
896.498	14187
896.619	14294
896.74	14195
896.861	14233
896.982	14560
897.103	14663
897.224	14625
897.345	14518
897.466	14450
897.587	14537
897.708	14689
897.828	14522
897.949	14393
898.07	14423
898.19	14446
898.311	14632
898.431	14556
898.552	14579
898.672	14727
898.792	14731
898.913	14625
899.033	14488
899.153	14431
899.273	14275
899.393	14339
899.513	14495
899.633	14461
899.753	14400
899.873	14362
899.993	14514
900.113	14450
900.232	14484
900.352	14442
900.472	14317
900.591	14286
900.711	14286
900.83	14259
900.95	14347
901.069	14362
901.189	14176
901.308	14107
901.427	13944
901.546	13967
901.665	14096
901.784	13921
901.904	13909
902.023	13784
902.141	13636
902.26	13582
902.379	13647
902.498	13537
902.617	13548
902.735	13578
902.854	13457
902.973	13491
903.091	13320
903.21	13289
903.328	13225
903.446	13301
903.565	13118
903.683	13149
903.801	13019
903.919	13168
904.038	13114
904.156	12943
904.274	12996
904.392	12894
904.51	12939
904.627	12909
904.745	12962
904.863	13015
904.981	12772
905.098	12551
905.216	12642
905.334	12696
905.451	12608
905.569	12521
905.686	12673
905.803	12578
905.921	12486
906.038	12506
906.155	12433
906.272	12395
906.389	12414
906.506	12273
906.623	12254
906.74	12247
906.857	12091
906.974	12163
907.091	12273
907.208	12395
907.324	12281
907.441	12136
907.557	11916
907.674	11923
907.79	11836
907.907	11927
908.023	12026
908.139	11931
908.256	11927
908.372	11786
908.488	11863
908.604	11798
908.72	11661
908.836	11893
908.952	11638
909.068	11775
909.184	11802
909.3	11707
909.415	11737
909.531	11699
909.647	11539
909.762	11433
909.878	11493
909.993	11562
910.108	11478
910.224	11459
910.339	11440
910.454	11376
910.57	11273
910.685	11265
910.8	11634
910.915	11554
911.03	11337
911.145	11159
911.259	11174
911.374	11250
911.489	11094
911.604	11121
911.718	10987
911.833	10957
911.947	10797
912.062	10744
912.176	10980
912.291	10949
912.405	10911
912.519	11166
912.633	11155
912.748	10987
912.862	10858
912.976	10824
913.09	10694
913.204	10843
913.318	10797
913.431	10987
913.545	11006
913.659	10961
913.772	10778
913.886	10725
914	10698
914.113	10809
914.226	10858
914.34	10778
914.453	10588
914.566	10820
914.68	10645
914.793	10611
914.906	10485
915.019	10455
915.132	10409
915.245	10432
915.358	10500
915.47	10466
915.583	10436
915.696	10512
915.809	10596
915.921	10565
916.034	10474
916.146	10459
916.259	10341
916.371	10504
916.483	10497
916.595	10432
916.708	10394
916.82	10428
916.932	10276
917.044	10436
917.156	10325
917.268	10280
917.38	10287
917.491	10227
917.603	10398
917.715	10375
917.826	10390
917.938	10219
918.049	10196
918.161	10246
918.272	10375
918.384	10428
918.495	10424
918.606	10158
918.717	10093
918.828	10223
918.939	10192
919.05	10051
919.161	10143
919.272	9926
919.383	9968
919.494	10230
919.604	10382
919.715	10234
919.826	10048
919.936	10166
920.047	10287
920.157	10181
920.267	10382
920.378	10230
920.488	10169
920.598	10394
920.708	10611
920.818	10413
920.928	10348
921.038	10466
921.148	10500
921.258	10246
921.368	10238
921.477	10002
921.587	10021
921.697	9888
921.806	10074
921.916	9956
922.025	9774
922.134	9720
922.244	9618
922.353	9797
922.462	9610
922.571	9534
922.68	9492
922.789	9378
922.898	9454
923.007	9389
923.116	9477
923.224	9439
923.333	9431
923.442	9367
923.55	9329
923.659	9386
923.767	9519
923.876	9367
923.984	9321
924.092	9245
924.201	9336
924.309	9348
924.417	9389
924.525	9294
924.633	9260
924.741	10143
924.849	9150
924.956	9233
925.064	9176
925.172	9017
925.279	9020
925.387	9100
925.494	9051
925.602	9222
925.709	9150
925.816	9104
925.924	9051
926.031	9146
926.138	9173
926.245	9203
926.352	8982
926.459	9188
926.566	9256
926.673	9043
926.779	8998
926.886	8979
926.993	8838
927.099	8796
927.206	8815
927.312	8773
927.419	8823
927.525	8766
927.631	8918
927.737	8693
927.843	8670
927.95	8492
928.056	8746
928.162	8735
928.267	8769
928.373	9332
928.479	8838
928.585	8564
928.69	8697
928.796	8735
928.901	8617
929.007	8484
929.112	8655
929.218	8495
929.323	8442
929.428	8522
929.533	8705
929.638	8484
929.743	8450
929.848	8613
929.953	8454
930.058	8396
930.163	8290
930.267	8286
930.372	8488
930.477	8233
930.581	8476
930.685	8385
930.79	8195
930.894	8252
930.998	8233
931.103	8408
931.207	8035
931.311	8096
931.415	7967
931.519	7776
931.623	7731
