Data from test_V78500241_3664.txt Node
Date: Fri Mar 25 14:59:13 CST 2022
User: usil
Spectrometer: V785-0024
Trigger mode: 0
Integration Time (sec): 4.000000E-1
Scans to average: 1
Nonlinearity correction enabled: false
Boxcar width: 0
Storing dark spectrum: false
XAxis mode: Wavelengths
Number of Pixels in Spectrum: 1024
>>>>>Begin Spectral Data<<<<<
801.071	21911
801.214	21739
801.356	21690
801.499	21439
801.641	21340
801.783	21374
801.926	21275
802.068	21249
802.211	21195
802.353	21032
802.496	20864
802.638	20796
802.78	20800
802.923	20678
803.065	20587
803.208	20617
803.35	20632
803.492	20705
803.635	20781
803.777	20575
803.919	20739
804.061	20963
804.204	20606
804.346	20514
804.488	20400
804.63	20663
804.773	20457
804.915	20484
805.057	20644
805.199	20579
805.341	20514
805.483	20602
805.626	20594
805.768	20404
805.91	20568
806.052	20480
806.194	20434
806.336	20598
806.478	20511
806.62	20564
806.762	20590
806.904	20743
807.046	20952
807.188	20883
807.33	20864
807.472	20815
807.614	20731
807.756	20849
807.898	20670
808.04	20549
808.182	20522
808.324	20560
808.465	20617
808.607	20769
808.749	20937
808.891	20925
809.033	21127
809.174	20963
809.316	20769
809.458	20815
809.6	20697
809.741	20902
809.883	20861
810.025	21058
810.166	21047
810.308	21017
810.45	20937
810.591	20906
810.733	20792
810.875	20773
811.016	20522
811.158	20552
811.299	20621
811.441	20765
811.582	20648
811.724	20526
811.865	20590
812.007	20667
812.148	20655
812.29	20606
812.431	20788
812.573	20952
812.714	21032
812.855	21108
812.997	21241
813.138	21374
813.279	21275
813.421	21138
813.562	21070
813.703	21005
813.845	20765
813.986	20518
814.127	20324
814.268	20202
814.41	20176
814.551	20214
814.692	20221
814.833	20161
814.974	20202
815.115	20202
815.256	20084
815.397	20119
815.539	20138
815.68	19917
815.821	19852
815.962	19955
816.103	19868
816.244	19746
816.385	19651
816.526	19658
816.666	19613
816.807	19324
816.948	19293
817.089	19350
817.23	19343
817.371	19289
817.512	19407
817.653	19179
817.793	19308
817.934	19213
818.075	19331
818.216	19240
818.356	19221
818.497	19107
818.638	18954
818.778	18993
818.919	18909
819.06	19053
819.2	19095
819.341	19156
819.481	19137
819.622	19278
819.762	19495
819.903	19434
820.043	19438
820.184	19251
820.324	19354
820.465	19441
820.605	19289
820.746	19285
820.886	19133
821.026	19240
821.167	19145
821.307	19320
821.447	19228
821.588	19004
821.728	19027
821.868	18863
822.008	18741
822.149	18696
822.289	18627
822.429	18433
822.569	18395
822.709	18433
822.849	18091
822.99	18171
823.13	18163
823.27	18224
823.41	18053
823.55	17973
823.69	17992
823.83	17980
823.97	17874
824.11	17729
824.25	17775
824.389	17813
824.529	17802
824.669	17798
824.809	17836
824.949	17946
825.089	17851
825.228	17878
825.368	17592
825.508	17653
825.648	17642
825.787	17547
825.927	17646
826.067	17630
826.206	17417
826.346	17551
826.485	17570
826.625	17444
826.765	17680
826.904	17509
827.044	17414
827.183	17299
827.323	17155
827.462	17246
827.601	17193
827.741	17174
827.88	17296
828.02	17136
828.159	17185
828.298	17326
828.437	17395
828.577	17178
828.716	17334
828.855	17239
828.994	16999
829.134	16934
829.273	17037
829.412	16972
829.551	17025
829.69	17025
829.829	17052
829.968	17143
830.107	17121
830.246	17181
830.385	17041
830.524	16873
830.663	16919
830.802	16774
830.941	16668
831.08	16527
831.219	16672
831.357	16607
831.496	16908
831.635	16554
831.774	16558
831.913	16516
832.051	16352
832.19	16371
832.329	16466
832.467	16462
832.606	16272
832.744	16299
832.883	16284
833.022	16177
833.16	16356
833.299	16394
833.437	16318
833.576	16360
833.714	16280
833.852	16322
833.991	16394
834.129	16470
834.267	16451
834.406	16371
834.544	16363
834.682	16356
834.821	16379
834.959	16588
835.097	16287
835.235	16405
835.373	16390
835.511	16417
835.65	16280
835.788	16318
835.926	16215
836.064	16055
836.202	16158
836.34	16253
836.478	16367
836.615	16310
836.753	16344
836.891	16318
837.029	16382
837.167	16181
837.305	16234
837.443	16204
837.58	16188
837.718	16219
837.856	16188
837.993	16143
838.131	16143
838.269	16063
838.406	16131
838.544	15956
838.681	15876
838.819	15907
838.956	15838
839.094	15785
839.231	15899
839.369	15884
839.506	16021
839.643	15873
839.781	15732
839.918	15686
840.055	15762
840.193	15690
840.33	15751
840.467	15671
840.604	15842
840.742	15930
840.879	15644
841.016	15774
841.153	15591
841.29	15857
841.427	15812
841.564	15774
841.701	15793
841.838	15675
841.975	15652
842.112	15618
842.249	15504
842.385	15492
842.522	15698
842.659	15507
842.796	15614
842.933	15622
843.069	15454
843.206	15553
843.343	15694
843.479	15549
843.616	15572
843.752	15332
843.889	15218
844.025	15405
844.162	15313
844.298	15393
844.435	15382
844.571	15325
844.708	15359
844.844	15469
844.98	15488
845.117	15447
845.253	15249
845.389	15199
845.525	15260
845.661	15264
845.798	15108
845.934	15161
846.07	15013
846.206	15188
846.342	15272
846.478	15100
846.614	15055
846.75	14811
846.886	14773
847.022	15058
847.158	14823
847.294	14944
847.429	14910
847.565	14895
847.701	15127
847.837	14632
847.972	14579
848.108	14739
848.244	14777
848.379	14571
848.515	14484
848.65	14442
848.786	14488
848.921	14518
849.057	14644
849.192	14583
849.328	14552
849.463	14488
849.598	14454
849.734	14347
849.869	14374
850.004	14313
850.14	14351
850.275	14301
850.41	14187
850.545	14278
850.68	14240
850.815	14229
850.95	14240
851.085	14511
851.22	14370
851.355	14328
851.49	14157
851.625	14229
851.76	14187
851.895	14149
852.03	14065
852.165	14157
852.299	14263
852.434	14389
852.569	14252
852.703	14206
852.838	14324
852.973	14438
853.107	14278
853.242	14214
853.376	13989
853.511	14050
853.645	14073
853.78	14282
853.914	14138
854.048	14088
854.183	14039
854.317	14168
854.451	14313
854.585	14012
854.72	14157
854.854	14244
854.988	14035
855.122	14058
855.256	13898
855.39	14096
855.524	14180
855.658	14191
855.792	14123
855.926	14176
856.06	14259
856.194	14240
856.327	14157
856.461	14069
856.595	14100
856.729	14050
856.862	14164
856.996	14149
857.13	14210
857.263	14305
857.397	14176
857.53	14065
857.664	14195
857.797	14202
857.931	14286
858.064	14164
858.197	14187
858.331	14119
858.464	14058
858.597	13963
858.731	14168
858.864	14096
858.997	14058
859.13	14164
859.263	14145
859.396	14233
859.529	14046
859.662	14187
859.795	14039
859.928	14119
860.061	14305
860.194	14278
860.327	14210
860.46	14107
860.592	14328
860.725	14351
860.858	14164
860.99	14153
861.123	14027
861.256	13978
861.388	14134
861.521	14781
861.653	13951
861.786	14012
861.918	14012
862.05	13947
862.183	14084
862.315	14084
862.447	14172
862.58	14027
862.712	13875
862.844	13879
862.976	13947
863.108	14012
863.24	14278
863.372	13830
863.504	13833
863.636	13906
863.768	13951
863.9	13955
864.032	13811
864.164	13860
864.296	13906
864.428	14103
864.559	14050
864.691	13917
864.823	14119
864.954	13932
865.086	13967
865.217	13883
865.349	13894
865.48	13894
865.612	13902
865.743	13993
865.875	13887
866.006	13890
866.137	13906
866.269	13875
866.4	13833
866.531	13890
866.662	13807
866.793	13936
866.924	13780
867.055	13906
867.186	13864
867.317	13784
867.448	13757
867.579	13925
867.71	13826
867.841	13719
867.972	13879
868.103	13898
868.233	13967
868.364	13890
868.495	13978
868.625	14111
868.756	14161
868.886	14084
869.017	14157
869.147	14248
869.278	14202
869.408	14180
869.539	14058
869.669	14195
869.799	14202
869.929	14275
870.06	14278
870.19	14499
870.32	14461
870.45	14594
870.58	14526
870.71	14659
870.84	14663
870.97	14571
871.1	14533
871.23	14735
871.36	14834
871.489	14651
871.619	14659
871.749	14708
871.879	14727
872.008	14857
872.138	14819
872.267	14739
872.397	14606
872.526	14697
872.656	14583
872.785	14629
872.915	14701
873.044	14895
873.173	14682
873.303	14746
873.432	14785
873.561	14830
873.69	14758
873.819	14834
873.948	14899
874.077	14804
874.206	14819
874.335	14861
874.464	14967
874.593	15081
874.722	15024
874.851	15203
874.979	15081
875.108	15165
875.237	15089
875.365	15085
875.494	15112
875.623	15218
875.751	15074
875.88	15192
876.008	15214
876.136	15363
876.265	15561
876.393	15610
876.521	15656
876.65	15576
876.778	15561
876.906	15462
877.034	15458
877.162	15458
877.29	15488
877.418	15534
877.546	15382
877.674	15515
877.802	15587
877.93	15488
878.058	15469
878.185	15408
878.313	15473
878.441	15542
878.568	15397
878.696	15428
878.824	15515
878.951	15580
879.079	15694
879.206	15789
879.333	15625
879.461	15488
879.588	15656
879.715	15637
879.842	15857
879.97	15679
880.097	15382
880.224	15397
880.351	15454
880.478	15363
880.605	15408
880.732	15287
880.859	15743
880.986	15370
881.112	15435
881.239	15241
881.366	15218
881.493	15127
881.619	15051
881.746	15074
881.872	15020
881.999	14990
882.125	14986
882.252	15058
882.378	14990
882.505	15165
882.631	15017
882.757	14834
882.883	14967
883.01	14937
883.136	14773
883.262	14800
883.388	14663
883.514	14853
883.64	14956
883.766	14880
883.892	14750
884.018	14708
884.143	14849
884.269	14948
884.395	14648
884.52	14644
884.646	14663
884.772	14575
884.897	14343
885.023	14594
885.148	14708
885.274	14826
885.399	14663
885.524	14602
885.65	14446
885.775	14598
885.9	14564
886.025	14636
886.15	14705
886.275	14522
886.4	14484
886.525	14606
886.65	14446
886.775	14484
886.9	14705
887.025	14754
887.149	14564
887.274	14484
887.399	14358
887.523	14415
887.648	14313
887.773	14317
887.897	14450
888.021	14419
888.146	14404
888.27	14446
888.395	14446
888.519	14492
888.643	14457
888.767	14564
888.891	14237
889.015	14313
889.139	14214
889.263	14233
889.387	14298
889.511	14480
889.635	14473
889.759	14244
889.883	14149
890.006	14328
890.13	14408
890.254	14161
890.377	14233
890.501	14073
890.624	14024
890.748	14206
890.871	14027
890.995	13921
891.118	13890
891.241	13959
891.364	13917
891.488	14016
891.611	13959
891.734	14031
891.857	14024
891.98	13989
892.103	13955
892.226	13947
892.349	13928
892.471	13887
892.594	13909
892.717	13959
892.839	13955
892.962	13967
893.085	14020
893.207	13898
893.33	13780
893.452	13849
893.575	14039
893.697	13944
893.819	14081
893.941	14210
894.064	14058
894.186	13894
894.308	13883
894.43	14077
894.552	14100
894.674	14069
894.796	14027
894.918	14035
895.04	13997
895.161	14161
895.283	14054
895.405	14016
895.526	13970
895.648	14092
895.769	14054
895.891	14043
896.012	14221
896.134	14176
896.255	14107
896.376	14092
896.498	14199
896.619	14134
896.74	14111
896.861	14202
896.982	14488
897.103	14659
897.224	14408
897.345	14454
897.466	14313
897.587	14476
897.708	14564
897.828	14575
897.949	14343
898.07	14210
898.19	14419
898.311	14549
898.431	14393
898.552	14530
898.672	14613
898.792	14556
898.913	14499
899.033	14419
899.153	14377
899.273	14259
899.393	14259
899.513	14381
899.633	14336
899.753	14400
899.873	14252
899.993	14343
900.113	14343
900.232	14404
900.352	14301
900.472	14244
900.591	14225
900.711	14244
900.83	14183
900.95	14324
901.069	14328
901.189	14054
901.308	13944
901.427	13750
901.546	13875
901.665	13883
901.784	13894
901.904	13807
902.023	13636
902.141	13419
902.26	13438
902.379	13491
902.498	13426
902.617	13430
902.735	13491
902.854	13407
902.973	13430
903.091	13209
903.21	13110
903.328	13247
903.446	13171
903.565	12993
903.683	13042
903.801	13015
903.919	13031
904.038	13012
904.156	12859
904.274	12863
904.392	12833
904.51	12798
904.627	12852
904.745	12901
904.863	12852
904.981	12631
905.098	12521
905.216	12483
905.334	12574
905.451	12521
905.569	12395
905.686	12498
905.803	12589
905.921	12380
906.038	12410
906.155	12315
906.272	12251
906.389	12258
906.506	12171
906.623	12125
906.74	12171
906.857	12110
906.974	11950
907.091	12239
907.208	12220
907.324	12155
907.441	12011
907.557	11851
907.674	11980
907.79	11832
907.907	11805
908.023	11939
908.139	11901
908.256	11897
908.372	11851
908.488	11676
908.604	11665
908.72	11577
908.836	11630
908.952	11596
909.068	11699
909.184	11718
909.3	11710
909.415	11642
909.531	11649
909.647	11436
909.762	11410
909.878	11353
909.993	11402
910.108	11395
910.224	11474
910.339	11459
910.454	11296
910.57	11242
910.685	11212
910.8	11474
910.915	11402
911.03	11227
911.145	11189
911.259	11083
911.374	11155
911.489	11041
911.604	10999
911.718	10839
911.833	10858
911.947	10767
912.062	10706
912.176	10961
912.291	10923
912.405	10801
912.519	11045
912.633	11117
912.748	10942
912.862	10877
912.976	10752
913.09	10615
913.204	10717
913.318	10694
913.431	10797
913.545	10847
913.659	10953
913.772	10706
913.886	10641
914	10599
914.113	10683
914.226	10763
914.34	10637
914.453	10516
914.566	10660
914.68	10683
914.793	10546
914.906	10413
915.019	10363
915.132	10314
915.245	10428
915.358	10394
915.47	10386
915.583	10443
915.696	10424
915.809	10497
915.921	10485
916.034	10272
916.146	10417
916.259	10287
916.371	10352
916.483	10421
916.595	10234
916.708	10295
916.82	10337
916.932	10325
917.044	10204
917.156	10344
917.268	10200
917.38	10154
917.491	10219
917.603	10272
917.715	10295
917.826	10337
917.938	10268
918.049	10055
918.161	10249
918.272	10348
918.384	10318
918.495	10306
918.606	10105
918.717	10017
918.828	10135
918.939	10074
919.05	10040
919.161	10131
919.272	9899
919.383	9850
919.494	10207
919.604	10291
919.715	10162
919.826	10002
919.936	10078
920.047	10211
920.157	10207
920.267	10291
920.378	10147
920.488	10093
920.598	10344
920.708	10470
920.818	10356
920.928	10337
921.038	10470
921.148	10352
921.258	10097
921.368	10093
921.477	10002
921.587	9945
921.697	9838
921.806	9994
921.916	9854
922.025	9667
922.134	9656
922.244	9633
922.353	9690
922.462	9561
922.571	9549
922.68	9447
922.789	9367
922.898	9401
923.007	9283
923.116	9344
923.224	9359
923.333	9332
923.442	9249
923.55	9275
923.659	9230
923.767	9321
923.876	9135
923.984	9321
924.092	9165
924.201	9245
924.309	9256
924.417	9275
924.525	9199
924.633	9245
924.741	9926
924.849	9036
924.956	9161
925.064	9032
925.172	8883
925.279	9017
925.387	9039
925.494	9051
925.602	9112
925.709	9180
925.816	9036
925.924	9066
926.031	9081
926.138	9112
926.245	9135
926.352	8910
926.459	9093
926.566	9218
926.673	8944
926.779	8914
926.886	8857
926.993	8724
927.099	8754
927.206	8697
927.312	8781
927.419	8796
927.525	8785
927.631	8811
927.737	8689
927.843	8632
927.95	8549
928.056	8640
928.162	8674
928.267	8689
928.373	9275
928.479	8766
928.585	8552
928.69	8594
928.796	8636
928.901	8587
929.007	8454
929.112	8644
929.218	8571
929.323	8492
929.428	8568
929.533	8556
929.638	8526
929.743	8518
929.848	8583
929.953	8461
930.058	8366
930.163	8237
930.267	8279
930.372	8377
930.477	8187
930.581	8457
930.685	8256
930.79	8183
930.894	8123
930.998	8134
931.103	8343
931.207	7978
931.311	7982
931.415	7860
931.519	7708
931.623	7658
