Data from test_V78500241_2699.txt Node
Date: Fri Mar 25 14:52:30 CST 2022
User: usil
Spectrometer: V785-0024
Trigger mode: 0
Integration Time (sec): 4.000000E-1
Scans to average: 1
Nonlinearity correction enabled: false
Boxcar width: 0
Storing dark spectrum: false
XAxis mode: Wavelengths
Number of Pixels in Spectrum: 1024
>>>>>Begin Spectral Data<<<<<
801.071	21979
801.214	21972
801.356	21534
801.499	21458
801.641	21450
801.783	21367
801.926	21325
802.068	21374
802.211	21233
802.353	21264
802.496	20941
802.638	20918
802.78	20849
802.923	20781
803.065	20785
803.208	20762
803.35	20731
803.492	20781
803.635	20838
803.777	20735
803.919	20807
804.061	21089
804.204	20788
804.346	20590
804.488	20579
804.63	20724
804.773	20526
804.915	20598
805.057	20674
805.199	20701
805.341	20632
805.483	20754
805.626	20686
805.768	20499
805.91	20663
806.052	20640
806.194	20575
806.336	20697
806.478	20530
806.62	20632
806.762	20613
806.904	20929
807.046	21020
807.188	20971
807.33	21093
807.472	20944
807.614	20716
807.756	20861
807.898	20731
808.04	20697
808.182	20731
808.324	20659
808.465	20712
808.607	20834
808.749	21039
808.891	21112
809.033	21180
809.174	20979
809.316	20994
809.458	20948
809.6	20887
809.741	21077
809.883	20990
810.025	21157
810.166	21112
810.308	21062
810.45	21055
810.591	21005
810.733	20781
810.875	20777
811.016	20682
811.158	20663
811.299	20754
811.441	20910
811.582	20720
811.724	20746
811.865	20663
812.007	20678
812.148	20777
812.29	20724
812.431	20990
812.573	21127
812.714	21112
812.855	21256
812.997	21184
813.138	21519
813.279	21298
813.421	21252
813.562	21142
813.703	20956
813.845	20906
813.986	20739
814.127	20427
814.268	20332
814.41	20362
814.551	20328
814.692	20313
814.833	20187
814.974	20267
815.115	20336
815.256	20157
815.397	20142
815.539	20252
815.68	20054
815.821	20031
815.962	19993
816.103	19925
816.244	19818
816.385	19655
816.526	19746
816.666	19693
816.807	19312
816.948	19632
817.089	19578
817.23	19426
817.371	19316
817.512	19369
817.653	19510
817.793	19297
817.934	19457
818.075	19495
818.216	19419
818.356	19384
818.497	19297
818.638	19057
818.778	19145
818.919	19110
819.06	19148
819.2	19373
819.341	19285
819.481	19278
819.622	19449
819.762	19548
819.903	19529
820.043	19655
820.184	19335
820.324	19308
820.465	19601
820.605	19403
820.746	19411
820.886	19247
821.026	19377
821.167	19384
821.307	19362
821.447	19308
821.588	19297
821.728	19053
821.868	18928
822.008	18779
822.149	18715
822.289	18779
822.429	18608
822.569	18555
822.709	18536
822.849	18308
822.99	18380
823.13	18292
823.27	18285
823.41	18190
823.55	18079
823.69	17992
823.83	18079
823.97	18125
824.11	17935
824.25	17904
824.389	17794
824.529	17958
824.669	17874
824.809	17977
824.949	17999
825.089	17878
825.228	17855
825.368	17802
825.508	17745
825.648	17619
825.787	17828
825.927	17710
826.067	17714
826.206	17714
826.346	17741
826.485	17558
826.625	17581
826.765	17718
826.904	17699
827.044	17436
827.183	17391
827.323	17440
827.462	17402
827.601	17379
827.741	17280
827.88	17379
828.02	17296
828.159	17372
828.298	17372
828.437	17433
828.577	17303
828.716	17444
828.855	17273
828.994	17216
829.134	17098
829.273	17223
829.412	17014
829.551	17239
829.69	17143
829.829	17170
829.968	17299
830.107	17178
830.246	17117
830.385	16965
830.524	16991
830.663	16965
830.802	16995
830.941	16729
831.08	16717
831.219	16828
831.357	16828
831.496	17071
831.635	16812
831.774	16733
831.913	16542
832.051	16596
832.19	16542
832.329	16535
832.467	16466
832.606	16409
832.744	16447
832.883	16459
833.022	16398
833.16	16432
833.299	16558
833.437	16428
833.576	16485
833.714	16451
833.852	16531
833.991	16538
834.129	16542
834.267	16489
834.406	16538
834.544	16538
834.682	16485
834.821	16462
834.959	16603
835.097	16436
835.235	16622
835.373	16558
835.511	16527
835.65	16443
835.788	16322
835.926	16280
836.064	16219
836.202	16261
836.34	16402
836.478	16577
836.615	16303
836.753	16413
836.891	16432
837.029	16409
837.167	16325
837.305	16287
837.443	16333
837.58	16287
837.718	16348
837.856	16329
837.993	16219
838.131	16223
838.269	16154
838.406	16234
838.544	16124
838.681	15983
838.819	15861
838.956	15899
839.094	15873
839.231	15876
839.369	15949
839.506	16314
839.643	16082
839.781	15823
839.918	15785
840.055	15804
840.193	15857
840.33	15759
840.467	15922
840.604	15797
840.742	16071
840.879	15724
841.016	15690
841.153	15812
841.29	15915
841.427	15861
841.564	15918
841.701	15808
841.838	15823
841.975	15774
842.112	15781
842.249	15648
842.385	15584
842.522	15865
842.659	15584
842.796	15637
842.933	15637
843.069	15584
843.206	15553
843.343	15797
843.479	15595
843.616	15629
843.752	15420
843.889	15435
844.025	15481
844.162	15408
844.298	15534
844.435	15443
844.571	15351
844.708	15492
844.844	15507
844.98	15568
845.117	15534
845.253	15226
845.389	15275
845.525	15355
845.661	15241
845.798	15131
845.934	15275
846.07	15108
846.206	15279
846.342	15325
846.478	15222
846.614	15043
846.75	14925
846.886	14944
847.022	15066
847.158	15005
847.294	14921
847.429	15047
847.565	14914
847.701	15173
847.837	14773
847.972	14716
848.108	14842
848.244	14777
848.379	14632
848.515	14583
848.65	14587
848.786	14495
848.921	14621
849.057	14731
849.192	14724
849.328	14610
849.463	14541
849.598	14549
849.734	14473
849.869	14476
850.004	14343
850.14	14427
850.275	14389
850.41	14237
850.545	14199
850.68	14488
850.815	14389
850.95	14423
851.085	14541
851.22	14374
851.355	14351
851.49	14423
851.625	14278
851.76	14309
851.895	14240
852.03	14164
852.165	14294
852.299	14454
852.434	14393
852.569	14385
852.703	14320
852.838	14362
852.973	14454
853.107	14552
853.242	14320
853.376	14240
853.511	14069
853.645	14149
853.78	14328
853.914	14206
854.048	14176
854.183	14176
854.317	14161
854.451	14374
854.585	14168
854.72	14084
854.854	14229
854.988	14115
855.122	14183
855.256	14031
855.39	14138
855.524	14301
855.658	14271
855.792	14233
855.926	14206
856.06	14294
856.194	14233
856.327	14248
856.461	14225
856.595	14161
856.729	14195
856.862	14294
856.996	14252
857.13	14233
857.263	14282
857.397	14324
857.53	14142
857.664	14332
857.797	14263
857.931	14355
858.064	14278
858.197	14393
858.331	14305
858.464	14237
858.597	14130
858.731	14233
858.864	14332
858.997	14221
859.13	14263
859.263	14195
859.396	14259
859.529	14149
859.662	14161
859.795	14130
859.928	14294
860.061	14423
860.194	14286
860.327	14320
860.46	14248
860.592	14377
860.725	14301
860.858	14317
860.99	14278
861.123	14126
861.256	14206
861.388	14267
861.521	14807
861.653	14062
861.786	14043
861.918	14016
862.05	14153
862.183	14221
862.315	14103
862.447	14317
862.58	14126
862.712	14024
862.844	13947
862.976	14088
863.108	13963
863.24	14492
863.372	13856
863.504	14088
863.636	14081
863.768	14058
863.9	14077
864.032	13989
864.164	13989
864.296	14100
864.428	14119
864.559	14100
864.691	14046
864.823	14054
864.954	14016
865.086	14065
865.217	13967
865.349	13841
865.48	13974
865.612	14024
865.743	14134
865.875	14024
866.006	13986
866.137	14054
866.269	14092
866.4	13967
866.531	13928
866.662	13868
866.793	13936
866.924	13925
867.055	14043
867.186	13997
867.317	13955
867.448	13871
867.579	13978
867.71	13944
867.841	13849
867.972	13974
868.103	13978
868.233	13944
868.364	14008
868.495	14123
868.625	14187
868.756	14309
868.886	14142
869.017	14248
869.147	14320
869.278	14347
869.408	14301
869.539	14195
869.669	14355
869.799	14332
869.929	14412
870.06	14358
870.19	14640
870.32	14644
870.45	14575
870.58	14651
870.71	14762
870.84	14781
870.97	14735
871.1	14655
871.23	14807
871.36	14830
871.489	14651
871.619	14705
871.749	14842
871.879	14868
872.008	14899
872.138	14868
872.267	14906
872.397	14720
872.526	14632
872.656	14674
872.785	14640
872.915	14849
873.044	14948
873.173	14864
873.303	14826
873.432	15032
873.561	14948
873.69	14918
873.819	14872
873.948	15047
874.077	14902
874.206	14838
874.335	14811
874.464	15077
874.593	15180
874.722	15142
874.851	15294
874.979	15233
875.108	15256
875.237	15169
875.365	15032
875.494	15123
875.623	15386
875.751	15272
875.88	15294
876.008	15313
876.136	15469
876.265	15671
876.393	15694
876.521	15743
876.65	15736
876.778	15667
876.906	15511
877.034	15572
877.162	15564
877.29	15549
877.418	15599
877.546	15618
877.674	15644
877.802	15667
877.93	15644
878.058	15553
878.185	15485
878.313	15561
878.441	15500
878.568	15393
878.696	15622
878.824	15580
878.951	15705
879.079	15922
879.206	16032
879.333	15755
879.461	15667
879.588	15679
879.715	15812
879.842	15899
879.97	15728
880.097	15405
880.224	15488
880.351	15504
880.478	15485
880.605	15420
880.732	15519
880.859	15679
880.986	15507
881.112	15492
881.239	15291
881.366	15218
881.493	15108
881.619	15077
881.746	15161
881.872	15043
881.999	15112
882.125	15070
882.252	15131
882.378	15123
882.505	15195
882.631	15058
882.757	14937
882.883	14979
883.01	14933
883.136	14883
883.262	14720
883.388	14758
883.514	14971
883.64	14967
883.766	14941
883.892	14868
884.018	14773
884.143	14952
884.269	15017
884.395	14655
884.52	14667
884.646	14670
884.772	14648
884.897	14617
885.023	14621
885.148	14644
885.274	14773
885.399	14720
885.524	14610
885.65	14640
885.775	14602
885.9	14632
886.025	14670
886.15	14754
886.275	14621
886.4	14541
886.525	14682
886.65	14613
886.775	14693
886.9	14640
887.025	14845
887.149	14678
887.274	14484
887.399	14381
887.523	14495
887.648	14339
887.773	14351
887.897	14571
888.021	14644
888.146	14446
888.27	14522
888.395	14659
888.519	14587
888.643	14560
888.767	14587
888.891	14408
889.015	14301
889.139	14419
889.263	14362
889.387	14545
889.511	14526
889.635	14465
889.759	14362
889.883	14313
890.006	14400
890.13	14480
890.254	14298
890.377	14343
890.501	14191
890.624	14142
890.748	14172
890.871	14176
890.995	13997
891.118	13959
891.241	13993
891.364	14107
891.488	14157
891.611	14096
891.734	14024
891.857	14157
891.98	14046
892.103	14149
892.226	14046
892.349	14024
892.471	13826
892.594	14096
892.717	14195
892.839	13993
892.962	14050
893.085	14142
893.207	13974
893.33	13849
893.452	13993
893.575	14073
893.697	13967
893.819	14214
893.941	14282
894.064	14195
894.186	14100
894.308	14027
894.43	14176
894.552	14290
894.674	14214
894.796	14016
894.918	14084
895.04	14035
895.161	14206
895.283	14046
895.405	14119
895.526	14103
895.648	14202
895.769	14180
895.891	14263
896.012	14290
896.134	14294
896.255	14202
896.376	14119
896.498	14138
896.619	14305
896.74	14191
896.861	14328
896.982	14606
897.103	14754
897.224	14514
897.345	14492
897.466	14419
897.587	14495
897.708	14625
897.828	14610
897.949	14473
898.07	14404
898.19	14415
898.311	14568
898.431	14568
898.552	14625
898.672	14564
898.792	14686
898.913	14610
899.033	14511
899.153	14389
899.273	14339
899.393	14423
899.513	14415
899.633	14408
899.753	14473
899.873	14362
899.993	14328
900.113	14427
900.232	14450
900.352	14431
900.472	14324
900.591	14290
900.711	14324
900.83	14275
900.95	14385
901.069	14343
901.189	14172
901.308	14001
901.427	13883
901.546	13986
901.665	13890
901.784	13974
901.904	13879
902.023	13791
902.141	13620
902.26	13556
902.379	13639
902.498	13499
902.617	13468
902.735	13506
902.854	13544
902.973	13434
903.091	13247
903.21	13244
903.328	13198
903.446	13187
903.565	13042
903.683	13122
903.801	13019
903.919	12993
904.038	13110
904.156	12901
904.274	12901
904.392	12958
904.51	12916
904.627	12878
904.745	12909
904.863	12939
904.981	12795
905.098	12684
905.216	12654
905.334	12589
905.451	12604
905.569	12616
905.686	12650
905.803	12627
905.921	12437
906.038	12578
906.155	12486
906.272	12304
906.389	12388
906.506	12197
906.623	12262
906.74	12243
906.857	12053
906.974	12133
907.091	12346
907.208	12308
907.324	12254
907.441	12182
907.557	11996
907.674	11950
907.79	11885
907.907	11946
908.023	11996
908.139	11958
908.256	11866
908.372	11836
908.488	11847
908.604	11752
908.72	11718
908.836	11672
908.952	11722
909.068	11726
909.184	11786
909.3	11790
909.415	11718
909.531	11767
909.647	11497
909.762	11558
909.878	11436
909.993	11471
910.108	11501
910.224	11406
910.339	11551
910.454	11364
910.57	11383
910.685	11307
910.8	11493
910.915	11463
911.03	11292
911.145	11204
911.259	11128
911.374	11170
911.489	11064
911.604	11064
911.718	10968
911.833	11010
911.947	10839
912.062	10820
912.176	10976
912.291	10934
912.405	10987
912.519	11181
912.633	11181
912.748	11014
912.862	11037
912.976	10854
913.09	10721
913.204	10839
913.318	10801
913.431	10919
913.545	10930
913.659	10930
913.772	10801
913.886	10698
914	10679
914.113	10786
914.226	10862
914.34	10729
914.453	10618
914.566	10740
914.68	10675
914.793	10664
914.906	10432
915.019	10386
915.132	10363
915.245	10375
915.358	10500
915.47	10424
915.583	10485
915.696	10500
915.809	10569
915.921	10637
916.034	10398
916.146	10371
916.259	10367
916.371	10466
916.483	10497
916.595	10306
916.708	10421
916.82	10405
916.932	10363
917.044	10398
917.156	10325
917.268	10280
917.38	10211
917.491	10299
917.603	10310
917.715	10398
917.826	10382
917.938	10192
918.049	10188
918.161	10303
918.272	10405
918.384	10451
918.495	10261
918.606	10166
918.717	10097
918.828	10242
918.939	10128
919.05	10143
919.161	10185
919.272	9968
919.383	10002
919.494	10227
919.604	10424
919.715	10215
919.826	10086
919.936	10063
920.047	10227
920.157	10219
920.267	10363
920.378	10234
920.488	10223
920.598	10303
920.708	10417
920.818	10390
920.928	10367
921.038	10550
921.148	10508
921.258	10173
921.368	10158
921.477	10116
921.587	10040
921.697	9888
921.806	10158
921.916	9956
922.025	9728
922.134	9778
922.244	9720
922.353	9804
922.462	9698
922.571	9496
922.68	9458
922.789	9393
922.898	9462
923.007	9424
923.116	9511
923.224	9485
923.333	9363
923.442	9291
923.55	9249
923.659	9310
923.767	9386
923.876	9374
923.984	9370
924.092	9310
924.201	9233
924.309	9233
924.417	9253
924.525	9245
924.633	9233
924.741	10017
924.849	9089
924.956	9230
925.064	9146
925.172	9036
925.279	9005
925.387	9077
925.494	9077
925.602	9188
925.709	9188
925.816	9024
925.924	9085
926.031	9157
926.138	9154
926.245	9222
926.352	8994
926.459	9176
926.566	9211
926.673	9089
926.779	8990
926.886	8960
926.993	8804
927.099	8773
927.206	8766
927.312	8705
927.419	8872
927.525	8853
927.631	8842
927.737	8746
927.843	8651
927.95	8571
928.056	8667
928.162	8724
928.267	8811
928.373	9397
928.479	8826
928.585	8568
928.69	8682
928.796	8693
928.901	8621
929.007	8450
929.112	8598
929.218	8640
929.323	8484
929.428	8488
929.533	8568
929.638	8476
929.743	8480
929.848	8492
929.953	8552
930.058	8419
930.163	8309
930.267	8381
930.372	8446
930.477	8336
930.581	8476
930.685	8339
930.79	8206
930.894	8259
930.998	8183
931.103	8320
931.207	8008
931.311	7959
931.415	7875
931.519	7841
931.623	7674
