Data from test_V78500241_419.txt Node
Date: Fri Mar 25 14:36:38 CST 2022
User: usil
Spectrometer: V785-0024
Trigger mode: 0
Integration Time (sec): 4.000000E-1
Scans to average: 1
Nonlinearity correction enabled: false
Boxcar width: 0
Storing dark spectrum: false
XAxis mode: Wavelengths
Number of Pixels in Spectrum: 1024
>>>>>Begin Spectral Data<<<<<
801.071	26693
801.214	26427
801.356	26313
801.499	26164
801.641	26024
801.783	26096
801.926	26100
802.068	26077
802.211	25947
802.353	25947
802.496	25731
802.638	25647
802.78	25514
802.923	25635
803.065	25453
803.208	25514
803.35	25601
803.492	25772
803.635	25826
803.777	25601
803.919	25734
804.061	25944
804.204	25567
804.346	25609
804.488	25491
804.63	25582
804.773	25533
804.915	25616
805.057	25670
805.199	25590
805.341	25575
805.483	25609
805.626	25651
805.768	25597
805.91	25571
806.052	25616
806.194	25548
806.336	25746
806.478	25419
806.62	25594
806.762	25635
806.904	25845
807.046	26077
807.188	25997
807.33	25997
807.472	26046
807.614	25928
807.756	25936
807.898	25791
808.04	25849
808.182	25795
808.324	25696
808.465	25795
808.607	25837
808.749	26016
808.891	26206
809.033	26317
809.174	26237
809.316	26111
809.458	26073
809.6	26043
809.741	26126
809.883	26271
810.025	26206
810.166	26183
810.308	26290
810.45	26145
810.591	26195
810.733	25974
810.875	25963
811.016	25803
811.158	25784
811.299	25791
811.441	26027
811.582	26054
811.724	25913
811.865	26005
812.007	25864
812.148	25997
812.29	26054
812.431	26005
812.573	26062
812.714	26324
812.855	26290
812.997	26568
813.138	26708
813.279	26473
813.421	26522
813.562	26355
813.703	26229
813.845	26027
813.986	25734
814.127	25582
814.268	25487
814.41	25563
814.551	25438
814.692	25556
814.833	25476
814.974	25411
815.115	25388
815.256	25213
815.397	25175
815.539	25312
815.68	25255
815.821	25198
815.962	25282
816.103	25175
816.244	25190
816.385	24886
816.526	24909
816.666	24844
816.807	24623
816.948	24760
817.089	24719
817.23	24620
817.371	24513
817.512	24650
817.653	24559
817.793	24509
817.934	24604
818.075	24426
818.216	24661
818.356	24433
818.497	24308
818.638	24171
818.778	24281
818.919	24197
819.06	24224
819.2	24376
819.341	24445
819.481	24467
819.622	24711
819.762	24707
819.903	24738
820.043	24612
820.184	24570
820.324	24673
820.465	24582
820.605	24578
820.746	24494
820.886	24452
821.026	24494
821.167	24551
821.307	24673
821.447	24460
821.588	24361
821.728	24235
821.868	24114
822.008	23920
822.149	23992
822.289	23897
822.429	23634
822.569	23573
822.709	23543
822.849	23383
822.99	23444
823.13	23364
823.27	23261
823.41	23174
823.55	23181
823.69	23166
823.83	23132
823.97	23052
824.11	22889
824.25	23029
824.389	22934
824.529	22987
824.669	22904
824.809	23124
824.949	22915
825.089	23018
825.228	23022
825.368	22752
825.508	22809
825.648	22824
825.787	22801
825.927	22801
826.067	22649
826.206	22668
826.346	22805
826.485	22809
826.625	22778
826.765	22908
826.904	22824
827.044	22478
827.183	22504
827.323	22443
827.462	22596
827.601	22428
827.741	22386
827.88	22550
828.02	22310
828.159	22531
828.298	22398
828.437	22573
828.577	22295
828.716	22538
828.855	22303
828.994	22177
829.134	22173
829.273	22177
829.412	22025
829.551	22051
829.69	22002
829.829	22150
829.968	22219
830.107	22090
830.246	22109
830.385	22051
830.524	22025
830.663	22017
830.802	21812
830.941	21759
831.08	21747
831.219	21804
831.357	21751
831.496	21922
831.635	21675
831.774	21724
831.913	21545
832.051	21591
832.19	21488
832.329	21492
832.467	21268
832.606	21268
832.744	21306
832.883	21367
833.022	21408
833.16	21435
833.299	21374
833.437	21370
833.576	21363
833.714	21291
833.852	21416
833.991	21355
834.129	21519
834.267	21435
834.406	21367
834.544	21431
834.682	21283
834.821	21408
834.959	21538
835.097	21340
835.235	21393
835.373	21340
835.511	21382
835.65	21230
835.788	21233
835.926	21150
836.064	21047
836.202	21020
836.34	21184
836.478	21226
836.615	21192
836.753	21268
836.891	21325
837.029	21214
837.167	21047
837.305	21203
837.443	21119
837.58	21070
837.718	21058
837.856	21211
837.993	21070
838.131	21024
838.269	20921
838.406	20963
838.544	21005
838.681	20667
838.819	20682
838.956	20530
839.094	20556
839.231	20636
839.369	20758
839.506	20887
839.643	20815
839.781	20530
839.918	20560
840.055	20518
840.193	20503
840.33	20465
840.467	20469
840.604	20457
840.742	20746
840.879	20286
841.016	20320
841.153	20313
841.29	20564
841.427	20514
841.564	20423
841.701	20320
841.838	20343
841.975	20317
842.112	20434
842.249	20214
842.385	20172
842.522	20320
842.659	20206
842.796	20084
842.933	20050
843.069	20126
843.206	20092
843.343	20278
843.479	20134
843.616	20153
843.752	19925
843.889	19993
844.025	19970
844.162	19906
844.298	20054
844.435	19951
844.571	19906
844.708	20024
844.844	20024
844.98	20043
845.117	19852
845.253	19845
845.389	19674
845.525	19727
845.661	19738
845.798	19658
845.934	19769
846.07	19590
846.206	19791
846.342	19841
846.478	19651
846.614	19426
846.75	19282
846.886	19460
847.022	19483
847.158	19396
847.294	19430
847.429	19445
847.565	19392
847.701	19658
847.837	19187
847.972	19038
848.108	19175
848.244	19263
848.379	19038
848.515	19004
848.65	18981
848.786	18939
848.921	18852
849.057	19053
849.192	18977
849.328	19053
849.463	18798
849.598	18901
849.734	18954
849.869	18863
850.004	18711
850.14	18722
850.275	18757
850.41	18639
850.545	18623
850.68	18627
850.815	18696
850.95	18616
851.085	18833
851.22	18856
851.355	18734
851.49	18669
851.625	18620
851.76	18639
851.895	18582
852.03	18574
852.165	18745
852.299	18711
852.434	18719
852.569	18726
852.703	18700
852.838	18669
852.973	18768
853.107	18783
853.242	18703
853.376	18532
853.511	18441
853.645	18486
853.78	18589
853.914	18601
854.048	18570
854.183	18498
854.317	18448
854.451	18661
854.585	18429
854.72	18532
854.854	18456
854.988	18464
855.122	18479
855.256	18380
855.39	18429
855.524	18570
855.658	18391
855.792	18452
855.926	18426
856.06	18555
856.194	18517
856.327	18532
856.461	18380
856.595	18342
856.729	18456
856.862	18532
856.996	18486
857.13	18570
857.263	18665
857.397	18547
857.53	18540
857.664	18498
857.797	18395
857.931	18494
858.064	18471
858.197	18410
858.331	18452
858.464	18490
858.597	18388
858.731	18365
858.864	18506
858.997	18380
859.13	18467
859.263	18365
859.396	18456
859.529	18479
859.662	18429
859.795	18353
859.928	18464
860.061	18555
860.194	18498
860.327	18471
860.46	18338
860.592	18597
860.725	18540
860.858	18490
860.99	18528
861.123	18426
861.256	18353
861.388	18456
861.521	19236
861.653	18334
861.786	18220
861.918	18330
862.05	18353
862.183	18418
862.315	18616
862.447	18467
862.58	18391
862.712	18171
862.844	18197
862.976	18273
863.108	18300
863.24	18460
863.372	18205
863.504	18095
863.636	18152
863.768	18338
863.9	18197
864.032	18049
864.164	18125
864.296	18186
864.428	18186
864.559	18251
864.691	18209
864.823	18224
864.954	18197
865.086	18095
865.217	18083
865.349	18041
865.48	18098
865.612	18110
865.743	18213
865.875	18083
866.006	18034
866.137	18030
866.269	18026
866.4	17984
866.531	18087
866.662	17958
866.793	18030
866.924	17977
867.055	18049
867.186	18114
867.317	17927
867.448	17965
867.579	18026
867.71	17889
867.841	17923
867.972	18072
868.103	18041
868.233	17958
868.364	18041
868.495	18038
868.625	18190
868.756	18308
868.886	18220
869.017	18270
869.147	18479
869.278	18338
869.408	18372
869.539	18266
869.669	18235
869.799	18239
869.929	18388
870.06	18361
870.19	18559
870.32	18593
870.45	18604
870.58	18604
870.71	18821
870.84	18665
870.97	18692
871.1	18574
871.23	18848
871.36	18848
871.489	18806
871.619	18829
871.749	18947
871.879	18890
872.008	18924
872.138	18863
872.267	18882
872.397	18661
872.526	18715
872.656	18715
872.785	18703
872.915	18886
873.044	18958
873.173	18916
873.303	18871
873.432	18848
873.561	18958
873.69	18894
873.819	18943
873.948	18920
874.077	18875
874.206	18821
874.335	18962
874.464	18935
874.593	19027
874.722	19118
874.851	19209
874.979	19046
875.108	19168
875.237	19145
875.365	18905
875.494	19126
875.623	19190
875.751	19160
875.88	19190
876.008	19304
876.136	19407
876.265	19476
876.393	19666
876.521	19525
876.65	19506
876.778	19613
876.906	19438
877.034	19476
877.162	19578
877.29	19514
877.418	19426
877.546	19586
877.674	19422
877.802	19529
877.93	19582
878.058	19518
878.185	19362
878.313	19464
878.441	19533
878.568	19472
878.696	19415
878.824	19601
878.951	19556
879.079	19666
879.206	19871
879.333	19715
879.461	19620
879.588	19693
879.715	19715
879.842	19803
879.97	19628
880.097	19320
880.224	19407
880.351	19270
880.478	19373
880.605	19282
880.732	19350
880.859	19670
880.986	19407
881.112	19316
881.239	19266
881.366	19107
881.493	19004
881.619	19076
881.746	19000
881.872	19050
881.999	18989
882.125	18913
882.252	18932
882.378	19057
882.505	19221
882.631	18890
882.757	18844
882.883	18928
883.01	18791
883.136	18692
883.262	18703
883.388	18734
883.514	18635
883.64	18913
883.766	18700
883.892	18555
884.018	18623
884.143	18669
884.269	18760
884.395	18574
884.52	18407
884.646	18506
884.772	18308
884.897	18380
885.023	18422
885.148	18551
885.274	18528
885.399	18506
885.524	18327
885.65	18479
885.775	18467
885.9	18361
886.025	18422
886.15	18441
886.275	18319
886.4	18330
886.525	18304
886.65	18346
886.775	18334
886.9	18418
887.025	18589
887.149	18429
887.274	18232
887.399	18072
887.523	18235
887.648	18178
887.773	18057
887.897	18148
888.021	18201
888.146	18106
888.27	18300
888.395	18327
888.519	18178
888.643	18228
888.767	18087
888.891	18121
889.015	18106
889.139	18098
889.263	17931
889.387	17996
889.511	18194
889.635	18068
889.759	18003
889.883	17980
890.006	17942
890.13	18038
890.254	17916
890.377	17870
890.501	17901
890.624	17756
890.748	17832
890.871	17691
890.995	17737
891.118	17615
891.241	17600
891.364	17649
891.488	17729
891.611	17657
891.734	17596
891.857	17661
891.98	17707
892.103	17680
892.226	17691
892.349	17554
892.471	17436
892.594	17520
892.717	17668
892.839	17562
892.962	17528
893.085	17634
893.207	17615
893.33	17436
893.452	17433
893.575	17634
893.697	17486
893.819	17646
893.941	17771
894.064	17699
894.186	17562
894.308	17524
894.43	17741
894.552	17786
894.674	17733
894.796	17425
894.918	17611
895.04	17653
895.161	17592
895.283	17573
895.405	17562
895.526	17642
895.648	17589
895.769	17562
895.891	17562
896.012	17676
896.134	17596
896.255	17592
896.376	17718
896.498	17699
896.619	17630
896.74	17642
896.861	17779
896.982	17988
897.103	18121
897.224	17912
897.345	17813
897.466	17798
897.587	17897
897.708	17912
897.828	17923
897.949	17836
898.07	17767
898.19	17786
898.311	17935
898.431	17745
898.552	17874
898.672	17935
898.792	18011
898.913	17840
899.033	17866
899.153	17699
899.273	17634
899.393	17646
899.513	17786
899.633	17630
899.753	17714
899.873	17615
899.993	17737
900.113	17589
900.232	17657
900.352	17585
900.472	17493
900.591	17452
900.711	17649
900.83	17440
900.95	17554
901.069	17570
901.189	17474
901.308	17189
901.427	17014
901.546	17216
901.665	17117
901.784	17136
901.904	16911
902.023	16991
902.141	16733
902.26	16691
902.379	16771
902.498	16698
902.617	16634
902.735	16771
902.854	16592
902.973	16550
903.091	16405
903.21	16314
903.328	16253
903.446	16226
903.565	16124
903.683	16116
903.801	16090
903.919	16158
904.038	16078
904.156	15987
904.274	15968
904.392	15873
904.51	15804
904.627	16040
904.745	15903
904.863	16017
904.981	15732
905.098	15599
905.216	15690
905.334	15564
905.451	15675
905.569	15538
905.686	15679
905.803	15580
905.921	15370
906.038	15466
906.155	15511
906.272	15283
906.389	15348
906.506	15173
906.623	15138
906.74	15131
906.857	14967
906.974	14990
907.091	15214
907.208	15313
907.324	15127
907.441	14960
907.557	14872
907.674	14876
907.79	14746
907.907	14777
908.023	14914
908.139	14804
908.256	14792
908.372	14769
908.488	14720
908.604	14571
908.72	14659
908.836	14518
908.952	14503
909.068	14636
909.184	14659
909.3	14541
909.415	14530
909.531	14549
909.647	14275
909.762	14298
909.878	14278
909.993	14202
910.108	14164
910.224	14278
910.339	14278
910.454	14191
910.57	14115
910.685	14050
910.8	14282
910.915	14290
911.03	14168
911.145	13978
911.259	13803
911.374	13894
911.489	13833
911.604	13902
911.718	13708
911.833	13651
911.947	13548
912.062	13415
912.176	13685
912.291	13636
912.405	13632
912.519	13875
912.633	13864
912.748	13693
912.862	13559
912.976	13502
913.09	13415
913.204	13445
913.318	13499
913.431	13567
913.545	13605
913.659	13613
913.772	13403
913.886	13274
914	13381
914.113	13400
914.226	13350
914.34	13304
914.453	13209
914.566	13411
914.68	13228
914.793	13244
914.906	13042
915.019	13031
915.132	12901
915.245	12935
915.358	13004
915.47	13057
915.583	13004
915.696	13012
915.809	13164
915.921	13114
916.034	12882
916.146	12996
916.259	12878
916.371	13000
916.483	12970
916.595	12810
916.708	12829
916.82	12825
916.932	12791
917.044	12890
917.156	12787
917.268	12681
917.38	12696
917.491	12734
917.603	12734
917.715	12863
917.826	12837
917.938	12631
918.049	12612
918.161	12711
918.272	12787
918.384	12795
918.495	12684
918.606	12597
918.717	12521
918.828	12540
918.939	12574
919.05	12391
919.161	12525
919.272	12327
919.383	12357
919.494	12597
919.604	12673
919.715	12502
919.826	12422
919.936	12460
920.047	12585
920.157	12475
920.267	12715
920.378	12551
920.488	12388
920.598	12681
920.708	12772
920.818	12669
920.928	12585
921.038	12768
921.148	12734
921.258	12433
921.368	12327
921.477	12296
921.587	12285
921.697	12136
921.806	12361
921.916	12114
922.025	11950
922.134	11904
922.244	11889
922.353	11973
922.462	11805
922.571	11794
922.68	11604
922.789	11608
922.898	11665
923.007	11551
923.116	11474
923.224	11573
923.333	11516
923.442	11509
923.55	11364
923.659	11448
923.767	11478
923.876	11402
923.984	11482
924.092	11356
924.201	11433
924.309	11417
924.417	11379
924.525	11322
924.633	11334
924.741	12232
924.849	11239
924.956	11220
925.064	11201
925.172	11056
925.279	11010
925.387	11136
925.494	11155
925.602	11227
925.709	11117
925.816	11071
925.924	11083
926.031	11140
926.138	11090
926.245	11113
926.352	11083
926.459	11128
926.566	11155
926.673	11045
926.779	10991
926.886	10862
926.993	10801
927.099	10721
927.206	10668
927.312	10679
927.419	10805
927.525	10759
927.631	10831
927.737	10630
927.843	10645
927.95	10592
928.056	10596
928.162	10558
928.267	10675
928.373	11265
928.479	10725
928.585	10462
928.69	10535
928.796	10649
928.901	10466
929.007	10280
929.112	10500
929.218	10443
929.323	10428
929.428	10299
929.533	10459
929.638	10356
929.743	10341
929.848	10409
929.953	10303
930.058	10268
930.163	10093
930.267	10124
930.372	10253
930.477	10044
930.581	10276
930.685	10090
930.79	10025
930.894	9983
930.998	10025
931.103	10093
931.207	9755
931.311	9652
931.415	9603
931.519	9431
931.623	9401
