Data from test_V78500241_1235.txt Node
Date: Fri Mar 25 14:42:18 CST 2022
User: usil
Spectrometer: V785-0024
Trigger mode: 0
Integration Time (sec): 4.000000E-1
Scans to average: 1
Nonlinearity correction enabled: false
Boxcar width: 0
Storing dark spectrum: false
XAxis mode: Wavelengths
Number of Pixels in Spectrum: 1024
>>>>>Begin Spectral Data<<<<<
801.071	22424
801.214	22325
801.356	22029
801.499	21941
801.641	21724
801.783	21759
801.926	21774
802.068	21663
802.211	21572
802.353	21545
802.496	21302
802.638	21313
802.78	21180
802.923	21142
803.065	21123
803.208	21066
803.35	20975
803.492	21180
803.635	21214
803.777	21047
803.919	21241
804.061	21412
804.204	21214
804.346	21142
804.488	21093
804.63	21043
804.773	21013
804.915	21096
805.057	21108
805.199	21077
805.341	21176
805.483	21051
805.626	21047
805.768	21009
805.91	20982
806.052	21013
806.194	21081
806.336	21135
806.478	21104
806.62	21062
806.762	21024
806.904	21192
807.046	21401
807.188	21408
807.33	21435
807.472	21473
807.614	21374
807.756	21332
807.898	21268
808.04	20952
808.182	21051
808.324	21214
808.465	21104
808.607	21386
808.749	21488
808.891	21515
809.033	21743
809.174	21542
809.316	21496
809.458	21344
809.6	21447
809.741	21420
809.883	21576
810.025	21686
810.166	21545
810.308	21618
810.45	21405
810.591	21424
810.733	21249
810.875	21195
811.016	21077
811.158	21036
811.299	21283
811.441	21393
811.582	21268
811.724	21207
811.865	21199
812.007	21302
812.148	21195
812.29	21298
812.431	21412
812.573	21504
812.714	21625
812.855	21671
812.997	21778
813.138	21934
813.279	21842
813.421	21709
813.562	21553
813.703	21523
813.845	21359
813.986	21169
814.127	20842
814.268	20773
814.41	20826
814.551	20731
814.692	20769
814.833	20682
814.974	20750
815.115	20640
815.256	20590
815.397	20636
815.539	20648
815.68	20400
815.821	20309
815.962	20518
816.103	20495
816.244	20309
816.385	20221
816.526	20229
816.666	20084
816.807	19845
816.948	20046
817.089	20016
817.23	19978
817.371	19917
817.512	19852
817.653	19883
817.793	19864
817.934	19852
818.075	19997
818.216	19967
818.356	19795
818.497	19708
818.638	19529
818.778	19525
818.919	19556
819.06	19571
819.2	19647
819.341	19803
819.481	19841
819.622	19864
819.762	20221
819.903	20008
820.043	19909
820.184	19925
820.324	19940
820.465	20012
820.605	19982
820.746	19849
820.886	19864
821.026	19925
821.167	19864
821.307	19883
821.447	19788
821.588	19723
821.728	19548
821.868	19422
822.008	19324
822.149	19266
822.289	19282
822.429	19061
822.569	18981
822.709	19091
822.849	18825
822.99	18852
823.13	18726
823.27	18700
823.41	18604
823.55	18616
823.69	18589
823.83	18551
823.97	18467
824.11	18464
824.25	18296
824.389	18357
824.529	18361
824.669	18369
824.809	18471
824.949	18483
825.089	18467
825.228	18319
825.368	18201
825.508	18251
825.648	18125
825.787	18262
825.927	18216
826.067	18121
826.206	18117
826.346	18270
826.485	18190
826.625	18148
826.765	18304
826.904	18239
827.044	17859
827.183	17950
827.323	17764
827.462	17882
827.601	17779
827.741	17874
827.88	17870
828.02	17695
828.159	17866
828.298	17859
828.437	17931
828.577	17821
828.716	17946
828.855	17843
828.994	17585
829.134	17634
829.273	17680
829.412	17604
829.551	17482
829.69	17547
829.829	17695
829.968	17824
830.107	17703
830.246	17619
830.385	17532
830.524	17455
830.663	17448
830.802	17254
830.941	17216
831.08	17273
831.219	17315
831.357	17307
831.496	17425
831.635	17220
831.774	17250
831.913	17140
832.051	17083
832.19	16972
832.329	17060
832.467	16968
832.606	17003
832.744	17003
832.883	16927
833.022	16889
833.16	16949
833.299	16957
833.437	16934
833.576	17064
833.714	16946
833.852	17006
833.991	17018
834.129	17006
834.267	17094
834.406	16976
834.544	17048
834.682	17105
834.821	16938
834.959	17193
835.097	16854
835.235	17048
835.373	17033
835.511	16938
835.65	16850
835.788	16915
835.926	16694
836.064	16588
836.202	16740
836.34	16877
836.478	16946
836.615	16801
836.753	16869
836.891	16965
837.029	16911
837.167	16854
837.305	16881
837.443	16793
837.58	16626
837.718	16820
837.856	16736
837.993	16672
838.131	16801
838.269	16622
838.406	16710
838.544	16573
838.681	16405
838.819	16455
838.956	16204
839.094	16314
839.231	16310
839.369	16440
839.506	16668
839.643	16596
839.781	16318
839.918	16303
840.055	16291
840.193	16325
840.33	16268
840.467	16318
840.604	16375
840.742	16577
840.879	16238
841.016	16238
841.153	16207
841.29	16375
841.427	16299
841.564	16272
841.701	16329
841.838	16299
841.975	16207
842.112	16257
842.249	16177
842.385	16021
842.522	16150
842.659	16067
842.796	16112
842.933	16147
843.069	16063
843.206	16013
843.343	16169
843.479	16105
843.616	16086
843.752	15850
843.889	15861
844.025	16002
844.162	15907
844.298	16010
844.435	15854
844.571	15804
844.708	15915
844.844	16071
844.98	16048
845.117	15930
845.253	15774
845.389	15781
845.525	15873
845.661	15922
845.798	15652
845.934	15785
846.07	15819
846.206	15945
846.342	15934
846.478	15724
846.614	15488
846.75	15424
846.886	15458
847.022	15492
847.158	15485
847.294	15382
847.429	15462
847.565	15405
847.701	15728
847.837	15142
847.972	15104
848.108	15241
848.244	15230
848.379	15104
848.515	14960
848.65	14967
848.786	15028
848.921	15051
849.057	15142
849.192	15176
849.328	15150
849.463	14963
849.598	15001
849.734	14960
849.869	14887
850.004	14762
850.14	14792
850.275	14845
850.41	14746
850.545	14743
850.68	14819
850.815	14769
850.95	14682
851.085	14948
851.22	14891
851.355	14785
851.49	14895
851.625	14777
851.76	14743
851.895	14663
852.03	14610
852.165	14823
852.299	14868
852.434	14834
852.569	14834
852.703	14891
852.838	14933
852.973	14887
853.107	14902
853.242	14743
853.376	14625
853.511	14663
853.645	14552
853.78	14781
853.914	14746
854.048	14716
854.183	14617
854.317	14670
854.451	14781
854.585	14583
854.72	14670
854.854	14689
854.988	14492
855.122	14667
855.256	14530
855.39	14621
855.524	14667
855.658	14659
855.792	14621
855.926	14705
856.06	14735
856.194	14701
856.327	14625
856.461	14530
856.595	14571
856.729	14667
856.862	14746
856.996	14712
857.13	14758
857.263	14705
857.397	14823
857.53	14670
857.664	14689
857.797	14716
857.931	14743
858.064	14621
858.197	14796
858.331	14739
858.464	14682
858.597	14682
858.731	14724
858.864	14689
858.997	14632
859.13	14678
859.263	14743
859.396	14636
859.529	14659
859.662	14693
859.795	14598
859.928	14663
860.061	14811
860.194	14823
860.327	14602
860.46	14610
860.592	14792
860.725	14807
860.858	14758
860.99	14720
861.123	14693
861.256	14678
861.388	14708
861.521	15313
861.653	14530
861.786	14484
861.918	14545
862.05	14579
862.183	14613
862.315	14625
862.447	14636
862.58	14648
862.712	14423
862.844	14419
862.976	14412
863.108	14552
863.24	14929
863.372	14320
863.504	14362
863.636	14393
863.768	14438
863.9	14526
864.032	14442
864.164	14446
864.296	14480
864.428	14473
864.559	14537
864.691	14552
864.823	14625
864.954	14454
865.086	14473
865.217	14461
865.349	14366
865.48	14434
865.612	14488
865.743	14587
865.875	14522
866.006	14366
866.137	14442
866.269	14434
866.4	14400
866.531	14381
866.662	14408
866.793	14301
866.924	14465
867.055	14423
867.186	14358
867.317	14309
867.448	14336
867.579	14362
867.71	14370
867.841	14313
867.972	14518
868.103	14404
868.233	14396
868.364	14355
868.495	14522
868.625	14636
868.756	14746
868.886	14621
869.017	14697
869.147	14800
869.278	14735
869.408	14693
869.539	14762
869.669	14693
869.799	14750
869.929	14804
870.06	14781
870.19	15017
870.32	14880
870.45	14941
870.58	15093
870.71	15184
870.84	15188
870.97	14975
871.1	15039
871.23	15146
871.36	15279
871.489	15123
871.619	15222
871.749	15283
871.879	15283
872.008	15401
872.138	15268
872.267	15294
872.397	15207
872.526	15089
872.656	15070
872.785	15089
872.915	15340
873.044	15363
873.173	15382
873.303	15428
873.432	15351
873.561	15329
873.69	15378
873.819	15363
873.948	15275
874.077	15435
874.206	15386
874.335	15317
874.464	15443
874.593	15545
874.722	15481
874.851	15644
874.979	15663
875.108	15648
875.237	15561
875.365	15644
875.494	15523
875.623	15576
875.751	15561
875.88	15580
876.008	15743
876.136	15774
876.265	16093
876.393	16253
876.521	16158
876.65	16090
876.778	16158
876.906	16109
877.034	15987
877.162	16010
877.29	15964
877.418	16109
877.546	16029
877.674	16055
877.802	16002
877.93	16071
878.058	15956
878.185	15831
878.313	15994
878.441	15964
878.568	15869
878.696	15892
878.824	16036
878.951	16128
879.079	16318
879.206	16428
879.333	16215
879.461	16124
879.588	16154
879.715	16192
879.842	16352
879.97	16173
880.097	15880
880.224	15892
880.351	15808
880.478	15918
880.605	15903
880.732	15930
880.859	16116
880.986	15915
881.112	15979
881.239	15797
881.366	15523
881.493	15591
881.619	15534
881.746	15584
881.872	15564
881.999	15534
882.125	15538
882.252	15698
882.378	15580
882.505	15698
882.631	15435
882.757	15466
882.883	15325
883.01	15393
883.136	15264
883.262	15173
883.388	15180
883.514	15355
883.64	15386
883.766	15272
883.892	15104
884.018	15256
884.143	15306
884.269	15435
884.395	15154
884.52	15005
884.646	15013
884.772	14960
884.897	14990
885.023	15104
885.148	15184
885.274	15241
885.399	15116
885.524	15051
885.65	15062
885.775	15112
885.9	15066
886.025	15123
886.15	15230
886.275	15108
886.4	14975
886.525	15032
886.65	14941
886.775	14948
886.9	15097
887.025	15332
887.149	15051
887.274	14830
887.399	14838
887.523	14838
887.648	14834
887.773	14804
887.897	14982
888.021	15013
888.146	14838
888.27	14941
888.395	14948
888.519	14921
888.643	14963
888.767	14948
888.891	14769
889.015	14682
889.139	14746
889.263	14701
889.387	14724
889.511	14952
889.635	14845
889.759	14785
889.883	14644
890.006	14800
890.13	14807
890.254	14587
890.377	14674
890.501	14644
890.624	14446
890.748	14621
890.871	14571
890.995	14336
891.118	14393
891.241	14503
891.364	14488
891.488	14530
891.611	14457
891.734	14450
891.857	14461
891.98	14396
892.103	14579
892.226	14431
892.349	14370
892.471	14157
892.594	14332
892.717	14495
892.839	14362
892.962	14404
893.085	14507
893.207	14442
893.33	14290
893.452	14301
893.575	14495
893.697	14408
893.819	14602
893.941	14602
894.064	14587
894.186	14339
894.308	14358
894.43	14568
894.552	14686
894.674	14571
894.796	14385
894.918	14522
895.04	14457
895.161	14549
895.283	14434
895.405	14473
895.526	14541
895.648	14594
895.769	14541
895.891	14530
896.012	14625
896.134	14640
896.255	14545
896.376	14495
896.498	14594
896.619	14594
896.74	14659
896.861	14629
896.982	14941
897.103	15127
897.224	14864
897.345	14773
897.466	14777
897.587	14857
897.708	14857
897.828	14899
897.949	14811
898.07	14743
898.19	14769
898.311	14982
898.431	14929
898.552	14872
898.672	14895
898.792	15039
898.913	14937
899.033	14819
899.153	14659
899.273	14705
899.393	14727
899.513	14902
899.633	14731
899.753	14746
899.873	14800
899.993	14853
900.113	14796
900.232	14838
900.352	14792
900.472	14701
900.591	14621
900.711	14659
900.83	14511
900.95	14712
901.069	14792
901.189	14511
901.308	14309
901.427	14305
901.546	14347
901.665	14313
901.784	14362
901.904	14138
902.023	14073
902.141	13928
902.26	13811
902.379	13883
902.498	13909
902.617	13791
902.735	13837
902.854	13818
902.973	13769
903.091	13651
903.21	13597
903.328	13582
903.446	13559
903.565	13381
903.683	13403
903.801	13411
903.919	13369
904.038	13384
904.156	13263
904.274	13350
904.392	13198
904.51	13187
904.627	13209
904.745	13228
904.863	13278
904.981	13050
905.098	12947
905.216	12943
905.334	12958
905.451	12951
905.569	12939
905.686	12939
905.803	12939
905.921	12696
906.038	12806
906.155	12745
906.272	12677
906.389	12700
906.506	12540
906.623	12422
906.74	12445
906.857	12369
906.974	12437
907.091	12521
907.208	12650
907.324	12570
907.441	12384
907.557	12232
907.674	12262
907.79	12197
907.907	12194
908.023	12292
908.139	12243
908.256	12216
908.372	12171
908.488	12155
908.604	12057
908.72	11999
908.836	12034
908.952	12022
909.068	12011
909.184	12148
909.3	11980
909.415	12064
909.531	12060
909.647	11840
909.762	11741
909.878	11680
909.993	11870
910.108	11798
910.224	11710
910.339	11748
910.454	11649
910.57	11623
910.685	11570
910.8	11783
910.915	11798
911.03	11680
911.145	11497
911.259	11471
911.374	11535
911.489	11501
911.604	11395
911.718	11239
911.833	11193
911.947	11178
912.062	11105
912.176	11193
912.291	11258
912.405	11239
912.519	11448
912.633	11395
912.748	11307
912.862	11265
912.976	11124
913.09	10965
913.204	11105
913.318	11143
913.431	11273
913.545	11170
913.659	11181
913.772	11143
913.886	11041
914	10976
914.113	11159
914.226	11098
914.34	11025
914.453	10949
914.566	11041
914.68	11037
914.793	10885
914.906	10801
915.019	10702
915.132	10649
915.245	10717
915.358	10721
915.47	10721
915.583	10759
915.696	10706
915.809	10847
915.921	10889
916.034	10714
916.146	10660
916.259	10603
916.371	10729
916.483	10759
916.595	10664
916.708	10759
916.82	10668
916.932	10607
917.044	10668
917.156	10698
917.268	10577
917.38	10596
917.491	10561
917.603	10580
917.715	10649
917.826	10618
917.938	10558
918.049	10459
918.161	10584
918.272	10626
918.384	10622
918.495	10523
918.606	10436
918.717	10318
918.828	10497
918.939	10500
919.05	10310
919.161	10428
919.272	10200
919.383	10249
919.494	10542
919.604	10672
919.715	10337
919.826	10417
919.936	10443
920.047	10489
920.157	10428
920.267	10626
920.378	10512
920.488	10428
920.598	10649
920.708	10801
920.818	10637
920.928	10622
921.038	10774
921.148	10691
921.258	10447
921.368	10363
921.477	10341
921.587	10268
921.697	10116
921.806	10421
921.916	10158
922.025	10025
922.134	9956
922.244	10013
922.353	9964
922.462	9915
922.571	9823
922.68	9656
922.789	9622
922.898	9675
923.007	9641
923.116	9690
923.224	9671
923.333	9625
923.442	9644
923.55	9507
923.659	9648
923.767	9648
923.876	9466
923.984	9545
924.092	9481
924.201	9542
924.309	9530
924.417	9526
924.525	9462
924.633	9530
924.741	10280
924.849	9367
924.956	9431
925.064	9253
925.172	9313
925.279	9332
925.387	9351
925.494	9283
925.602	9431
925.709	9477
925.816	9245
925.924	9401
926.031	9431
926.138	9367
926.245	9310
926.352	9253
926.459	9298
926.566	9435
926.673	9245
926.779	9146
926.886	9195
926.993	9032
927.099	9009
927.206	8967
927.312	8929
927.419	9017
927.525	9017
927.631	9066
927.737	8891
927.843	8918
927.95	8746
928.056	8891
928.162	8986
928.267	8994
928.373	9561
928.479	8975
928.585	8769
928.69	8952
928.796	8952
928.901	8758
929.007	8667
929.112	8845
929.218	8823
929.323	8727
929.428	8724
929.533	8857
929.638	8659
929.743	8705
929.848	8731
929.953	8708
930.058	8659
930.163	8465
930.267	8480
930.372	8629
930.477	8564
930.581	8651
930.685	8568
930.79	8431
930.894	8434
930.998	8457
931.103	8602
931.207	8244
931.311	8164
931.415	8111
931.519	7902
931.623	7913
