Data from test_V78500241_3380.txt Node
Date: Fri Mar 25 14:57:15 CST 2022
User: usil
Spectrometer: V785-0024
Trigger mode: 0
Integration Time (sec): 4.000000E-1
Scans to average: 1
Nonlinearity correction enabled: false
Boxcar width: 0
Storing dark spectrum: false
XAxis mode: Wavelengths
Number of Pixels in Spectrum: 1024
>>>>>Begin Spectral Data<<<<<
801.071	21915
801.214	21819
801.356	21618
801.499	21469
801.641	21329
801.783	21447
801.926	21291
802.068	21260
802.211	21100
802.353	21036
802.496	20830
802.638	20811
802.78	20796
802.923	20708
803.065	20621
803.208	20560
803.35	20598
803.492	20750
803.635	20792
803.777	20689
803.919	20712
804.061	20914
804.204	20720
804.346	20533
804.488	20507
804.63	20583
804.773	20526
804.915	20537
805.057	20659
805.199	20438
805.341	20636
805.483	20590
805.626	20549
805.768	20484
805.91	20469
806.052	20682
806.194	20465
806.336	20716
806.478	20514
806.62	20545
806.762	20537
806.904	20724
807.046	21074
807.188	20960
807.33	20754
807.472	20857
807.614	20765
807.756	20781
807.898	20670
808.04	20625
808.182	20537
808.324	20545
808.465	20648
808.607	20712
808.749	20838
808.891	20941
809.033	21074
809.174	20883
809.316	20864
809.458	20861
809.6	20815
809.741	20933
809.883	20918
810.025	21055
810.166	21051
810.308	21138
810.45	21032
810.591	20956
810.733	20735
810.875	20758
811.016	20533
811.158	20560
811.299	20621
811.441	20777
811.582	20743
811.724	20541
811.865	20655
812.007	20640
812.148	20693
812.29	20587
812.431	20826
812.573	20883
812.714	21036
812.855	21157
812.997	21275
813.138	21469
813.279	21233
813.421	21138
813.562	21058
813.703	20880
813.845	20746
813.986	20537
814.127	20415
814.268	20374
814.41	20259
814.551	20202
814.692	20142
814.833	20069
814.974	20046
815.115	20149
815.256	20069
815.397	20210
815.539	20058
815.68	19940
815.821	19871
815.962	19993
816.103	19841
816.244	19746
816.385	19624
816.526	19647
816.666	19468
816.807	19324
816.948	19346
817.089	19495
817.23	19457
817.371	19270
817.512	19343
817.653	19308
817.793	19312
817.934	19346
818.075	19339
818.216	19324
818.356	19297
818.497	19190
818.638	18981
818.778	18913
818.919	19050
819.06	19019
819.2	19232
819.341	19213
819.481	19240
819.622	19278
819.762	19559
819.903	19430
820.043	19388
820.184	19278
820.324	19240
820.465	19247
820.605	19343
820.746	19312
820.886	19152
821.026	19152
821.167	19168
821.307	19255
821.447	19285
821.588	19133
821.728	18993
821.868	18840
822.008	18585
822.149	18772
822.289	18673
822.429	18582
822.569	18448
822.709	18388
822.849	18224
822.99	18129
823.13	18300
823.27	18171
823.41	18007
823.55	17973
823.69	17950
823.83	18057
823.97	17992
824.11	17885
824.25	17771
824.389	17779
824.529	17821
824.669	17741
824.809	17840
824.949	17851
825.089	17904
825.228	17767
825.368	17649
825.508	17672
825.648	17642
825.787	17589
825.927	17649
826.067	17425
826.206	17509
826.346	17657
826.485	17600
826.625	17554
826.765	17623
826.904	17596
827.044	17337
827.183	17364
827.323	17204
827.462	17315
827.601	17288
827.741	17235
827.88	17311
828.02	17261
828.159	17250
828.298	17330
828.437	17376
828.577	17193
828.716	17417
828.855	17185
828.994	17025
829.134	16923
829.273	17113
829.412	16984
829.551	16942
829.69	17037
829.829	17037
829.968	17143
830.107	17174
830.246	16972
830.385	17128
830.524	16858
830.663	16934
830.802	16824
830.941	16721
831.08	16618
831.219	16843
831.357	16618
831.496	16900
831.635	16698
831.774	16656
831.913	16588
832.051	16325
832.19	16470
832.329	16375
832.467	16394
832.606	16249
832.744	16341
832.883	16310
833.022	16280
833.16	16314
833.299	16344
833.437	16379
833.576	16440
833.714	16497
833.852	16455
833.991	16455
834.129	16443
834.267	16516
834.406	16371
834.544	16428
834.682	16478
834.821	16451
834.959	16584
835.097	16394
835.235	16497
835.373	16398
835.511	16474
835.65	16512
835.788	16337
835.926	16185
836.064	16143
836.202	16162
836.34	16314
836.478	16299
836.615	16284
836.753	16325
836.891	16489
837.029	16386
837.167	16223
837.305	16249
837.443	16363
837.58	16097
837.718	16329
837.856	16204
837.993	16257
838.131	16173
838.269	16059
838.406	16109
838.544	16036
838.681	15983
838.819	15831
838.956	15808
839.094	15679
839.231	15751
839.369	15922
839.506	16162
839.643	16010
839.781	15778
839.918	15682
840.055	15724
840.193	15724
840.33	15781
840.467	15781
840.604	15660
840.742	15915
840.879	15660
841.016	15663
841.153	15789
841.29	15869
841.427	15770
841.564	15747
841.701	15800
841.838	15656
841.975	15755
842.112	15667
842.249	15633
842.385	15469
842.522	15656
842.659	15557
842.796	15435
842.933	15549
843.069	15572
843.206	15572
843.343	15587
843.479	15553
843.616	15614
843.752	15279
843.889	15389
844.025	15526
844.162	15298
844.298	15420
844.435	15344
844.571	15161
844.708	15348
844.844	15435
844.98	15393
845.117	15412
845.253	15207
845.389	15211
845.525	15233
845.661	15131
845.798	15085
845.934	15188
846.07	15108
846.206	15154
846.342	15294
846.478	15131
846.614	14986
846.75	14906
846.886	14796
847.022	15039
847.158	14826
847.294	14853
847.429	14925
847.565	15005
847.701	15047
847.837	14678
847.972	14663
848.108	14705
848.244	14716
848.379	14556
848.515	14507
848.65	14495
848.786	14526
848.921	14560
849.057	14655
849.192	14492
849.328	14484
849.463	14571
849.598	14473
849.734	14336
849.869	14358
850.004	14210
850.14	14358
850.275	14328
850.41	14218
850.545	14233
850.68	14214
850.815	14294
850.95	14237
851.085	14454
851.22	14393
851.355	14286
851.49	14271
851.625	14218
851.76	14214
851.895	14248
852.03	14195
852.165	14214
852.299	14374
852.434	14355
852.569	14305
852.703	14301
852.838	14320
852.973	14412
853.107	14473
853.242	14206
853.376	14142
853.511	14027
853.645	14039
853.78	14202
853.914	14229
854.048	14103
854.183	14130
854.317	14164
854.451	14351
854.585	14134
854.72	14046
854.854	14278
854.988	14111
855.122	14096
855.256	14012
855.39	14168
855.524	14244
855.658	14210
855.792	14153
855.926	14065
856.06	14172
856.194	14199
856.327	14096
856.461	14126
856.595	14111
856.729	14153
856.862	14256
856.996	14263
857.13	14183
857.263	14332
857.397	14317
857.53	14191
857.664	14225
857.797	14202
857.931	14343
858.064	14153
858.197	14400
858.331	14199
858.464	14130
858.597	14046
858.731	14149
858.864	14130
858.997	14142
859.13	14240
859.263	14199
859.396	14271
859.529	14206
859.662	14180
859.795	14138
859.928	14199
860.061	14339
860.194	14240
860.327	14176
860.46	14218
860.592	14305
860.725	14320
860.858	14324
860.99	14138
861.123	14084
861.256	14123
861.388	14256
861.521	14956
861.653	14123
861.786	13967
861.918	14123
862.05	14130
862.183	14138
862.315	14115
862.447	14233
862.58	14115
862.712	13951
862.844	13917
862.976	14031
863.108	13997
863.24	14434
863.372	13811
863.504	13917
863.636	13989
863.768	14008
863.9	13833
864.032	13887
864.164	13940
864.296	13925
864.428	14046
864.559	14008
864.691	13993
864.823	14039
864.954	13959
865.086	13989
865.217	13944
865.349	13936
865.48	13989
865.612	13959
865.743	13993
865.875	14008
866.006	13963
866.137	13925
866.269	13955
866.4	13955
866.531	13947
866.662	13959
866.793	13936
866.924	13822
867.055	13963
867.186	13936
867.317	13841
867.448	13814
867.579	13852
867.71	13879
867.841	13784
867.972	13951
868.103	13913
868.233	13936
868.364	13925
868.495	14065
868.625	14161
868.756	14351
868.886	14107
869.017	14187
869.147	14256
869.278	14324
869.408	14218
869.539	14233
869.669	14225
869.799	14278
869.929	14324
870.06	14305
870.19	14480
870.32	14404
870.45	14560
870.58	14564
870.71	14724
870.84	14746
870.97	14644
871.1	14568
871.23	14754
871.36	14788
871.489	14621
871.619	14743
871.749	14811
871.879	14807
872.008	14887
872.138	14777
872.267	14826
872.397	14670
872.526	14507
872.656	14640
872.785	14587
872.915	14902
873.044	14849
873.173	14746
873.303	14838
873.432	14910
873.561	14842
873.69	14804
873.819	14762
873.948	14842
874.077	14815
874.206	14872
874.335	14948
874.464	15066
874.593	15119
874.722	15055
874.851	15195
874.979	15135
875.108	15294
875.237	15017
875.365	15116
875.494	15024
875.623	15222
875.751	15112
875.88	15157
876.008	15397
876.136	15355
876.265	15633
876.393	15629
876.521	15652
876.65	15644
876.778	15629
876.906	15534
877.034	15530
877.162	15515
877.29	15595
877.418	15428
877.546	15572
877.674	15523
877.802	15618
877.93	15633
878.058	15584
878.185	15428
878.313	15477
878.441	15553
878.568	15359
878.696	15530
878.824	15542
878.951	15739
879.079	15797
879.206	15865
879.333	15736
879.461	15686
879.588	15690
879.715	15709
879.842	15937
879.97	15568
880.097	15424
880.224	15420
880.351	15485
880.478	15462
880.605	15401
880.732	15408
880.859	15652
880.986	15439
881.112	15469
881.239	15222
881.366	15203
881.493	15211
881.619	15085
881.746	15100
881.872	15036
881.999	15127
882.125	15028
882.252	15180
882.378	15047
882.505	15230
882.631	15017
882.757	14853
882.883	14975
883.01	14861
883.136	14811
883.262	14765
883.388	14720
883.514	14906
883.64	14902
883.766	14895
883.892	14746
884.018	14830
884.143	14906
884.269	14994
884.395	14613
884.52	14636
884.646	14632
884.772	14587
884.897	14644
885.023	14587
885.148	14720
885.274	14758
885.399	14686
885.524	14575
885.65	14632
885.775	14503
885.9	14602
886.025	14697
886.15	14632
886.275	14640
886.4	14480
886.525	14632
886.65	14571
886.775	14461
886.9	14678
887.025	14788
887.149	14602
887.274	14309
887.399	14415
887.523	14412
887.648	14366
887.773	14294
887.897	14560
888.021	14511
888.146	14526
888.27	14533
888.395	14629
888.519	14461
888.643	14621
888.767	14522
888.891	14298
889.015	14290
889.139	14328
889.263	14237
889.387	14461
889.511	14492
889.635	14480
889.759	14267
889.883	14305
890.006	14324
890.13	14450
890.254	14191
890.377	14275
890.501	14069
890.624	13993
890.748	14187
890.871	14043
890.995	14005
891.118	14031
891.241	13917
891.364	13925
891.488	14153
891.611	13982
891.734	13986
891.857	14069
891.98	14069
892.103	14084
892.226	14024
892.349	13959
892.471	13860
892.594	14016
892.717	14039
892.839	14088
892.962	13970
893.085	14058
893.207	13993
893.33	13803
893.452	13997
893.575	14084
893.697	14005
893.819	14077
893.941	14214
894.064	14119
894.186	13917
894.308	13913
894.43	14092
894.552	14229
894.674	14195
894.796	14065
894.918	14153
895.04	14012
895.161	14126
895.283	14161
895.405	14012
895.526	14027
895.648	14138
895.769	14187
895.891	14157
896.012	14221
896.134	14263
896.255	14172
896.376	14100
896.498	14130
896.619	14183
896.74	14168
896.861	14278
896.982	14537
897.103	14750
897.224	14473
897.345	14389
897.466	14438
897.587	14408
897.708	14583
897.828	14461
897.949	14476
898.07	14328
898.19	14374
898.311	14579
898.431	14412
898.552	14469
898.672	14526
898.792	14571
898.913	14644
899.033	14370
899.153	14404
899.273	14259
899.393	14355
899.513	14404
899.633	14328
899.753	14332
899.873	14320
899.993	14419
900.113	14320
900.232	14423
900.352	14412
900.472	14301
900.591	14176
900.711	14240
900.83	14202
900.95	14248
901.069	14404
901.189	14126
901.308	13997
901.427	13856
901.546	13879
901.665	13936
901.784	13963
901.904	13788
902.023	13765
902.141	13476
902.26	13468
902.379	13544
902.498	13476
902.617	13487
902.735	13510
902.854	13506
902.973	13449
903.091	13164
903.21	13187
903.328	13198
903.446	13179
903.565	13065
903.683	13046
903.801	12894
903.919	13149
904.038	13038
904.156	12814
904.274	12894
904.392	12886
904.51	12901
904.627	12882
904.745	12954
904.863	12954
904.981	12703
905.098	12555
905.216	12483
905.334	12525
905.451	12513
905.569	12582
905.686	12582
905.803	12563
905.921	12334
906.038	12486
906.155	12323
906.272	12262
906.389	12365
906.506	12087
906.623	12171
906.74	12216
906.857	12072
906.974	12076
907.091	12144
907.208	12304
907.324	12114
907.441	12159
907.557	11946
907.674	11874
907.79	11843
907.907	11893
908.023	11927
908.139	11904
908.256	11885
908.372	11863
908.488	11809
908.604	11714
908.72	11623
908.836	11661
908.952	11608
909.068	11646
909.184	11840
909.3	11737
909.415	11608
909.531	11699
909.647	11448
909.762	11455
909.878	11558
909.993	11490
910.108	11429
910.224	11421
910.339	11429
910.454	11395
910.57	11318
910.685	11242
910.8	11448
910.915	11490
911.03	11353
911.145	11162
911.259	11189
911.374	11083
911.489	11045
911.604	11075
911.718	10927
911.833	10862
911.947	10786
912.062	10740
912.176	10869
912.291	10873
912.405	10843
912.519	11064
912.633	11155
912.748	11014
912.862	10968
912.976	10831
913.09	10706
913.204	10729
913.318	10744
913.431	10911
913.545	10862
913.659	10854
913.772	10797
913.886	10626
914	10645
914.113	10858
914.226	10873
914.34	10759
914.453	10694
914.566	10717
914.68	10596
914.793	10596
914.906	10489
915.019	10417
915.132	10291
915.245	10394
915.358	10409
915.47	10371
915.583	10409
915.696	10455
915.809	10489
915.921	10577
916.034	10295
916.146	10318
916.259	10382
916.371	10451
916.483	10390
916.595	10371
916.708	10348
916.82	10337
916.932	10352
917.044	10390
917.156	10253
917.268	10162
917.38	10215
917.491	10223
917.603	10276
917.715	10382
917.826	10398
917.938	10253
918.049	10158
918.161	10325
918.272	10402
918.384	10421
918.495	10200
918.606	10154
918.717	9983
918.828	10166
918.939	10131
919.05	10051
919.161	10059
919.272	9975
919.383	10063
919.494	10177
919.604	10333
919.715	10185
919.826	10040
919.936	10101
920.047	10207
920.157	10143
920.267	10363
920.378	10131
920.488	10227
920.598	10382
920.708	10523
920.818	10325
920.928	10310
921.038	10516
921.148	10466
921.258	10162
921.368	10090
921.477	9987
921.587	9998
921.697	9895
921.806	9972
921.916	9869
922.025	9766
922.134	9743
922.244	9686
922.353	9778
922.462	9622
922.571	9538
922.68	9466
922.789	9348
922.898	9344
923.007	9336
923.116	9393
923.224	9405
923.333	9378
923.442	9336
923.55	9325
923.659	9351
923.767	9374
923.876	9272
923.984	9302
924.092	9173
924.201	9272
924.309	9260
924.417	9310
924.525	9207
924.633	9298
924.741	10131
924.849	9032
924.956	9192
925.064	9028
925.172	8948
925.279	9055
925.387	9097
925.494	9066
925.602	9214
925.709	9150
925.816	9032
925.924	9051
926.031	9173
926.138	9093
926.245	9127
926.352	8994
926.459	9077
926.566	9214
926.673	9009
926.779	8948
926.886	8921
926.993	8815
927.099	8746
927.206	8682
927.312	8697
927.419	8788
927.525	8785
927.631	8861
927.737	8686
927.843	8632
927.95	8552
928.056	8670
928.162	8712
928.267	8724
928.373	9291
928.479	8861
928.585	8552
928.69	8629
928.796	8667
928.901	8571
929.007	8457
929.112	8629
929.218	8590
929.323	8454
929.428	8522
929.533	8674
929.638	8408
929.743	8480
929.848	8545
929.953	8469
930.058	8434
930.163	8233
930.267	8233
930.372	8385
930.477	8263
930.581	8442
930.685	8339
930.79	8168
930.894	8263
930.998	8214
931.103	8339
931.207	7925
931.311	7963
931.415	7917
931.519	7685
931.623	7731
