Data from test_V78500241_2958.txt Node
Date: Fri Mar 25 14:54:18 CST 2022
User: usil
Spectrometer: V785-0024
Trigger mode: 0
Integration Time (sec): 4.000000E-1
Scans to average: 1
Nonlinearity correction enabled: false
Boxcar width: 0
Storing dark spectrum: false
XAxis mode: Wavelengths
Number of Pixels in Spectrum: 1024
>>>>>Begin Spectral Data<<<<<
801.071	22120
801.214	21983
801.356	21781
801.499	21610
801.641	21599
801.783	21534
801.926	21504
802.068	21500
802.211	21386
802.353	21348
802.496	21157
802.638	21001
802.78	20910
802.923	20819
803.065	20815
803.208	20701
803.35	20902
803.492	20883
803.635	20982
803.777	20864
803.919	20883
804.061	21188
804.204	20921
804.346	20716
804.488	20724
804.63	20963
804.773	20655
804.915	20849
805.057	20823
805.199	20693
805.341	20735
805.483	20792
805.626	20899
805.768	20754
805.91	20632
806.052	20697
806.194	20826
806.336	20796
806.478	20746
806.62	20667
806.762	20712
806.904	21001
807.046	21039
807.188	21100
807.33	21081
807.472	21089
807.614	20971
807.756	20952
807.898	20773
808.04	20735
808.182	20834
808.324	20838
808.465	20925
808.607	20990
808.749	21127
808.891	21173
809.033	21389
809.174	21104
809.316	21074
809.458	21112
809.6	21055
809.741	21165
809.883	21131
810.025	21382
810.166	21256
810.308	21275
810.45	21233
810.591	21195
810.733	21055
810.875	20994
811.016	20826
811.158	20823
811.299	20925
811.441	20990
811.582	20986
811.724	20769
811.865	20880
812.007	20857
812.148	20876
812.29	20857
812.431	21104
812.573	21192
812.714	21233
812.855	21386
812.997	21458
813.138	21576
813.279	21507
813.421	21443
813.562	21348
813.703	21066
813.845	21127
813.986	20731
814.127	20598
814.268	20484
814.41	20545
814.551	20393
814.692	20480
814.833	20389
814.974	20415
815.115	20469
815.256	20267
815.397	20244
815.539	20244
815.68	20218
815.821	20069
815.962	20183
816.103	20073
816.244	19993
816.385	19784
816.526	19860
816.666	19700
816.807	19533
816.948	19666
817.089	19719
817.23	19590
817.371	19556
817.512	19495
817.653	19590
817.793	19476
817.934	19563
818.075	19674
818.216	19582
818.356	19441
818.497	19331
818.638	19133
818.778	19206
818.919	19308
819.06	19228
819.2	19377
819.341	19365
819.481	19476
819.622	19616
819.762	19761
819.903	19651
820.043	19594
820.184	19559
820.324	19590
820.465	19658
820.605	19597
820.746	19525
820.886	19312
821.026	19502
821.167	19411
821.307	19537
821.447	19483
821.588	19316
821.728	19179
821.868	19145
822.008	18901
822.149	18905
822.289	18928
822.429	18700
822.569	18585
822.709	18601
822.849	18452
822.99	18353
823.13	18528
823.27	18292
823.41	18266
823.55	18292
823.69	18277
823.83	18270
823.97	18239
824.11	17973
824.25	17954
824.389	17996
824.529	18019
824.669	17999
824.809	18095
824.949	18076
825.089	18049
825.228	17958
825.368	17832
825.508	17752
825.648	17821
825.787	17863
825.927	17855
826.067	17756
826.206	17748
826.346	17817
826.485	17764
826.625	17714
826.765	17760
826.904	17748
827.044	17547
827.183	17551
827.323	17493
827.462	17554
827.601	17433
827.741	17471
827.88	17486
828.02	17379
828.159	17334
828.298	17402
828.437	17577
828.577	17368
828.716	17493
828.855	17353
828.994	17258
829.134	17208
829.273	17299
829.412	17067
829.551	17166
829.69	17159
829.829	17242
829.968	17318
830.107	17113
830.246	17246
830.385	17109
830.524	17071
830.663	16980
830.802	16904
830.941	16824
831.08	16660
831.219	16877
831.357	16862
831.496	16984
831.635	16755
831.774	16782
831.913	16748
832.051	16607
832.19	16626
832.329	16675
832.467	16489
832.606	16516
832.744	16424
832.883	16580
833.022	16443
833.16	16447
833.299	16641
833.437	16478
833.576	16508
833.714	16436
833.852	16550
833.991	16569
834.129	16577
834.267	16493
834.406	16535
834.544	16599
834.682	16485
834.821	16512
834.959	16752
835.097	16447
835.235	16740
835.373	16603
835.511	16421
835.65	16428
835.788	16489
835.926	16295
836.064	16226
836.202	16276
836.34	16470
836.478	16504
836.615	16489
836.753	16504
836.891	16504
837.029	16386
837.167	16432
837.305	16322
837.443	16360
837.58	16177
837.718	16348
837.856	16348
837.993	16310
838.131	16268
838.269	16082
838.406	16215
838.544	16207
838.681	16002
838.819	15994
838.956	15804
839.094	15831
839.231	15857
839.369	15956
839.506	16265
839.643	16078
839.781	15873
839.918	15743
840.055	15956
840.193	15846
840.33	15835
840.467	15800
840.604	15869
840.742	16017
840.879	15686
841.016	15797
841.153	15759
841.29	15903
841.427	15903
841.564	15960
841.701	15850
841.838	15766
841.975	15755
842.112	15698
842.249	15671
842.385	15762
842.522	15743
842.659	15614
842.796	15564
842.933	15633
843.069	15557
843.206	15663
843.343	15663
843.479	15633
843.616	15644
843.752	15454
843.889	15420
844.025	15580
844.162	15370
844.298	15545
844.435	15367
844.571	15378
844.708	15466
844.844	15564
844.98	15572
845.117	15591
845.253	15393
845.389	15275
845.525	15363
845.661	15268
845.798	15230
845.934	15279
846.07	15135
846.206	15272
846.342	15310
846.478	15237
846.614	15051
846.75	14986
846.886	14986
847.022	15077
847.158	15039
847.294	15028
847.429	14998
847.565	15017
847.701	15249
847.837	14667
847.972	14655
848.108	14788
848.244	14826
848.379	14606
848.515	14568
848.65	14469
848.786	14629
848.921	14598
849.057	14693
849.192	14743
849.328	14530
849.463	14644
849.598	14556
849.734	14533
849.869	14476
850.004	14298
850.14	14442
850.275	14370
850.41	14206
850.545	14366
850.68	14313
850.815	14404
850.95	14377
851.085	14419
851.22	14415
851.355	14320
851.49	14404
851.625	14286
851.76	14259
851.895	14210
852.03	14271
852.165	14358
852.299	14278
852.434	14423
852.569	14438
852.703	14320
852.838	14473
852.973	14541
853.107	14457
853.242	14309
853.376	14168
853.511	14054
853.645	14180
853.78	14351
853.914	14286
854.048	14168
854.183	14199
854.317	14218
854.451	14320
854.585	14187
854.72	14138
854.854	14267
854.988	14183
855.122	14027
855.256	14039
855.39	14195
855.524	14290
855.658	14259
855.792	14214
855.926	14229
856.06	14278
856.194	14298
856.327	14176
856.461	14153
856.595	14111
856.729	14115
856.862	14275
856.996	14252
857.13	14305
857.263	14347
857.397	14423
857.53	14210
857.664	14259
857.797	14305
857.931	14317
858.064	14278
858.197	14343
858.331	14214
858.464	14206
858.597	14092
858.731	14225
858.864	14218
858.997	14221
859.13	14202
859.263	14355
859.396	14256
859.529	14199
859.662	14119
859.795	14233
859.928	14164
860.061	14328
860.194	14347
860.327	14320
860.46	14138
860.592	14244
860.725	14374
860.858	14305
860.99	14218
861.123	14126
861.256	14164
861.388	14256
861.521	14708
861.653	14157
861.786	14073
861.918	14001
862.05	14024
862.183	14161
862.315	14119
862.447	14282
862.58	14126
862.712	13989
862.844	13944
862.976	14050
863.108	14043
863.24	14313
863.372	13993
863.504	14024
863.636	13955
863.768	14054
863.9	13963
864.032	13928
864.164	13974
864.296	14035
864.428	14164
864.559	14088
864.691	14024
864.823	14043
864.954	14054
865.086	14073
865.217	13986
865.349	13879
865.48	13959
865.612	13986
865.743	14100
865.875	13944
866.006	13978
866.137	13879
866.269	14088
866.4	14001
866.531	13913
866.662	13894
866.793	13902
866.924	13818
867.055	14008
867.186	13906
867.317	13978
867.448	13951
867.579	13894
867.71	13917
867.841	13928
867.972	13944
868.103	14024
868.233	14084
868.364	13860
868.495	14031
868.625	14183
868.756	14286
868.886	14145
869.017	14233
869.147	14282
869.278	14233
869.408	14221
869.539	14313
869.669	14320
869.799	14237
869.929	14324
870.06	14427
870.19	14568
870.32	14450
870.45	14598
870.58	14522
870.71	14697
870.84	14788
870.97	14636
871.1	14587
871.23	14804
871.36	14842
871.489	14762
871.619	14792
871.749	14785
871.879	14895
872.008	14944
872.138	14864
872.267	14826
872.397	14689
872.526	14750
872.656	14545
872.785	14629
872.915	14807
873.044	14986
873.173	14918
873.303	14849
873.432	14937
873.561	14952
873.69	14902
873.819	14880
873.948	14948
874.077	14918
874.206	14826
874.335	14819
874.464	14902
874.593	15165
874.722	15123
874.851	15180
874.979	15264
875.108	15218
875.237	15176
875.365	15123
875.494	15142
875.623	15325
875.751	15211
875.88	15249
876.008	15256
876.136	15393
876.265	15633
876.393	15682
876.521	15656
876.65	15713
876.778	15603
876.906	15519
877.034	15538
877.162	15739
877.29	15614
877.418	15519
877.546	15584
877.674	15618
877.802	15713
877.93	15507
878.058	15564
878.185	15534
878.313	15606
878.441	15644
878.568	15363
878.696	15523
878.824	15618
878.951	15603
879.079	15762
879.206	15979
879.333	15835
879.461	15671
879.588	15648
879.715	15800
879.842	15812
879.97	15701
880.097	15428
880.224	15450
880.351	15443
880.478	15462
880.605	15507
880.732	15401
880.859	15690
880.986	15485
881.112	15488
881.239	15310
881.366	15230
881.493	15165
881.619	15104
881.746	15123
881.872	15146
881.999	15112
882.125	15055
882.252	15123
882.378	15108
882.505	15192
882.631	15074
882.757	14899
882.883	14853
883.01	14921
883.136	14979
883.262	14743
883.388	14678
883.514	14845
883.64	14944
883.766	14960
883.892	14773
884.018	14773
884.143	14914
884.269	15013
884.395	14735
884.52	14530
884.646	14636
884.772	14587
884.897	14640
885.023	14651
885.148	14705
885.274	14876
885.399	14686
885.524	14670
885.65	14621
885.775	14686
885.9	14594
886.025	14697
886.15	14651
886.275	14590
886.4	14408
886.525	14632
886.65	14530
886.775	14545
886.9	14667
887.025	14773
887.149	14571
887.274	14514
887.399	14389
887.523	14396
887.648	14366
887.773	14267
887.897	14575
888.021	14640
888.146	14450
888.27	14480
888.395	14648
888.519	14457
888.643	14533
888.767	14518
888.891	14332
889.015	14393
889.139	14412
889.263	14370
889.387	14446
889.511	14560
889.635	14412
889.759	14294
889.883	14298
890.006	14286
890.13	14419
890.254	14248
890.377	14275
890.501	14145
890.624	14103
890.748	14218
890.871	14027
890.995	14058
891.118	14012
891.241	14043
891.364	14035
891.488	14096
891.611	13970
891.734	14077
891.857	14039
891.98	14081
892.103	14077
892.226	14054
892.349	14016
892.471	13940
892.594	14024
892.717	14043
892.839	13955
892.962	14020
893.085	14123
893.207	14073
893.33	13925
893.452	13955
893.575	14054
893.697	14012
893.819	14191
893.941	14126
894.064	14199
894.186	14046
894.308	13944
894.43	14161
894.552	14225
894.674	14168
894.796	13978
894.918	14043
895.04	14115
895.161	14168
895.283	14138
895.405	14058
895.526	14134
895.648	14126
895.769	14191
895.891	14153
896.012	14206
896.134	14237
896.255	14195
896.376	14111
896.498	14172
896.619	14183
896.74	14183
896.861	14351
896.982	14556
897.103	14674
897.224	14514
897.345	14419
897.466	14381
897.587	14469
897.708	14602
897.828	14469
897.949	14336
898.07	14370
898.19	14419
898.311	14495
898.431	14457
898.552	14495
898.672	14587
898.792	14659
898.913	14670
899.033	14571
899.153	14408
899.273	14389
899.393	14434
899.513	14434
899.633	14415
899.753	14442
899.873	14423
899.993	14419
900.113	14526
900.232	14408
900.352	14339
900.472	14385
900.591	14263
900.711	14305
900.83	14248
900.95	14320
901.069	14396
901.189	14191
901.308	14012
901.427	13959
901.546	13974
901.665	14016
901.784	14020
901.904	13822
902.023	13742
902.141	13506
902.26	13434
902.379	13620
902.498	13552
902.617	13438
902.735	13506
902.854	13529
902.973	13495
903.091	13175
903.21	13187
903.328	13206
903.446	13122
903.565	13038
903.683	13084
903.801	12973
903.919	13038
904.038	13012
904.156	12932
904.274	13015
904.392	12989
904.51	12856
904.627	12901
904.745	12878
904.863	13000
904.981	12730
905.098	12623
905.216	12681
905.334	12627
905.451	12563
905.569	12544
905.686	12601
905.803	12623
905.921	12418
906.038	12536
906.155	12350
906.272	12372
906.389	12285
906.506	12171
906.623	12296
906.74	12194
906.857	12049
906.974	12167
907.091	12205
907.208	12330
907.324	12281
907.441	12076
907.557	11950
907.674	11901
907.79	11882
907.907	11946
908.023	11908
908.139	11931
908.256	11958
908.372	11764
908.488	11813
908.604	11756
908.72	11680
908.836	11672
908.952	11710
909.068	11809
909.184	11710
909.3	11661
909.415	11737
909.531	11741
909.647	11436
909.762	11467
909.878	11505
909.993	11452
910.108	11490
910.224	11368
910.339	11478
910.454	11315
910.57	11337
910.685	11223
910.8	11448
910.915	11356
911.03	11360
911.145	11162
911.259	11193
911.374	11181
911.489	11102
911.604	11022
911.718	10961
911.833	10900
911.947	10824
912.062	10729
912.176	10877
912.291	10847
912.405	10892
912.519	11128
912.633	11143
912.748	10942
912.862	10953
912.976	10831
913.09	10660
913.204	10809
913.318	10839
913.431	10927
913.545	10889
913.659	10934
913.772	10759
913.886	10733
914	10683
914.113	10816
914.226	10828
914.34	10771
914.453	10694
914.566	10710
914.68	10736
914.793	10664
914.906	10466
915.019	10390
915.132	10272
915.245	10375
915.358	10489
915.47	10413
915.583	10413
915.696	10447
915.809	10519
915.921	10637
916.034	10367
916.146	10371
916.259	10363
916.371	10535
916.483	10466
916.595	10299
916.708	10318
916.82	10405
916.932	10367
917.044	10299
917.156	10329
917.268	10200
917.38	10352
917.491	10268
917.603	10329
917.715	10329
917.826	10344
917.938	10211
918.049	10109
918.161	10196
918.272	10417
918.384	10402
918.495	10230
918.606	10131
918.717	10040
918.828	10162
918.939	10230
919.05	10074
919.161	10192
919.272	9983
919.383	9994
919.494	10200
919.604	10329
919.715	10169
919.826	10040
919.936	10181
920.047	10253
920.157	10166
920.267	10322
920.378	10150
920.488	10090
920.598	10356
920.708	10523
920.818	10367
920.928	10333
921.038	10558
921.148	10451
921.258	10188
921.368	10116
921.477	10051
921.587	10051
921.697	9956
921.806	10021
921.916	9880
922.025	9732
922.134	9713
922.244	9656
922.353	9709
922.462	9679
922.571	9599
922.68	9447
922.789	9370
922.898	9485
923.007	9351
923.116	9412
923.224	9473
923.333	9450
923.442	9230
923.55	9272
923.659	9405
923.767	9382
923.876	9283
923.984	9382
924.092	9233
924.201	9336
924.309	9302
924.417	9325
924.525	9184
924.633	9241
924.741	10154
924.849	9028
924.956	9157
925.064	9036
925.172	8982
925.279	9032
925.387	9085
925.494	9051
925.602	9188
925.709	9154
925.816	9062
925.924	9074
926.031	9135
926.138	9036
926.245	9138
926.352	8952
926.459	9154
926.566	9146
926.673	9036
926.779	8990
926.886	8925
926.993	8887
927.099	8811
927.206	8708
927.312	8758
927.419	8804
927.525	8777
927.631	8811
927.737	8701
927.843	8659
927.95	8530
928.056	8689
928.162	8644
928.267	8762
928.373	9359
928.479	8773
928.585	8507
928.69	8636
928.796	8712
928.901	8552
929.007	8438
929.112	8663
929.218	8575
929.323	8499
929.428	8507
929.533	8648
929.638	8423
929.743	8514
929.848	8518
929.953	8533
930.058	8427
930.163	8309
930.267	8275
930.372	8454
930.477	8309
930.581	8571
930.685	8374
930.79	8210
930.894	8263
930.998	8225
931.103	8347
931.207	8046
931.311	7970
931.415	7894
931.519	7738
931.623	7742
