Data from test_V78500241_1662.txt Node
Date: Fri Mar 25 14:45:17 CST 2022
User: usil
Spectrometer: V785-0024
Trigger mode: 0
Integration Time (sec): 4.000000E-1
Scans to average: 1
Nonlinearity correction enabled: false
Boxcar width: 0
Storing dark spectrum: false
XAxis mode: Wavelengths
Number of Pixels in Spectrum: 1024
>>>>>Begin Spectral Data<<<<<
801.071	22173
801.214	22150
801.356	21899
801.499	21907
801.641	21690
801.783	21622
801.926	21580
802.068	21523
802.211	21466
802.353	21469
802.496	21157
802.638	21093
802.78	21173
802.923	21131
803.065	20929
803.208	20868
803.35	20910
803.492	21070
803.635	21116
803.777	21013
803.919	21074
804.061	21249
804.204	21081
804.346	20868
804.488	20811
804.63	20941
804.773	20899
804.915	20883
805.057	20986
805.199	20811
805.341	20998
805.483	21108
805.626	21028
805.768	20895
805.91	21028
806.052	20861
806.194	20781
806.336	21119
806.478	20872
806.62	20800
806.762	20956
806.904	21146
807.046	21233
807.188	21351
807.33	21260
807.472	21317
807.614	21150
807.756	21203
807.898	21001
808.04	20944
808.182	21085
808.324	21085
808.465	21127
808.607	21363
808.749	21332
808.891	21310
809.033	21526
809.174	21416
809.316	21435
809.458	21382
809.6	21252
809.741	21359
809.883	21431
810.025	21564
810.166	21523
810.308	21431
810.45	21348
810.591	21279
810.733	21207
810.875	21264
811.016	20864
811.158	20994
811.299	21131
811.441	21268
811.582	21142
811.724	21055
811.865	21062
812.007	21028
812.148	21077
812.29	21146
812.431	21279
812.573	21519
812.714	21492
812.855	21576
812.997	21637
813.138	21895
813.279	21656
813.421	21591
813.562	21458
813.703	21336
813.845	21291
813.986	20929
814.127	20845
814.268	20720
814.41	20689
814.551	20530
814.692	20670
814.833	20663
814.974	20590
815.115	20587
815.256	20514
815.397	20533
815.539	20495
815.68	20320
815.821	20259
815.962	20385
816.103	20267
816.244	20202
816.385	20153
816.526	20039
816.666	20001
816.807	19727
816.948	19951
817.089	19993
817.23	19784
817.371	19849
817.512	19734
817.653	19822
817.793	19712
817.934	19788
818.075	19704
818.216	19765
818.356	19818
818.497	19586
818.638	19434
818.778	19468
818.919	19438
819.06	19502
819.2	19613
819.341	19605
819.481	19578
819.622	19742
819.762	19864
819.903	19955
820.043	19826
820.184	19830
820.324	19658
820.465	19731
820.605	19681
820.746	19696
820.886	19651
821.026	19666
821.167	19674
821.307	19879
821.447	19734
821.588	19537
821.728	19365
821.868	19335
822.008	19171
822.149	19057
822.289	19164
822.429	18916
822.569	18810
822.709	18867
822.849	18631
822.99	18700
823.13	18589
823.27	18578
823.41	18456
823.55	18403
823.69	18418
823.83	18452
823.97	18266
824.11	18239
824.25	18239
824.389	18095
824.529	18426
824.669	18262
824.809	18247
824.949	18296
825.089	18334
825.228	18209
825.368	18064
825.508	18015
825.648	17950
825.787	18045
825.927	18114
826.067	17931
826.206	17961
826.346	18087
826.485	17942
826.625	18003
826.765	18110
826.904	17988
827.044	17737
827.183	17661
827.323	17684
827.462	17737
827.601	17676
827.741	17695
827.88	17703
828.02	17501
828.159	17745
828.298	17741
828.437	17687
828.577	17558
828.716	17737
828.855	17585
828.994	17497
829.134	17497
829.273	17379
829.412	17406
829.551	17383
829.69	17334
829.829	17532
829.968	17554
830.107	17509
830.246	17379
830.385	17402
830.524	17299
830.663	17223
830.802	17189
830.941	17029
831.08	17010
831.219	17075
831.357	17109
831.496	17277
831.635	17033
831.774	16942
831.913	16858
832.051	16816
832.19	16824
832.329	16744
832.467	16763
832.606	16736
832.744	16683
832.883	16645
833.022	16698
833.16	16755
833.299	16748
833.437	16763
833.576	16733
833.714	16782
833.852	16869
833.991	16828
834.129	16919
834.267	16809
834.406	16771
834.544	16839
834.682	16790
834.821	16820
834.959	16915
835.097	16752
835.235	16763
835.373	16809
835.511	16752
835.65	16679
835.788	16615
835.926	16527
836.064	16508
836.202	16565
836.34	16618
836.478	16763
836.615	16668
836.753	16725
836.891	16721
837.029	16653
837.167	16664
837.305	16550
837.443	16653
837.58	16523
837.718	16645
837.856	16618
837.993	16459
838.131	16538
838.269	16409
838.406	16459
838.544	16303
838.681	16223
838.819	16238
838.956	16090
839.094	16086
839.231	16196
839.369	16219
839.506	16424
839.643	16287
839.781	16013
839.918	16101
840.055	16154
840.193	16086
840.33	16071
840.467	16135
840.604	16010
840.742	16375
840.879	15937
841.016	15960
841.153	16036
841.29	16147
841.427	16154
841.564	16211
841.701	16067
841.838	15998
841.975	15804
842.112	16048
842.249	15903
842.385	15778
842.522	15979
842.659	15869
842.796	15690
842.933	15968
843.069	15816
843.206	15770
843.343	15857
843.479	15854
843.616	15846
843.752	15542
843.889	15644
844.025	15823
844.162	15644
844.298	15770
844.435	15724
844.571	15561
844.708	15648
844.844	15808
844.98	15793
845.117	15804
845.253	15675
845.389	15515
845.525	15481
845.661	15584
845.798	15439
845.934	15564
846.07	15428
846.206	15610
846.342	15701
846.478	15447
846.614	15230
846.75	15135
846.886	15233
847.022	15363
847.158	15260
847.294	15173
847.429	15351
847.565	15283
847.701	15447
847.837	14948
847.972	14971
848.108	14952
848.244	15013
848.379	14872
848.515	14830
848.65	14758
848.786	14762
848.921	14914
849.057	14914
849.192	14933
849.328	14815
849.463	14876
849.598	14838
849.734	14705
849.869	14636
850.004	14670
850.14	14575
850.275	14617
850.41	14590
850.545	14476
850.68	14518
850.815	14530
850.95	14575
851.085	14678
851.22	14716
851.355	14590
851.49	14560
851.625	14549
851.76	14488
851.895	14393
852.03	14454
852.165	14545
852.299	14560
852.434	14651
852.569	14590
852.703	14560
852.838	14644
852.973	14625
853.107	14693
853.242	14492
853.376	14480
853.511	14305
853.645	14408
853.78	14518
853.914	14530
854.048	14495
854.183	14374
854.317	14469
854.451	14613
854.585	14393
854.72	14419
854.854	14594
854.988	14362
855.122	14419
855.256	14336
855.39	14374
855.524	14503
855.658	14469
855.792	14442
855.926	14457
856.06	14514
856.194	14575
856.327	14495
856.461	14381
856.595	14404
856.729	14370
856.862	14590
856.996	14438
857.13	14552
857.263	14610
857.397	14571
857.53	14499
857.664	14526
857.797	14530
857.931	14587
858.064	14511
858.197	14579
858.331	14473
858.464	14347
858.597	14298
858.731	14522
858.864	14492
858.997	14423
859.13	14431
859.263	14446
859.396	14575
859.529	14408
859.662	14442
859.795	14381
859.928	14469
860.061	14495
860.194	14625
860.327	14476
860.46	14507
860.592	14552
860.725	14579
860.858	14560
860.99	14438
861.123	14381
861.256	14275
861.388	14427
861.521	14971
861.653	14294
861.786	14313
861.918	14256
862.05	14305
862.183	14370
862.315	14419
862.447	14434
862.58	14347
862.712	14225
862.844	14157
862.976	14320
863.108	14259
863.24	14682
863.372	14183
863.504	14248
863.636	14233
863.768	14256
863.9	14191
864.032	14195
864.164	14237
864.296	14317
864.428	14374
864.559	14259
864.691	14202
864.823	14218
864.954	14157
865.086	14278
865.217	14214
865.349	14103
865.48	14210
865.612	14191
865.743	14400
865.875	14214
866.006	14123
866.137	14123
866.269	14145
866.4	14290
866.531	14103
866.662	14123
866.793	14187
866.924	14180
867.055	14100
867.186	14229
867.317	14180
867.448	14115
867.579	14077
867.71	14119
867.841	14081
867.972	14252
868.103	14180
868.233	14187
868.364	14244
868.495	14263
868.625	14423
868.756	14507
868.886	14404
869.017	14438
869.147	14556
869.278	14549
869.408	14514
869.539	14492
869.669	14530
869.799	14530
869.929	14530
870.06	14659
870.19	14777
870.32	14655
870.45	14693
870.58	14910
870.71	14998
870.84	14891
870.97	14785
871.1	14758
871.23	15013
871.36	15017
871.489	14925
871.619	15085
871.749	15013
871.879	15039
872.008	15108
872.138	15036
872.267	15070
872.397	14910
872.526	14918
872.656	14872
872.785	14857
872.915	15032
873.044	15173
873.173	15051
873.303	15142
873.432	15192
873.561	15268
873.69	15116
873.819	15066
873.948	15161
874.077	15131
874.206	15127
874.335	15116
874.464	15230
874.593	15374
874.722	15389
874.851	15519
874.979	15340
875.108	15393
875.237	15386
875.365	15363
875.494	15268
875.623	15534
875.751	15382
875.88	15386
876.008	15561
876.136	15629
876.265	15770
876.393	15949
876.521	15857
876.65	15911
876.778	15888
876.906	15660
877.034	15850
877.162	15804
877.29	15800
877.418	15854
877.546	15865
877.674	15812
877.802	15816
877.93	15766
878.058	15724
878.185	15743
878.313	15812
878.441	15827
878.568	15633
878.696	15751
878.824	15797
878.951	15850
879.079	15983
879.206	16109
879.333	15945
879.461	15880
879.588	15892
879.715	16032
879.842	16135
879.97	15892
880.097	15667
880.224	15591
880.351	15679
880.478	15644
880.605	15686
880.732	15660
880.859	15835
880.986	15705
881.112	15682
881.239	15538
881.366	15340
881.493	15355
881.619	15306
881.746	15268
881.872	15359
881.999	15306
882.125	15252
882.252	15393
882.378	15412
882.505	15424
882.631	15348
882.757	15093
882.883	15233
883.01	15100
883.136	15062
883.262	15074
883.388	14971
883.514	15222
883.64	15116
883.766	15066
883.892	14918
884.018	14990
884.143	15104
884.269	15241
884.395	14861
884.52	14735
884.646	14902
884.772	14853
884.897	14705
885.023	14842
885.148	14994
885.274	15051
885.399	14918
885.524	14826
885.65	14849
885.775	14906
885.9	14887
886.025	14914
886.15	15020
886.275	14834
886.4	14693
886.525	14880
886.65	14727
886.775	14708
886.9	14971
887.025	15043
887.149	14830
887.274	14716
887.399	14708
887.523	14625
887.648	14545
887.773	14568
887.897	14788
888.021	14686
888.146	14682
888.27	14705
888.395	14769
888.519	14838
888.643	14868
888.767	14716
888.891	14648
889.015	14488
889.139	14613
889.263	14610
889.387	14678
889.511	14724
889.635	14705
889.759	14568
889.883	14541
890.006	14575
890.13	14716
890.254	14454
890.377	14461
890.501	14298
890.624	14290
890.748	14419
890.871	14244
890.995	14172
891.118	14039
891.241	14221
891.364	14275
891.488	14286
891.611	14221
891.734	14271
891.857	14256
891.98	14317
892.103	14301
892.226	14332
892.349	14206
892.471	14187
892.594	14180
892.717	14210
892.839	14218
892.962	14229
893.085	14309
893.207	14210
893.33	14111
893.452	14138
893.575	14294
893.697	14271
893.819	14286
893.941	14377
894.064	14362
894.186	14149
894.308	14214
894.43	14263
894.552	14473
894.674	14427
894.796	14252
894.918	14256
895.04	14240
895.161	14336
895.283	14412
895.405	14294
895.526	14351
895.648	14328
895.769	14381
895.891	14301
896.012	14431
896.134	14339
896.255	14267
896.376	14419
896.498	14480
896.619	14541
896.74	14389
896.861	14507
896.982	14678
897.103	14830
897.224	14800
897.345	14727
897.466	14682
897.587	14697
897.708	14754
897.828	14663
897.949	14606
898.07	14480
898.19	14568
898.311	14754
898.431	14636
898.552	14720
898.672	14804
898.792	14872
898.913	14773
899.033	14644
899.153	14629
899.273	14530
899.393	14590
899.513	14632
899.633	14644
899.753	14667
899.873	14648
899.993	14686
900.113	14514
900.232	14674
900.352	14545
900.472	14461
900.591	14385
900.711	14328
900.83	14396
900.95	14511
901.069	14575
901.189	14450
901.308	14183
901.427	14069
901.546	14290
901.665	14233
901.784	14077
901.904	13871
902.023	13940
902.141	13696
902.26	13689
902.379	13750
902.498	13700
902.617	13658
902.735	13822
902.854	13712
902.973	13616
903.091	13392
903.21	13403
903.328	13396
903.446	13350
903.565	13282
903.683	13304
903.801	13171
903.919	13247
904.038	13118
904.156	13076
904.274	13145
904.392	13023
904.51	13069
904.627	13095
904.745	13183
904.863	13202
904.981	12825
905.098	12722
905.216	12776
905.334	12772
905.451	12768
905.569	12810
905.686	12856
905.803	12840
905.921	12593
906.038	12715
906.155	12544
906.272	12475
906.389	12528
906.506	12388
906.623	12433
906.74	12315
906.857	12224
906.974	12346
907.091	12475
907.208	12498
907.324	12441
907.441	12281
907.557	12117
907.674	12129
907.79	12091
907.907	12129
908.023	12087
908.139	12095
908.256	12015
908.372	11992
908.488	11931
908.604	11916
908.72	11874
908.836	11950
908.952	11863
909.068	11965
909.184	11920
909.3	11786
909.415	11874
909.531	11942
909.647	11718
909.762	11653
909.878	11642
909.993	11680
910.108	11627
910.224	11581
910.339	11661
910.454	11558
910.57	11471
910.685	11372
910.8	11672
910.915	11589
911.03	11497
911.145	11360
911.259	11391
911.374	11284
911.489	11254
911.604	11143
911.718	11151
911.833	11079
911.947	11048
912.062	10946
912.176	11033
912.291	11086
912.405	11102
912.519	11220
912.633	11277
912.748	11113
912.862	11052
912.976	11018
913.09	10843
913.204	10839
913.318	11045
913.431	11052
913.545	11014
913.659	11041
913.772	10915
913.886	10862
914	10805
914.113	10949
914.226	10961
914.34	10904
914.453	10809
914.566	10873
914.68	10752
914.793	10805
914.906	10607
915.019	10542
915.132	10512
915.245	10504
915.358	10603
915.47	10596
915.583	10599
915.696	10615
915.809	10710
915.921	10759
916.034	10634
916.146	10451
916.259	10493
916.371	10683
916.483	10538
916.595	10474
916.708	10603
916.82	10538
916.932	10577
917.044	10489
917.156	10489
917.268	10432
917.38	10367
917.491	10474
917.603	10443
917.715	10440
917.826	10504
917.938	10295
918.049	10348
918.161	10409
918.272	10599
918.384	10459
918.495	10459
918.606	10333
918.717	10185
918.828	10287
918.939	10287
919.05	10215
919.161	10287
919.272	10101
919.383	10147
919.494	10386
919.604	10565
919.715	10261
919.826	10306
919.936	10295
920.047	10363
920.157	10356
920.267	10531
920.378	10371
920.488	10303
920.598	10478
920.708	10649
920.818	10542
920.928	10478
921.038	10618
921.148	10599
921.258	10356
921.368	10352
921.477	10196
921.587	10124
921.697	10059
921.806	10192
921.916	10063
922.025	9907
922.134	9915
922.244	9835
922.353	9876
922.462	9751
922.571	9698
922.68	9564
922.789	9561
922.898	9549
923.007	9507
923.116	9610
923.224	9576
923.333	9500
923.442	9466
923.55	9412
923.659	9370
923.767	9511
923.876	9397
923.984	9515
924.092	9329
924.201	9447
924.309	9488
924.417	9458
924.525	9313
924.633	9378
924.741	10116
924.849	9188
924.956	9291
925.064	9142
925.172	9165
925.279	9154
925.387	9283
925.494	9195
925.602	9382
925.709	9287
925.816	9077
925.924	9291
926.031	9279
926.138	9214
926.245	9264
926.352	9066
926.459	9294
926.566	9279
926.673	9135
926.779	9161
926.886	9085
926.993	9055
927.099	8899
927.206	8899
927.312	8895
927.419	8914
927.525	8918
927.631	8910
927.737	8785
927.843	8792
927.95	8689
928.056	8769
928.162	8845
928.267	8849
928.373	9401
928.479	8864
928.585	8682
928.69	8796
928.796	8876
928.901	8750
929.007	8594
929.112	8686
929.218	8712
929.323	8648
929.428	8610
929.533	8762
929.638	8587
929.743	8629
929.848	8746
929.953	8629
930.058	8495
930.163	8339
930.267	8415
930.372	8541
930.477	8328
930.581	8583
930.685	8541
930.79	8301
930.894	8412
930.998	8294
931.103	8537
931.207	8126
931.311	8062
931.415	7997
931.519	7921
931.623	7898
