Data from test_V78500241_143.txt Node
Date: Fri Mar 25 14:34:43 CST 2022
User: usil
Spectrometer: V785-0024
Trigger mode: 0
Integration Time (sec): 4.000000E-1
Scans to average: 1
Nonlinearity correction enabled: false
Boxcar width: 0
Storing dark spectrum: false
XAxis mode: Wavelengths
Number of Pixels in Spectrum: 1024
>>>>>Begin Spectral Data<<<<<
801.071	29627
801.214	29634
801.356	29395
801.499	29064
801.641	29056
801.783	29132
801.926	29162
802.068	29018
802.211	28942
802.353	28911
802.496	28645
802.638	28611
802.78	28713
802.923	28626
803.065	28721
803.208	28637
803.35	28706
803.492	28946
803.635	29003
803.777	28706
803.919	28927
804.061	29159
804.204	28938
804.346	28862
804.488	28847
804.63	28892
804.773	28786
804.915	28930
805.057	29200
805.199	29052
805.341	29105
805.483	29174
805.626	29200
805.768	29151
805.91	29402
806.052	29402
806.194	29414
806.336	29691
806.478	29558
806.62	29653
806.762	29824
806.904	30041
807.046	30563
807.188	30502
807.33	30631
807.472	31061
807.614	31209
807.756	31746
807.898	32237
808.04	32792
808.182	33785
808.324	34961
808.465	36418
808.607	37955
808.749	39146
808.891	39964
809.033	40021
809.174	39028
809.316	37681
809.458	36285
809.6	34740
809.741	33572
809.883	32724
810.025	32221
810.166	31651
810.308	31419
810.45	30905
810.591	30753
810.733	30460
810.875	30289
811.016	29984
811.158	29805
811.299	29950
811.441	30015
811.582	30003
811.724	29695
811.865	29680
812.007	29718
812.148	29786
812.29	29703
812.431	29718
812.573	29828
812.714	29889
812.855	29973
812.997	30091
813.138	30216
813.279	30049
813.421	29901
813.562	29901
813.703	29718
813.845	29501
813.986	29185
814.127	28930
814.268	28987
814.41	28862
814.551	28771
814.692	28862
814.833	28793
814.974	28752
815.115	28820
815.256	28729
815.397	28645
815.539	28592
815.68	28489
815.821	28554
815.962	28565
816.103	28478
816.244	28428
816.385	28253
816.526	28238
816.666	27945
816.807	27876
816.948	27934
817.089	28082
817.23	27880
817.371	27827
817.512	27781
817.653	27778
817.793	27857
817.934	27861
818.075	27770
818.216	27835
818.356	27762
818.497	27610
818.638	27427
818.778	27568
818.919	27583
819.06	27538
819.2	27591
819.341	27641
819.481	27709
819.622	27899
819.762	27941
819.903	27892
820.043	27838
820.184	27804
820.324	27816
820.465	27793
820.605	27774
820.746	27679
820.886	27595
821.026	27599
821.167	27717
821.307	27694
821.447	27660
821.588	27325
821.728	27408
821.868	27138
822.008	27055
822.149	27085
822.289	26910
822.429	26838
822.569	26724
822.709	26541
822.849	26393
822.99	26556
823.13	26450
823.27	26221
823.41	26210
823.55	26206
823.69	26267
823.83	26225
823.97	26259
824.11	26084
824.25	25982
824.389	26107
824.529	26016
824.669	25986
824.809	26103
824.949	26065
825.089	26073
825.228	26065
825.368	25715
825.508	25913
825.648	25868
825.787	25940
825.927	25742
826.067	25936
826.206	25795
826.346	25788
826.485	25917
826.625	25746
826.765	25986
826.904	25761
827.044	25616
827.183	25639
827.323	25529
827.462	25491
827.601	25525
827.741	25563
827.88	25578
828.02	25308
828.159	25460
828.298	25457
828.437	25434
828.577	25453
828.716	25476
828.855	25453
828.994	25179
829.134	25099
829.273	25152
829.412	25099
829.551	25129
829.69	25122
829.829	25122
829.968	25259
830.107	25084
830.246	25145
830.385	24958
830.524	25034
830.663	24863
830.802	24875
830.941	24642
831.08	24738
831.219	24863
831.357	24726
831.496	24802
831.635	24551
831.774	24582
831.913	24570
832.051	24525
832.19	24464
832.329	24555
832.467	24551
832.606	24551
832.744	24304
832.883	24509
833.022	24407
833.16	24525
833.299	24582
833.437	24597
833.576	24764
833.714	24863
833.852	24863
833.991	24909
834.129	24951
834.267	24913
834.406	24711
834.544	24806
834.682	24722
834.821	24798
834.959	24798
835.097	24589
835.235	24612
835.373	24505
835.511	24547
835.65	24300
835.788	24285
835.926	24197
836.064	24041
836.202	24117
836.34	24201
836.478	24239
836.615	24133
836.753	24254
836.891	24369
837.029	24194
837.167	24083
837.305	24030
837.443	24079
837.58	23882
837.718	24015
837.856	24060
837.993	23798
838.131	23904
838.269	23859
838.406	23824
838.544	23771
838.681	23729
838.819	23486
838.956	23490
839.094	23455
839.231	23376
839.369	23733
839.506	23672
839.643	23531
839.781	23410
839.918	23143
840.055	23246
840.193	23296
840.33	23220
840.467	23143
840.604	23197
840.742	23490
840.879	23128
841.016	23231
841.153	23159
841.29	23368
841.427	23197
841.564	23212
841.701	23143
841.838	23174
841.975	23136
842.112	23018
842.249	23003
842.385	23136
842.522	23197
842.659	23071
842.796	22961
842.933	22999
843.069	23075
843.206	22885
843.343	23189
843.479	23113
843.616	23056
843.752	22911
843.889	22881
844.025	23132
844.162	22786
844.298	23079
844.435	22987
844.571	22987
844.708	23200
844.844	23474
844.98	23699
845.117	23916
845.253	24224
845.389	24939
845.525	26579
845.661	28866
845.798	31966
845.934	34280
846.07	35349
846.206	34755
846.342	33005
846.478	29821
846.614	27047
846.75	25293
846.886	24247
847.022	23444
847.158	23083
847.294	22816
847.429	22740
847.565	22546
847.701	22713
847.837	22230
847.972	22128
848.108	22150
848.244	22181
848.379	21926
848.515	21979
848.65	21831
848.786	21778
848.921	21857
849.057	21770
849.192	21846
849.328	21728
849.463	21804
849.598	21720
849.734	21701
849.869	21580
850.004	21523
850.14	21599
850.275	21549
850.41	21378
850.545	21348
850.68	21382
850.815	21473
850.95	21367
851.085	21637
851.22	21557
851.355	21587
851.49	21447
851.625	21458
851.76	21359
851.895	21252
852.03	21348
852.165	21542
852.299	21447
852.434	21439
852.569	21481
852.703	21405
852.838	21488
852.973	21595
853.107	21561
853.242	21507
853.376	21447
853.511	21272
853.645	21367
853.78	21473
853.914	21462
854.048	21557
854.183	21363
854.317	21614
854.451	21603
854.585	21329
854.72	21481
854.854	21408
854.988	21397
855.122	21405
855.256	21283
855.39	21378
855.524	21466
855.658	21416
855.792	21317
855.926	21332
856.06	21252
856.194	21275
856.327	21203
856.461	21233
856.595	21169
856.729	21222
856.862	21310
856.996	21351
857.13	21317
857.263	21264
857.397	21287
857.53	21161
857.664	21230
857.797	21367
857.931	21173
858.064	21260
858.197	21226
858.331	21173
858.464	21119
858.597	21051
858.731	21074
858.864	21013
858.997	21176
859.13	21104
859.263	21089
859.396	21260
859.529	21096
859.662	21119
859.795	21017
859.928	21154
860.061	21291
860.194	21313
860.327	21192
860.46	20986
860.592	21249
860.725	21195
860.858	21188
860.99	21100
861.123	20960
861.256	21085
861.388	21036
861.521	21915
861.653	20963
861.786	20910
861.918	21039
862.05	21028
862.183	21146
862.315	21294
862.447	21142
862.58	21085
862.712	20902
862.844	20941
862.976	20941
863.108	20941
863.24	21211
863.372	20708
863.504	20830
863.636	20929
863.768	20849
863.9	20819
864.032	20743
864.164	20815
864.296	20724
864.428	20902
864.559	20868
864.691	20861
864.823	20746
864.954	20887
865.086	20796
865.217	20632
865.349	20545
865.48	20712
865.612	20686
865.743	20807
865.875	20697
866.006	20651
866.137	20648
866.269	20735
866.4	20689
866.531	20636
866.662	20598
866.793	20545
866.924	20598
867.055	20617
867.186	20606
867.317	20606
867.448	20537
867.579	20667
867.71	20522
867.841	20556
867.972	20716
868.103	20701
868.233	20541
868.364	20632
868.495	20819
868.625	20887
868.756	20925
868.886	20906
869.017	20788
869.147	20994
869.278	20979
869.408	20777
869.539	20864
869.669	20872
869.799	20967
869.929	21047
870.06	20918
870.19	21100
870.32	21112
870.45	21233
870.58	21192
870.71	21378
870.84	21367
870.97	21348
871.1	21317
871.23	21401
871.36	21526
871.489	21397
871.619	21500
871.749	21431
871.879	21511
872.008	21572
872.138	21477
872.267	21492
872.397	21393
872.526	21313
872.656	21298
872.785	21443
872.915	21568
873.044	21713
873.173	21622
873.303	21675
873.432	21698
873.561	21701
873.69	21656
873.819	21648
873.948	21717
874.077	21660
874.206	21587
874.335	21663
874.464	21774
874.593	22002
874.722	21907
874.851	22025
874.979	22059
875.108	22116
875.237	22032
875.365	21865
875.494	21983
875.623	22101
875.751	22059
875.88	22158
876.008	22242
876.136	22447
876.265	22424
876.393	22748
876.521	22679
876.65	22721
876.778	22664
876.906	22656
877.034	22641
877.162	22820
877.29	22740
877.418	22786
877.546	23018
877.674	22930
877.802	22885
877.93	22881
878.058	23143
878.185	23113
878.313	23231
878.441	23421
878.568	23387
878.696	23729
878.824	24243
878.951	24726
879.079	25400
879.206	26408
879.333	27264
879.461	28044
879.588	28485
879.715	28645
879.842	28493
879.97	27321
880.097	26252
880.224	25571
880.351	24920
880.478	24566
880.605	24224
880.732	24152
880.859	24136
880.986	23931
881.112	23946
881.239	23756
881.366	23703
881.493	23551
881.619	23608
881.746	23448
881.872	23387
881.999	23471
882.125	23444
882.252	23452
882.378	23543
882.505	23592
882.631	23543
882.757	23345
882.883	23406
883.01	23296
883.136	23231
883.262	23204
883.388	23003
883.514	23242
883.64	23311
883.766	23181
883.892	23052
884.018	23178
884.143	23155
884.269	23315
884.395	23071
884.52	22968
884.646	22999
884.772	22965
884.897	22847
885.023	22980
885.148	23029
885.274	23067
885.399	22831
885.524	22946
885.65	22729
885.775	22653
885.9	22462
886.025	22763
886.15	22546
886.275	22500
886.4	22219
886.525	22261
886.65	22287
886.775	22154
886.9	22246
887.025	22356
887.149	22078
887.274	21781
887.399	21694
887.523	21671
887.648	21652
887.773	21561
887.897	21705
888.021	21682
888.146	21568
888.27	21637
888.395	21610
888.519	21644
888.643	21504
888.767	21587
888.891	21313
889.015	21291
889.139	21393
889.263	21161
889.387	21351
889.511	21329
889.635	21233
889.759	21203
889.883	21070
890.006	21211
890.13	21192
890.254	20952
890.377	20948
890.501	20800
890.624	20655
890.748	20689
890.871	20659
890.995	20556
891.118	20564
891.241	20514
891.364	20583
891.488	20792
891.611	20412
891.734	20499
891.857	20636
891.98	20583
892.103	20575
892.226	20514
892.349	20400
892.471	20183
892.594	20358
892.717	20199
892.839	20191
892.962	20271
893.085	20214
893.207	20210
893.33	20313
893.452	20282
893.575	20343
893.697	20180
893.819	20400
893.941	20278
894.064	20320
894.186	20107
894.308	20142
894.43	20210
894.552	20259
894.674	20202
894.796	19970
894.918	20039
895.04	20058
895.161	20084
895.283	20149
895.405	20005
895.526	19986
895.648	19875
895.769	20069
895.891	20111
896.012	20088
896.134	20096
896.255	20195
896.376	20031
896.498	19959
896.619	20024
896.74	20134
896.861	20096
896.982	20377
897.103	20434
897.224	20358
897.345	20206
897.466	20191
897.587	20256
897.708	20199
897.828	20267
897.949	20027
898.07	20020
898.19	20096
898.311	20183
898.431	20134
898.552	20161
898.672	20195
898.792	20286
898.913	20073
899.033	19940
899.153	19894
899.273	19833
899.393	19875
899.513	19902
899.633	19917
899.753	19830
899.873	19780
899.993	19906
900.113	19803
900.232	19689
900.352	19814
900.472	19708
900.591	19643
900.711	19616
900.83	19635
900.95	19875
901.069	19761
901.189	19616
901.308	19339
901.427	19373
901.546	19183
901.665	19255
901.784	19293
901.904	19118
902.023	19053
902.141	18730
902.26	18837
902.379	18760
902.498	18711
902.617	18544
902.735	18829
902.854	18627
902.973	18696
903.091	18361
903.21	18346
903.328	18418
903.446	18289
903.565	18209
903.683	18216
903.801	18121
903.919	18087
904.038	17965
904.156	17878
904.274	17958
904.392	17931
904.51	17821
904.627	17874
904.745	17916
904.863	17821
904.981	17630
905.098	17642
905.216	17585
905.334	17512
905.451	17627
905.569	17520
905.686	17570
905.803	17478
905.921	17299
906.038	17455
906.155	17425
906.272	17269
906.389	17197
906.506	17128
906.623	17090
906.74	17083
906.857	16938
906.974	16991
907.091	16972
907.208	17128
907.324	17140
907.441	16938
907.557	16812
907.674	16809
907.79	16637
907.907	16687
908.023	16618
908.139	16584
908.256	16675
908.372	16531
908.488	16592
908.604	16489
908.72	16432
908.836	16481
908.952	16436
909.068	16466
909.184	16584
909.3	16394
909.415	16379
909.531	16443
909.647	16063
909.762	16143
909.878	16105
909.993	16109
910.108	16105
910.224	16017
910.339	16139
910.454	16010
910.57	15907
910.685	15941
910.8	16200
910.915	16109
911.03	15884
911.145	15739
911.259	15690
911.374	15652
911.489	15614
911.604	15553
911.718	15401
911.833	15378
911.947	15473
912.062	15329
912.176	15526
912.291	15408
912.405	15447
912.519	15591
912.633	15629
912.748	15507
912.862	15439
912.976	15359
913.09	15165
913.204	15260
913.318	15264
913.431	15348
913.545	15424
913.659	15351
913.772	15249
913.886	15085
914	15157
914.113	15093
914.226	15195
914.34	15214
914.453	14944
914.566	15058
914.68	14982
914.793	15047
914.906	14826
915.019	14796
915.132	14590
915.245	14697
915.358	14769
915.47	14769
915.583	14804
915.696	14857
915.809	14823
915.921	14845
916.034	14640
916.146	14663
916.259	14610
916.371	14811
916.483	14697
916.595	14648
916.708	14663
916.82	14632
916.932	14541
917.044	14526
917.156	14533
917.268	14419
917.38	14434
917.491	14385
917.603	14366
917.715	14473
917.826	14499
917.938	14355
918.049	14157
918.161	14290
918.272	14400
918.384	14511
918.495	14332
918.606	14073
918.717	14039
918.828	14218
918.939	14164
919.05	14096
919.161	14168
919.272	13902
919.383	14008
919.494	14149
919.604	14275
919.715	14142
919.826	13997
919.936	14043
920.047	14111
920.157	14062
920.267	14202
920.378	14031
920.488	14035
920.598	14210
920.708	14385
920.818	14221
920.928	14123
921.038	14320
921.148	14145
921.258	13986
921.368	13894
921.477	13811
921.587	13814
921.697	13597
921.806	13769
921.916	13525
922.025	13487
922.134	13369
922.244	13457
922.353	13544
922.462	13343
922.571	13236
922.68	13164
922.789	13076
922.898	13110
923.007	13034
923.116	13103
923.224	12989
923.333	13099
923.442	12951
923.55	12787
923.659	12886
923.767	12951
923.876	12856
923.984	12909
924.092	12768
924.201	12795
924.309	12741
924.417	12764
924.525	12814
924.633	12749
924.741	13700
924.849	12589
924.956	12734
925.064	12574
925.172	12490
925.279	12391
925.387	12513
925.494	12464
925.602	12681
925.709	12593
925.816	12334
925.924	12483
926.031	12494
926.138	12483
926.245	12601
926.352	12319
926.459	12448
926.566	12547
926.673	12357
926.779	12239
926.886	12239
926.993	12049
927.099	12087
927.206	12015
927.312	12034
927.419	12136
927.525	12003
927.631	12038
927.737	11946
927.843	11908
927.95	11847
928.056	11927
928.162	11840
928.267	11969
928.373	12536
928.479	12019
928.585	11764
928.69	11912
928.796	11847
928.901	11764
929.007	11615
929.112	11729
929.218	11699
929.323	11741
929.428	11608
929.533	11699
929.638	11600
929.743	11615
929.848	11577
929.953	11566
930.058	11463
930.163	11376
930.267	11379
930.372	11467
930.477	11280
930.581	11512
930.685	11376
930.79	11086
930.894	11288
930.998	11147
931.103	11227
931.207	10915
931.311	10911
931.415	10820
931.519	10626
931.623	10561
