Data from test_V78500241_2967.txt Node
Date: Fri Mar 25 14:54:22 CST 2022
User: usil
Spectrometer: V785-0024
Trigger mode: 0
Integration Time (sec): 4.000000E-1
Scans to average: 1
Nonlinearity correction enabled: false
Boxcar width: 0
Storing dark spectrum: false
XAxis mode: Wavelengths
Number of Pixels in Spectrum: 1024
>>>>>Begin Spectral Data<<<<<
801.071	22204
801.214	22036
801.356	21724
801.499	21568
801.641	21462
801.783	21477
801.926	21580
802.068	21340
802.211	21211
802.353	21188
802.496	21131
802.638	20952
802.78	21058
802.923	20853
803.065	20693
803.208	20705
803.35	20861
803.492	21028
803.635	20872
803.777	20800
803.919	20918
804.061	21154
804.204	20849
804.346	20670
804.488	20678
804.63	20750
804.773	20746
804.915	20720
805.057	20902
805.199	20762
805.341	20621
805.483	20743
805.626	20826
805.768	20648
805.91	20758
806.052	20800
806.194	20636
806.336	20872
806.478	20689
806.62	20625
806.762	20693
806.904	20937
807.046	21066
807.188	21020
807.33	21024
807.472	21112
807.614	20994
807.756	21127
807.898	20880
808.04	20815
808.182	20758
808.324	20773
808.465	20887
808.607	21028
808.749	21104
808.891	21192
809.033	21283
809.174	21127
809.316	21062
809.458	21017
809.6	21032
809.741	21085
809.883	21119
810.025	21230
810.166	21241
810.308	21214
810.45	21264
810.591	21222
810.733	20891
810.875	20933
811.016	20807
811.158	20697
811.299	20975
811.441	21066
811.582	20914
811.724	20899
811.865	20750
812.007	20823
812.148	20857
812.29	20902
812.431	21093
812.573	21123
812.714	21214
812.855	21359
812.997	21412
813.138	21523
813.279	21496
813.421	21340
813.562	21268
813.703	21165
813.845	21108
813.986	20807
814.127	20564
814.268	20560
814.41	20385
814.551	20370
814.692	20434
814.833	20377
814.974	20476
815.115	20431
815.256	20282
815.397	20183
815.539	20256
815.68	20176
815.821	20157
815.962	20065
816.103	20218
816.244	20069
816.385	19928
816.526	19860
816.666	19700
816.807	19563
816.948	19681
817.089	19704
817.23	19586
817.371	19495
817.512	19495
817.653	19415
817.793	19483
817.934	19514
818.075	19613
818.216	19487
818.356	19438
818.497	19419
818.638	19187
818.778	19274
818.919	19285
819.06	19209
819.2	19183
819.341	19453
819.481	19266
819.622	19624
819.762	19666
819.903	19605
820.043	19700
820.184	19502
820.324	19601
820.465	19655
820.605	19578
820.746	19533
820.886	19506
821.026	19491
821.167	19422
821.307	19415
821.447	19506
821.588	19320
821.728	19221
821.868	19095
822.008	18977
822.149	18989
822.289	18817
822.429	18589
822.569	18642
822.709	18631
822.849	18391
822.99	18365
823.13	18323
823.27	18407
823.41	18235
823.55	18155
823.69	18182
823.83	18152
823.97	18068
824.11	17870
824.25	17950
824.389	17996
824.529	18076
824.669	17999
824.809	18117
824.949	18022
825.089	18072
825.228	17950
825.368	17756
825.508	17824
825.648	17802
825.787	17783
825.927	17847
826.067	17745
826.206	17684
826.346	17710
826.485	17824
826.625	17733
826.765	17821
826.904	17760
827.044	17452
827.183	17505
827.323	17406
827.462	17482
827.601	17463
827.741	17459
827.88	17444
828.02	17284
828.159	17433
828.298	17497
828.437	17570
828.577	17459
828.716	17532
828.855	17444
828.994	17204
829.134	17166
829.273	17204
829.412	17197
829.551	17140
829.69	17037
829.829	17147
829.968	17212
830.107	17090
830.246	17239
830.385	17033
830.524	17086
830.663	16965
830.802	16885
830.941	16839
831.08	16778
831.219	16892
831.357	16881
831.496	17083
831.635	16771
831.774	16816
831.913	16736
832.051	16516
832.19	16531
832.329	16599
832.467	16592
832.606	16432
832.744	16440
832.883	16402
833.022	16379
833.16	16535
833.299	16542
833.437	16447
833.576	16485
833.714	16527
833.852	16607
833.991	16554
834.129	16436
834.267	16599
834.406	16554
834.544	16519
834.682	16497
834.821	16481
834.959	16713
835.097	16500
835.235	16622
835.373	16542
835.511	16516
835.65	16447
835.788	16443
835.926	16303
836.064	16219
836.202	16166
836.34	16428
836.478	16462
836.615	16394
836.753	16382
836.891	16504
837.029	16421
837.167	16402
837.305	16447
837.443	16318
837.58	16322
837.718	16379
837.856	16306
837.993	16223
838.131	16363
838.269	16173
838.406	16192
838.544	16158
838.681	15972
838.819	15918
838.956	15800
839.094	15823
839.231	15823
839.369	15941
839.506	16173
839.643	16135
839.781	15838
839.918	15850
840.055	15850
840.193	15827
840.33	15789
840.467	15728
840.604	15903
840.742	15960
840.879	15709
841.016	15762
841.153	15720
841.29	15934
841.427	15854
841.564	15884
841.701	15808
841.838	15766
841.975	15751
842.112	15739
842.249	15572
842.385	15568
842.522	15808
842.659	15698
842.796	15644
842.933	15599
843.069	15652
843.206	15648
843.343	15705
843.479	15629
843.616	15660
843.752	15397
843.889	15363
844.025	15488
844.162	15397
844.298	15481
844.435	15447
844.571	15447
844.708	15424
844.844	15568
844.98	15625
845.117	15519
845.253	15367
845.389	15275
845.525	15332
845.661	15294
845.798	15211
845.934	15256
846.07	15058
846.206	15157
846.342	15313
846.478	15116
846.614	15020
846.75	14925
846.886	14971
847.022	15097
847.158	14918
847.294	14895
847.429	15097
847.565	14857
847.701	15127
847.837	14716
847.972	14644
848.108	14796
848.244	14754
848.379	14651
848.515	14533
848.65	14560
848.786	14526
848.921	14495
849.057	14663
849.192	14720
849.328	14526
849.463	14434
849.598	14503
849.734	14499
849.869	14431
850.004	14271
850.14	14278
850.275	14355
850.41	14282
850.545	14278
850.68	14370
850.815	14339
850.95	14381
851.085	14454
851.22	14476
851.355	14301
851.49	14301
851.625	14195
851.76	14157
851.895	14244
852.03	14237
852.165	14366
852.299	14427
852.434	14465
852.569	14301
852.703	14400
852.838	14389
852.973	14419
853.107	14423
853.242	14442
853.376	14123
853.511	14142
853.645	14240
853.78	14278
853.914	14240
854.048	14107
854.183	14088
854.317	14256
854.451	14385
854.585	14142
854.72	14134
854.854	14172
854.988	14096
855.122	14263
855.256	14069
855.39	14172
855.524	14332
855.658	14218
855.792	14202
855.926	14225
856.06	14172
856.194	14282
856.327	14134
856.461	14157
856.595	14046
856.729	14206
856.862	14301
856.996	14134
857.13	14263
857.263	14343
857.397	14305
857.53	14214
857.664	14298
857.797	14252
857.931	14301
858.064	14153
858.197	14461
858.331	14187
858.464	14119
858.597	14142
858.731	14191
858.864	14199
858.997	14096
859.13	14214
859.263	14275
859.396	14290
859.529	14218
859.662	14229
859.795	14183
859.928	14252
860.061	14313
860.194	14412
860.327	14244
860.46	14123
860.592	14256
860.725	14408
860.858	14396
860.99	14256
861.123	14229
861.256	14103
861.388	14347
861.521	14872
861.653	14016
861.786	14084
861.918	14149
862.05	14115
862.183	14153
862.315	14225
862.447	14240
862.58	14183
862.712	13970
862.844	13944
862.976	14096
863.108	14005
863.24	14339
863.372	13917
863.504	14008
863.636	13963
863.768	14005
863.9	14046
864.032	14001
864.164	13932
864.296	14027
864.428	14195
864.559	14081
864.691	14123
864.823	14134
864.954	14054
865.086	14115
865.217	14050
865.349	13993
865.48	13974
865.612	14069
865.743	14100
865.875	14153
866.006	13940
866.137	13906
866.269	13993
866.4	13967
866.531	13993
866.662	13967
866.793	13955
866.924	13906
867.055	14073
867.186	13986
867.317	13928
867.448	13951
867.579	13974
867.71	13894
867.841	13818
867.972	14065
868.103	13970
868.233	14005
868.364	13913
868.495	13989
868.625	14161
868.756	14309
868.886	14221
869.017	14142
869.147	14385
869.278	14317
869.408	14218
869.539	14199
869.669	14286
869.799	14248
869.929	14358
870.06	14252
870.19	14568
870.32	14499
870.45	14648
870.58	14625
870.71	14758
870.84	14670
870.97	14708
871.1	14602
871.23	14781
871.36	14792
871.489	14716
871.619	14796
871.749	14872
871.879	14880
872.008	14910
872.138	14899
872.267	14796
872.397	14606
872.526	14826
872.656	14686
872.785	14693
872.915	14982
873.044	14986
873.173	14876
873.303	14994
873.432	14967
873.561	14982
873.69	14864
873.819	14902
873.948	14899
874.077	14864
874.206	14773
874.335	14986
874.464	15039
874.593	15211
874.722	15256
874.851	15249
874.979	15146
875.108	15192
875.237	15218
875.365	15097
875.494	15272
875.623	15306
875.751	15222
875.88	15245
876.008	15321
876.136	15424
876.265	15618
876.393	15857
876.521	15660
876.65	15675
876.778	15614
876.906	15485
877.034	15587
877.162	15553
877.29	15488
877.418	15606
877.546	15622
877.674	15679
877.802	15572
877.93	15629
878.058	15629
878.185	15572
878.313	15580
878.441	15667
878.568	15462
878.696	15584
878.824	15641
878.951	15667
879.079	15804
879.206	15987
879.333	15789
879.461	15698
879.588	15717
879.715	15739
879.842	15884
879.97	15648
880.097	15481
880.224	15332
880.351	15439
880.478	15523
880.605	15496
880.732	15549
880.859	15751
880.986	15496
881.112	15595
881.239	15378
881.366	15180
881.493	15188
881.619	15081
881.746	15062
881.872	15161
881.999	15036
882.125	15119
882.252	15176
882.378	15085
882.505	15283
882.631	15116
882.757	14921
882.883	15013
883.01	14868
883.136	14941
883.262	14838
883.388	14853
883.514	14914
883.64	15070
883.766	14941
883.892	14807
884.018	14804
884.143	14906
884.269	15032
884.395	14754
884.52	14663
884.646	14705
884.772	14564
884.897	14659
885.023	14640
885.148	14781
885.274	14857
885.399	14773
885.524	14621
885.65	14670
885.775	14731
885.9	14568
886.025	14754
886.15	14689
886.275	14587
886.4	14575
886.525	14716
886.65	14514
886.775	14541
886.9	14785
887.025	14864
887.149	14716
887.274	14427
887.399	14526
887.523	14400
887.648	14393
887.773	14412
887.897	14480
888.021	14564
888.146	14389
888.27	14579
888.395	14579
888.519	14541
888.643	14571
888.767	14488
888.891	14320
889.015	14339
889.139	14400
889.263	14301
889.387	14408
889.511	14537
889.635	14404
889.759	14336
889.883	14309
890.006	14328
890.13	14514
890.254	14214
890.377	14275
890.501	14195
890.624	14142
890.748	14267
890.871	14100
890.995	13978
891.118	13902
891.241	14043
891.364	14031
891.488	14058
891.611	14024
891.734	14111
891.857	14077
891.98	14043
892.103	14084
892.226	14073
892.349	14031
892.471	13928
892.594	13974
892.717	14058
892.839	13959
892.962	13978
893.085	14119
893.207	13974
893.33	13917
893.452	13917
893.575	14096
893.697	14043
893.819	14240
893.941	14248
894.064	14259
894.186	14024
894.308	14039
894.43	14145
894.552	14294
894.674	14172
894.796	14008
894.918	14096
895.04	14054
895.161	14271
895.283	14134
895.405	14016
895.526	14100
895.648	14077
895.769	14191
895.891	14282
896.012	14210
896.134	14286
896.255	14244
896.376	14103
896.498	14240
896.619	14206
896.74	14210
896.861	14343
896.982	14636
897.103	14758
897.224	14571
897.345	14469
897.466	14457
897.587	14431
897.708	14556
897.828	14537
897.949	14412
898.07	14358
898.19	14389
898.311	14667
898.431	14503
898.552	14575
898.672	14663
898.792	14602
898.913	14507
899.033	14484
899.153	14434
899.273	14218
899.393	14423
899.513	14415
899.633	14465
899.753	14457
899.873	14423
899.993	14446
900.113	14507
900.232	14427
900.352	14431
900.472	14355
900.591	14328
900.711	14305
900.83	14347
900.95	14427
901.069	14438
901.189	14191
901.308	14081
901.427	13807
901.546	13978
901.665	14058
901.784	13947
901.904	13784
902.023	13723
902.141	13658
902.26	13586
902.379	13578
902.498	13628
902.617	13590
902.735	13632
902.854	13529
902.973	13537
903.091	13278
903.21	13251
903.328	13236
903.446	13190
903.565	13160
903.683	13145
903.801	13065
903.919	13103
904.038	13065
904.156	12897
904.274	13008
904.392	12928
904.51	13000
904.627	12909
904.745	12954
904.863	12962
904.981	12814
905.098	12563
905.216	12559
905.334	12551
905.451	12658
905.569	12471
905.686	12692
905.803	12585
905.921	12448
906.038	12525
906.155	12486
906.272	12391
906.389	12315
906.506	12220
906.623	12197
906.74	12133
906.857	12125
906.974	12102
907.091	12273
907.208	12277
907.324	12296
907.441	12216
907.557	11939
907.674	11973
907.79	11878
907.907	11885
908.023	11965
908.139	11961
908.256	11866
908.372	11878
908.488	11893
908.604	11767
908.72	11691
908.836	11748
908.952	11653
909.068	11726
909.184	11878
909.3	11752
909.415	11832
909.531	11691
909.647	11474
909.762	11467
909.878	11425
909.993	11528
910.108	11493
910.224	11455
910.339	11471
910.454	11353
910.57	11345
910.685	11212
910.8	11558
910.915	11551
911.03	11395
911.145	11239
911.259	11170
911.374	11181
911.489	11162
911.604	11048
911.718	10885
911.833	10953
911.947	10847
912.062	10763
912.176	10782
912.291	10995
912.405	10991
912.519	11086
912.633	11216
912.748	11014
912.862	10904
912.976	10831
913.09	10683
913.204	10748
913.318	10805
913.431	10923
913.545	10953
913.659	10965
913.772	10858
913.886	10748
914	10607
914.113	10858
914.226	10877
914.34	10793
914.453	10538
914.566	10778
914.68	10626
914.793	10668
914.906	10497
915.019	10363
915.132	10405
915.245	10405
915.358	10436
915.47	10443
915.583	10531
915.696	10519
915.809	10637
915.921	10596
916.034	10459
916.146	10451
916.259	10371
916.371	10489
916.483	10493
916.595	10337
916.708	10356
916.82	10421
916.932	10421
917.044	10363
917.156	10394
917.268	10280
917.38	10227
917.491	10257
917.603	10322
917.715	10360
917.826	10398
917.938	10261
918.049	10196
918.161	10242
918.272	10402
918.384	10379
918.495	10322
918.606	10219
918.717	10120
918.828	10166
918.939	10173
919.05	10025
919.161	10177
919.272	9968
919.383	10021
919.494	10124
919.604	10382
919.715	10223
919.826	10082
919.936	10090
920.047	10246
920.157	10181
920.267	10436
920.378	10280
920.488	10196
920.598	10382
920.708	10558
920.818	10363
920.928	10325
921.038	10558
921.148	10516
921.258	10242
921.368	10200
921.477	10002
921.587	10074
921.697	9930
921.806	10078
921.916	9953
922.025	9759
922.134	9720
922.244	9610
922.353	9819
922.462	9568
922.571	9561
922.68	9378
922.789	9393
922.898	9481
923.007	9416
923.116	9458
923.224	9485
923.333	9378
923.442	9313
923.55	9249
923.659	9306
923.767	9329
923.876	9260
923.984	9313
924.092	9241
924.201	9264
924.309	9241
924.417	9363
924.525	9218
924.633	9214
924.741	10242
924.849	9020
924.956	9188
925.064	9089
925.172	8994
925.279	8998
925.387	9104
925.494	9017
925.602	9192
925.709	9154
925.816	9024
925.924	9062
926.031	9154
926.138	9097
926.245	9070
926.352	8986
926.459	9131
926.566	9211
926.673	9013
926.779	8937
926.886	8963
926.993	8811
927.099	8845
927.206	8750
927.312	8807
927.419	8796
927.525	8819
927.631	8868
927.737	8739
927.843	8716
927.95	8674
928.056	8724
928.162	8720
928.267	8788
928.373	9359
928.479	8785
928.585	8590
928.69	8632
928.796	8754
928.901	8636
929.007	8511
929.112	8659
929.218	8610
929.323	8537
929.428	8530
929.533	8678
929.638	8549
929.743	8587
929.848	8590
929.953	8518
930.058	8389
930.163	8309
930.267	8374
930.372	8438
930.477	8301
930.581	8522
930.685	8404
930.79	8252
930.894	8343
930.998	8237
931.103	8358
931.207	8035
931.311	8035
931.415	7970
931.519	7792
931.623	7849
