Data from test_V78500241_1817.txt Node
Date: Fri Mar 25 14:46:21 CST 2022
User: usil
Spectrometer: V785-0024
Trigger mode: 0
Integration Time (sec): 4.000000E-1
Scans to average: 1
Nonlinearity correction enabled: false
Boxcar width: 0
Storing dark spectrum: false
XAxis mode: Wavelengths
Number of Pixels in Spectrum: 1024
>>>>>Begin Spectral Data<<<<<
801.071	22082
801.214	21987
801.356	21766
801.499	21644
801.641	21622
801.783	21542
801.926	21523
802.068	21458
802.211	21439
802.353	21230
802.496	21165
802.638	21028
802.78	21005
802.923	20967
803.065	20883
803.208	20834
803.35	20819
803.492	20937
803.635	20967
803.777	20857
803.919	20952
804.061	21142
804.204	20918
804.346	20849
804.488	20727
804.63	20883
804.773	20754
804.915	20743
805.057	20811
805.199	20735
805.341	20792
805.483	20933
805.626	20933
805.768	20807
805.91	20804
806.052	20804
806.194	20648
806.336	20887
806.478	20811
806.62	20651
806.762	20788
806.904	20883
807.046	21165
807.188	21043
807.33	21100
807.472	21051
807.614	20963
807.756	21013
807.898	20914
808.04	20842
808.182	20754
808.324	20861
808.465	20910
808.607	21165
808.749	21165
808.891	21378
809.033	21355
809.174	21252
809.316	21218
809.458	21146
809.6	21066
809.741	21230
809.883	21226
810.025	21336
810.166	21424
810.308	21351
810.45	21283
810.591	21165
810.733	21047
810.875	21005
811.016	20902
811.158	20796
811.299	20910
811.441	21093
811.582	21074
811.724	20906
811.865	20842
812.007	20914
812.148	20815
812.29	20979
812.431	21055
812.573	21119
812.714	21256
812.855	21397
812.997	21469
813.138	21625
813.279	21466
813.421	21408
813.562	21416
813.703	21138
813.845	21119
813.986	20762
814.127	20625
814.268	20393
814.41	20469
814.551	20427
814.692	20495
814.833	20419
814.974	20404
815.115	20434
815.256	20324
815.397	20294
815.539	20248
815.68	20229
815.821	20199
815.962	20225
816.103	20278
816.244	20096
816.385	19947
816.526	19955
816.666	19761
816.807	19750
816.948	19620
817.089	19719
817.23	19700
817.371	19620
817.512	19575
817.653	19571
817.793	19620
817.934	19712
818.075	19521
818.216	19651
818.356	19620
818.497	19358
818.638	19270
818.778	19312
818.919	19217
819.06	19308
819.2	19304
819.341	19571
819.481	19502
819.622	19609
819.762	19799
819.903	19742
820.043	19681
820.184	19639
820.324	19567
820.465	19715
820.605	19544
820.746	19582
820.886	19529
821.026	19468
821.167	19476
821.307	19666
821.447	19586
821.588	19430
821.728	19324
821.868	19118
822.008	18951
822.149	18894
822.289	18810
822.429	18859
822.569	18688
822.709	18650
822.849	18532
822.99	18467
823.13	18486
823.27	18521
823.41	18338
823.55	18232
823.69	18285
823.83	18330
823.97	18330
824.11	17984
824.25	17999
824.389	18038
824.529	18167
824.669	18034
824.809	18243
824.949	18224
825.089	18091
825.228	18068
825.368	17927
825.508	17817
825.648	17805
825.787	17942
825.927	17901
826.067	17851
826.206	17866
826.346	17809
826.485	17855
826.625	17786
826.765	17843
826.904	17790
827.044	17619
827.183	17699
827.323	17455
827.462	17573
827.601	17512
827.741	17436
827.88	17455
828.02	17337
828.159	17478
828.298	17649
828.437	17532
828.577	17463
828.716	17722
828.855	17558
828.994	17360
829.134	17269
829.273	17391
829.412	17208
829.551	17284
829.69	17280
829.829	17269
829.968	17467
830.107	17292
830.246	17334
830.385	17296
830.524	17155
830.663	17178
830.802	17105
830.941	16911
831.08	16774
831.219	17045
831.357	17029
831.496	17132
831.635	16900
831.774	16889
831.913	16889
832.051	16645
832.19	16706
832.329	16774
832.467	16664
832.606	16565
832.744	16622
832.883	16500
833.022	16577
833.16	16683
833.299	16710
833.437	16481
833.576	16626
833.714	16691
833.852	16618
833.991	16641
834.129	16771
834.267	16763
834.406	16736
834.544	16653
834.682	16713
834.821	16558
834.959	16820
835.097	16554
835.235	16721
835.373	16687
835.511	16618
835.65	16615
835.788	16630
835.926	16466
836.064	16409
836.202	16474
836.34	16645
836.478	16649
836.615	16519
836.753	16710
836.891	16607
837.029	16588
837.167	16497
837.305	16466
837.443	16402
837.58	16303
837.718	16535
837.856	16398
837.993	16413
838.131	16409
838.269	16329
838.406	16421
838.544	16325
838.681	16162
838.819	16169
838.956	16021
839.094	15987
839.231	15968
839.369	16162
839.506	16398
839.643	16265
839.781	15972
839.918	15884
840.055	16006
840.193	15949
840.33	16025
840.467	15956
840.604	15926
840.742	16204
840.879	15941
841.016	15861
841.153	15956
841.29	16055
841.427	16074
841.564	15998
841.701	16010
841.838	16036
841.975	15922
842.112	15911
842.249	15747
842.385	15743
842.522	15941
842.659	15781
842.796	15698
842.933	15869
843.069	15690
843.206	15755
843.343	15865
843.479	15808
843.616	15838
843.752	15587
843.889	15557
844.025	15766
844.162	15473
844.298	15652
844.435	15530
844.571	15549
844.708	15614
844.844	15751
844.98	15747
845.117	15690
845.253	15519
845.389	15420
845.525	15435
845.661	15428
845.798	15348
845.934	15393
846.07	15378
846.206	15435
846.342	15511
846.478	15325
846.614	15173
846.75	15051
846.886	15017
847.022	15169
847.158	15127
847.294	15146
847.429	15218
847.565	15100
847.701	15306
847.837	14883
847.972	14716
848.108	15001
848.244	14956
848.379	14834
848.515	14602
848.65	14746
848.786	14731
848.921	14724
849.057	14804
849.192	14857
849.328	14773
849.463	14746
849.598	14811
849.734	14762
849.869	14507
850.004	14552
850.14	14495
850.275	14526
850.41	14404
850.545	14499
850.68	14400
850.815	14469
850.95	14469
851.085	14636
851.22	14533
851.355	14533
851.49	14522
851.625	14507
851.76	14408
851.895	14461
852.03	14362
852.165	14389
852.299	14541
852.434	14602
852.569	14560
852.703	14587
852.838	14537
852.973	14617
853.107	14648
853.242	14431
853.376	14370
853.511	14362
853.645	14301
853.78	14446
853.914	14317
854.048	14381
854.183	14309
854.317	14438
854.451	14408
854.585	14305
854.72	14317
854.854	14358
854.988	14267
855.122	14298
855.256	14275
855.39	14286
855.524	14499
855.658	14358
855.792	14381
855.926	14480
856.06	14412
856.194	14507
856.327	14328
856.461	14282
856.595	14305
856.729	14290
856.862	14404
856.996	14488
857.13	14419
857.263	14530
857.397	14450
857.53	14366
857.664	14385
857.797	14514
857.931	14507
858.064	14396
858.197	14495
858.331	14381
858.464	14320
858.597	14389
858.731	14393
858.864	14370
858.997	14347
859.13	14438
859.263	14484
859.396	14423
859.529	14328
859.662	14317
859.795	14358
859.928	14480
860.061	14621
860.194	14625
860.327	14450
860.46	14438
860.592	14461
860.725	14499
860.858	14507
860.99	14419
861.123	14351
861.256	14343
861.388	14408
861.521	15039
861.653	14317
861.786	14153
861.918	14275
862.05	14324
862.183	14366
862.315	14419
862.447	14374
862.58	14404
862.712	14248
862.844	14138
862.976	14233
863.108	14275
863.24	14541
863.372	14081
863.504	14149
863.636	14191
863.768	14305
863.9	14183
864.032	14100
864.164	14195
864.296	14218
864.428	14225
864.559	14309
864.691	14218
864.823	14248
864.954	14210
865.086	14126
865.217	14298
865.349	14100
865.48	14065
865.612	14202
865.743	14191
865.875	14157
866.006	14096
866.137	14096
866.269	14233
866.4	14168
866.531	14153
866.662	14020
866.793	14088
866.924	14096
867.055	14176
867.186	14176
867.317	14024
867.448	14096
867.579	14161
867.71	14145
867.841	14062
867.972	14199
868.103	14130
868.233	14161
868.364	14199
868.495	14233
868.625	14366
868.756	14484
868.886	14240
869.017	14400
869.147	14465
869.278	14552
869.408	14423
869.539	14339
869.669	14514
869.799	14507
869.929	14568
870.06	14651
870.19	14686
870.32	14701
870.45	14804
870.58	14853
870.71	14902
870.84	14933
870.97	14876
871.1	14849
871.23	14929
871.36	15062
871.489	14883
871.619	15028
871.749	15005
871.879	15070
872.008	15093
872.138	14929
872.267	14902
872.397	14933
872.526	14842
872.656	14902
872.785	14838
872.915	14986
873.044	15157
873.173	15123
873.303	14979
873.432	15058
873.561	15116
873.69	14994
873.819	15020
873.948	15176
874.077	15001
874.206	15043
874.335	15104
874.464	15146
874.593	15325
874.722	15302
874.851	15412
874.979	15374
875.108	15408
875.237	15344
875.365	15272
875.494	15310
875.623	15393
875.751	15367
875.88	15420
876.008	15485
876.136	15599
876.265	15857
876.393	15854
876.521	15861
876.65	15880
876.778	15766
876.906	15663
877.034	15698
877.162	15778
877.29	15800
877.418	15778
877.546	15846
877.674	15827
877.802	15701
877.93	15804
878.058	15682
878.185	15587
878.313	15774
878.441	15846
878.568	15584
878.696	15739
878.824	15679
878.951	15915
879.079	15960
879.206	16154
879.333	16010
879.461	15850
879.588	15941
879.715	15903
879.842	16078
879.97	15895
880.097	15698
880.224	15557
880.351	15751
880.478	15644
880.605	15523
880.732	15701
880.859	15861
880.986	15549
881.112	15667
881.239	15587
881.366	15370
881.493	15359
881.619	15313
881.746	15329
881.872	15313
881.999	15214
882.125	15241
882.252	15363
882.378	15279
882.505	15473
882.631	15165
882.757	15089
882.883	15218
883.01	15207
883.136	15036
883.262	14933
883.388	15055
883.514	15074
883.64	15241
883.766	15009
883.892	14906
884.018	14918
884.143	15043
884.269	15108
884.395	14872
884.52	14883
884.646	14823
884.772	14796
884.897	14727
885.023	14864
885.148	14967
885.274	14944
885.399	14868
885.524	14777
885.65	14880
885.775	14834
885.9	14727
886.025	14933
886.15	14925
886.275	14792
886.4	14663
886.525	14800
886.65	14743
886.775	14769
886.9	14868
887.025	15005
887.149	14857
887.274	14602
887.399	14594
887.523	14632
887.648	14575
887.773	14602
887.897	14720
888.021	14602
888.146	14663
888.27	14705
888.395	14823
888.519	14655
888.643	14689
888.767	14727
888.891	14549
889.015	14526
889.139	14583
889.263	14446
889.387	14606
889.511	14716
889.635	14610
889.759	14301
889.883	14545
890.006	14533
890.13	14514
890.254	14450
890.377	14427
890.501	14298
890.624	14305
890.748	14324
890.871	14153
890.995	14145
891.118	14187
891.241	14237
891.364	14206
891.488	14317
891.611	14119
891.734	14142
891.857	14214
891.98	14199
892.103	14256
892.226	14278
892.349	14073
892.471	13982
892.594	14123
892.717	14259
892.839	14229
892.962	14298
893.085	14187
893.207	14218
893.33	14107
893.452	14191
893.575	14214
893.697	14142
893.819	14286
893.941	14355
894.064	14370
894.186	14183
894.308	14229
894.43	14298
894.552	14480
894.674	14389
894.796	14103
894.918	14214
895.04	14248
895.161	14328
895.283	14328
895.405	14180
895.526	14305
895.648	14328
895.769	14389
895.891	14400
896.012	14423
896.134	14347
896.255	14412
896.376	14457
896.498	14415
896.619	14465
896.74	14351
896.861	14450
896.982	14602
897.103	14796
897.224	14705
897.345	14583
897.466	14568
897.587	14590
897.708	14727
897.828	14606
897.949	14537
898.07	14480
898.19	14667
898.311	14845
898.431	14663
898.552	14629
898.672	14804
898.792	14845
898.913	14720
899.033	14667
899.153	14465
899.273	14374
899.393	14450
899.513	14587
899.633	14575
899.753	14583
899.873	14503
899.993	14636
900.113	14484
900.232	14621
900.352	14533
900.472	14476
900.591	14305
900.711	14358
900.83	14366
900.95	14473
901.069	14564
901.189	14389
901.308	14191
901.427	14092
901.546	14100
901.665	14183
901.784	14081
901.904	13978
902.023	13970
902.141	13799
902.26	13715
902.379	13742
902.498	13685
902.617	13540
902.735	13753
902.854	13605
902.973	13548
903.091	13350
903.21	13324
903.328	13354
903.446	13403
903.565	13240
903.683	13244
903.801	13072
903.919	13206
904.038	13251
904.156	13118
904.274	13129
904.392	12966
904.51	12954
904.627	13038
904.745	13057
904.863	13057
904.981	12886
905.098	12760
905.216	12783
905.334	12783
905.451	12741
905.569	12715
905.686	12814
905.803	12688
905.921	12582
906.038	12673
906.155	12585
906.272	12471
906.389	12452
906.506	12388
906.623	12334
906.74	12285
906.857	12186
906.974	12224
907.091	12308
907.208	12464
907.324	12346
907.441	12159
907.557	12098
907.674	12125
907.79	12057
907.907	12140
908.023	12072
908.139	12091
908.256	11954
908.372	12022
908.488	11958
908.604	11802
908.72	11775
908.836	11809
908.952	11809
909.068	11798
909.184	11920
909.3	11741
909.415	11927
909.531	11783
909.647	11623
909.762	11604
909.878	11589
909.993	11627
910.108	11554
910.224	11554
910.339	11528
910.454	11520
910.57	11429
910.685	11379
910.8	11684
910.915	11634
911.03	11448
911.145	11364
911.259	11273
911.374	11360
911.489	11231
911.604	11261
911.718	11083
911.833	11052
911.947	10980
912.062	10930
912.176	11060
912.291	11064
912.405	11094
912.519	11326
912.633	11197
912.748	11140
912.862	11071
912.976	10919
913.09	10820
913.204	10866
913.318	10957
913.431	10957
913.545	11056
913.659	11083
913.772	10938
913.886	10892
914	10824
914.113	10866
914.226	11105
914.34	10885
914.453	10721
914.566	10866
914.68	10809
914.793	10748
914.906	10523
915.019	10527
915.132	10516
915.245	10489
915.358	10519
915.47	10584
915.583	10554
915.696	10596
915.809	10702
915.921	10755
916.034	10550
916.146	10493
916.259	10440
916.371	10664
916.483	10588
916.595	10493
916.708	10554
916.82	10535
916.932	10428
917.044	10504
917.156	10489
917.268	10371
917.38	10303
917.491	10413
917.603	10432
917.715	10508
917.826	10436
917.938	10405
918.049	10261
918.161	10379
918.272	10504
918.384	10500
918.495	10478
918.606	10188
918.717	10166
918.828	10299
918.939	10265
919.05	10211
919.161	10227
919.272	10036
919.383	10105
919.494	10265
919.604	10489
919.715	10306
919.826	10162
919.936	10352
920.047	10306
920.157	10367
920.267	10542
920.378	10314
920.488	10303
920.598	10489
920.708	10691
920.818	10489
920.928	10459
921.038	10603
921.148	10630
921.258	10253
921.368	10291
921.477	10105
921.587	10135
921.697	9979
921.806	10093
921.916	9960
922.025	9907
922.134	9861
922.244	9778
922.353	9873
922.462	9743
922.571	9679
922.68	9625
922.789	9504
922.898	9580
923.007	9496
923.116	9618
923.224	9519
923.333	9496
923.442	9378
923.55	9386
923.659	9458
923.767	9538
923.876	9306
923.984	9428
924.092	9340
924.201	9462
924.309	9291
924.417	9428
924.525	9382
924.633	9344
924.741	10303
924.849	9127
924.956	9283
925.064	9150
925.172	9180
925.279	9142
925.387	9218
925.494	9222
925.602	9287
925.709	9245
925.816	9097
925.924	9127
926.031	9226
926.138	9169
926.245	9157
926.352	9173
926.459	9294
926.566	9325
926.673	9161
926.779	9146
926.886	9085
926.993	8902
927.099	8952
927.206	8830
927.312	8815
927.419	9036
927.525	8883
927.631	9009
927.737	8868
927.843	8769
927.95	8743
928.056	8815
928.162	8868
928.267	8887
928.373	9447
928.479	8910
928.585	8731
928.69	8815
928.796	8823
928.901	8735
929.007	8663
929.112	8788
929.218	8724
929.323	8674
929.428	8655
929.533	8800
929.638	8545
929.743	8583
929.848	8648
929.953	8636
930.058	8526
930.163	8400
930.267	8389
930.372	8492
930.477	8381
930.581	8701
930.685	8461
930.79	8332
930.894	8393
930.998	8282
931.103	8514
931.207	8149
931.311	8084
931.415	7978
931.519	7932
931.623	7841
