Data from test_V78500241_1875.txt Node
Date: Fri Mar 25 14:46:46 CST 2022
User: usil
Spectrometer: V785-0024
Trigger mode: 0
Integration Time (sec): 4.000000E-1
Scans to average: 1
Nonlinearity correction enabled: false
Boxcar width: 0
Storing dark spectrum: false
XAxis mode: Wavelengths
Number of Pixels in Spectrum: 1024
>>>>>Begin Spectral Data<<<<<
801.071	22166
801.214	21930
801.356	21778
801.499	21633
801.641	21599
801.783	21435
801.926	21469
802.068	21462
802.211	21321
802.353	21370
802.496	20948
802.638	20994
802.78	20956
802.923	21043
803.065	20895
803.208	20891
803.35	20956
803.492	21039
803.635	20925
803.777	20796
803.919	20948
804.061	21203
804.204	20849
804.346	20785
804.488	20720
804.63	20716
804.773	20545
804.915	20697
805.057	20792
805.199	20758
805.341	20902
805.483	20937
805.626	20914
805.768	20739
805.91	20910
806.052	20754
806.194	20708
806.336	20990
806.478	20716
806.62	20686
806.762	20769
806.904	20921
807.046	21245
807.188	21009
807.33	21051
807.472	21154
807.614	21055
807.756	21009
807.898	20811
808.04	20857
808.182	20708
808.324	20842
808.465	20891
808.607	21001
808.749	21104
808.891	21108
809.033	21344
809.174	21096
809.316	21195
809.458	21112
809.6	21039
809.741	21135
809.883	21260
810.025	21298
810.166	21275
810.308	21237
810.45	21351
810.591	21135
810.733	21142
810.875	20971
811.016	20800
811.158	20804
811.299	20963
811.441	21085
811.582	20937
811.724	21005
811.865	20845
812.007	20830
812.148	20777
812.29	20918
812.431	21017
812.573	21317
812.714	21294
812.855	21378
812.997	21549
813.138	21519
813.279	21447
813.421	21359
813.562	21291
813.703	21161
813.845	21081
813.986	20792
814.127	20549
814.268	20476
814.41	20507
814.551	20507
814.692	20541
814.833	20328
814.974	20244
815.115	20454
815.256	20370
815.397	20351
815.539	20256
815.68	20161
815.821	20225
815.962	20256
816.103	20172
816.244	20016
816.385	19944
816.526	19978
816.666	19833
816.807	19544
816.948	19658
817.089	19734
817.23	19685
817.371	19620
817.512	19613
817.653	19480
817.793	19499
817.934	19514
818.075	19639
818.216	19632
818.356	19514
818.497	19396
818.638	19289
818.778	19335
818.919	19293
819.06	19339
819.2	19407
819.341	19441
819.481	19438
819.622	19620
819.762	19776
819.903	19647
820.043	19689
820.184	19597
820.324	19495
820.465	19578
820.605	19525
820.746	19502
820.886	19346
821.026	19499
821.167	19487
821.307	19518
821.447	19384
821.588	19335
821.728	19297
821.868	19072
822.008	18973
822.149	18973
822.289	18962
822.429	18711
822.569	18620
822.709	18646
822.849	18551
822.99	18414
823.13	18513
823.27	18323
823.41	18315
823.55	18243
823.69	18239
823.83	18254
823.97	18167
824.11	18026
824.25	17973
824.389	17980
824.529	18110
824.669	17939
824.809	18251
824.949	18155
825.089	17988
825.228	18098
825.368	17760
825.508	17870
825.648	17920
825.787	17870
825.927	17904
826.067	17821
826.206	17817
826.346	17866
826.485	17729
826.625	17771
826.765	17904
826.904	17824
827.044	17512
827.183	17512
827.323	17543
827.462	17543
827.601	17600
827.741	17387
827.88	17520
828.02	17330
828.159	17421
828.298	17463
828.437	17581
828.577	17459
828.716	17676
828.855	17478
828.994	17311
829.134	17235
829.273	17368
829.412	17223
829.551	17166
829.69	17185
829.829	17258
829.968	17383
830.107	17376
830.246	17341
830.385	17166
830.524	17231
830.663	17143
830.802	16980
830.941	16984
831.08	16778
831.219	16881
831.357	16930
831.496	16987
831.635	16835
831.774	16774
831.913	16786
832.051	16641
832.19	16577
832.329	16729
832.467	16641
832.606	16432
832.744	16538
832.883	16626
833.022	16592
833.16	16660
833.299	16641
833.437	16519
833.576	16717
833.714	16634
833.852	16687
833.991	16694
834.129	16736
834.267	16618
834.406	16649
834.544	16656
834.682	16588
834.821	16721
834.959	16797
835.097	16584
835.235	16759
835.373	16691
835.511	16733
835.65	16645
835.788	16611
835.926	16367
836.064	16341
836.202	16386
836.34	16451
836.478	16649
836.615	16478
836.753	16675
836.891	16664
837.029	16550
837.167	16512
837.305	16447
837.443	16512
837.58	16382
837.718	16508
837.856	16443
837.993	16360
838.131	16428
838.269	16287
838.406	16367
838.544	16314
838.681	16143
838.819	16082
838.956	15994
839.094	15983
839.231	16010
839.369	16162
839.506	16424
839.643	16207
839.781	16010
839.918	15884
840.055	15968
840.193	15907
840.33	16025
840.467	15949
840.604	15987
840.742	16169
840.879	15861
841.016	15884
841.153	15789
841.29	16051
841.427	15983
841.564	16059
841.701	16029
841.838	16063
841.975	15968
842.112	15804
842.249	15755
842.385	15739
842.522	15892
842.659	15838
842.796	15751
842.933	15793
843.069	15705
843.206	15804
843.343	15873
843.479	15713
843.616	15713
843.752	15622
843.889	15561
844.025	15705
844.162	15534
844.298	15656
844.435	15458
844.571	15462
844.708	15713
844.844	15724
844.98	15629
845.117	15690
845.253	15435
845.389	15454
845.525	15412
845.661	15363
845.798	15298
845.934	15485
846.07	15348
846.206	15359
846.342	15443
846.478	15321
846.614	15180
846.75	15055
846.886	15085
847.022	15222
847.158	15070
847.294	15116
847.429	15165
847.565	15116
847.701	15214
847.837	14857
847.972	14842
848.108	15032
848.244	14872
848.379	14811
848.515	14750
848.65	14621
848.786	14708
848.921	14727
849.057	14864
849.192	14716
849.328	14716
849.463	14750
849.598	14659
849.734	14663
849.869	14613
850.004	14495
850.14	14514
850.275	14533
850.41	14434
850.545	14514
850.68	14362
850.815	14431
850.95	14434
851.085	14640
851.22	14564
851.355	14404
851.49	14442
851.625	14450
851.76	14461
851.895	14427
852.03	14343
852.165	14423
852.299	14415
852.434	14552
852.569	14499
852.703	14450
852.838	14488
852.973	14674
853.107	14552
853.242	14526
853.376	14336
853.511	14336
853.645	14358
853.78	14347
853.914	14412
854.048	14298
854.183	14370
854.317	14438
854.451	14488
854.585	14332
854.72	14381
854.854	14381
854.988	14221
855.122	14366
855.256	14191
855.39	14278
855.524	14336
855.658	14370
855.792	14408
855.926	14263
856.06	14450
856.194	14526
856.327	14343
856.461	14294
856.595	14237
856.729	14324
856.862	14351
856.996	14324
857.13	14488
857.263	14427
857.397	14488
857.53	14343
857.664	14396
857.797	14503
857.931	14450
858.064	14339
858.197	14381
858.331	14336
858.464	14305
858.597	14214
858.731	14343
858.864	14370
858.997	14267
859.13	14419
859.263	14381
859.396	14396
859.529	14366
859.662	14336
859.795	14362
859.928	14370
860.061	14461
860.194	14473
860.327	14347
860.46	14267
860.592	14461
860.725	14564
860.858	14389
860.99	14419
861.123	14286
861.256	14404
861.388	14404
861.521	14960
861.653	14195
861.786	14138
861.918	14267
862.05	14286
862.183	14309
862.315	14298
862.447	14351
862.58	14271
862.712	14145
862.844	14096
862.976	14240
863.108	14157
863.24	14492
863.372	13989
863.504	14073
863.636	14103
863.768	14206
863.9	14149
864.032	14058
864.164	14081
864.296	14050
864.428	14210
864.559	14225
864.691	14187
864.823	14180
864.954	14142
865.086	14244
865.217	14081
865.349	14058
865.48	14077
865.612	14081
865.743	14267
865.875	14103
866.006	14092
866.137	14180
866.269	14134
866.4	14149
866.531	14046
866.662	14024
866.793	14039
866.924	14084
867.055	14043
867.186	14088
867.317	14046
867.448	14020
867.579	14027
867.71	14096
867.841	13993
867.972	14126
868.103	14069
868.233	14107
868.364	14115
868.495	14145
868.625	14199
868.756	14415
868.886	14252
869.017	14339
869.147	14427
869.278	14484
869.408	14313
869.539	14434
869.669	14438
869.799	14366
869.929	14492
870.06	14503
870.19	14644
870.32	14777
870.45	14708
870.58	14781
870.71	14944
870.84	14861
870.97	14792
871.1	14739
871.23	14956
871.36	14914
871.489	14861
871.619	14921
871.749	14956
871.879	15020
872.008	15127
872.138	14979
872.267	14994
872.397	14819
872.526	14689
872.656	14883
872.785	14758
872.915	14990
873.044	15100
873.173	15077
873.303	15089
873.432	14960
873.561	15150
873.69	15039
873.819	15077
873.948	15116
874.077	14941
874.206	14971
874.335	14982
874.464	15180
874.593	15249
874.722	15245
874.851	15355
874.979	15275
875.108	15294
875.237	15230
875.365	15237
875.494	15283
875.623	15450
875.751	15306
875.88	15287
876.008	15469
876.136	15606
876.265	15785
876.393	15888
876.521	15793
876.65	15751
876.778	15751
876.906	15675
877.034	15610
877.162	15838
877.29	15686
877.418	15789
877.546	15751
877.674	15774
877.802	15724
877.93	15793
878.058	15732
878.185	15633
878.313	15682
878.441	15755
878.568	15587
878.696	15701
878.824	15747
878.951	15793
879.079	15994
879.206	16021
879.333	15911
879.461	15705
879.588	15869
879.715	15869
879.842	16029
879.97	15720
880.097	15542
880.224	15599
880.351	15580
880.478	15618
880.605	15485
880.732	15542
880.859	15857
880.986	15648
881.112	15614
881.239	15447
881.366	15397
881.493	15275
881.619	15199
881.746	15294
881.872	15264
881.999	15203
882.125	15154
882.252	15294
882.378	15264
882.505	15351
882.631	15230
882.757	15077
882.883	15066
883.01	15039
883.136	15077
883.262	14921
883.388	14921
883.514	15097
883.64	15116
883.766	15017
883.892	14883
884.018	15013
884.143	15089
884.269	15138
884.395	14826
884.52	14826
884.646	14758
884.772	14701
884.897	14674
885.023	14826
885.148	14864
885.274	14861
885.399	14883
885.524	14765
885.65	14807
885.775	14823
885.9	14716
886.025	14906
886.15	14849
886.275	14727
886.4	14678
886.525	14701
886.65	14678
886.775	14632
886.9	14895
887.025	14967
887.149	14823
887.274	14629
887.399	14575
887.523	14511
887.648	14545
887.773	14545
887.897	14720
888.021	14705
888.146	14598
888.27	14758
888.395	14705
888.519	14590
888.643	14594
888.767	14674
888.891	14606
889.015	14533
889.139	14514
889.263	14465
889.387	14503
889.511	14712
889.635	14541
889.759	14400
889.883	14488
890.006	14450
890.13	14530
890.254	14313
890.377	14434
890.501	14199
890.624	14229
890.748	14301
890.871	14153
890.995	14168
891.118	14123
891.241	14168
891.364	14191
891.488	14237
891.611	14130
891.734	14161
891.857	14221
891.98	14180
892.103	14298
892.226	14221
892.349	14180
892.471	14005
892.594	14126
892.717	14145
892.839	14062
892.962	14206
893.085	14221
893.207	14191
893.33	14054
893.452	14126
893.575	14259
893.697	14081
893.819	14377
893.941	14332
894.064	14259
894.186	14084
894.308	14183
894.43	14206
894.552	14385
894.674	14347
894.796	14199
894.918	14214
895.04	14271
895.161	14324
895.283	14317
895.405	14248
895.526	14202
895.648	14320
895.769	14267
895.891	14305
896.012	14419
896.134	14450
896.255	14351
896.376	14355
896.498	14423
896.619	14332
896.74	14282
896.861	14404
896.982	14705
897.103	14876
897.224	14613
897.345	14541
897.466	14526
897.587	14514
897.708	14663
897.828	14511
897.949	14549
898.07	14389
898.19	14594
898.311	14750
898.431	14587
898.552	14640
898.672	14807
898.792	14724
898.913	14644
899.033	14579
899.153	14404
899.273	14374
899.393	14533
899.513	14495
899.633	14533
899.753	14514
899.873	14514
899.993	14644
900.113	14549
900.232	14636
900.352	14537
900.472	14438
900.591	14473
900.711	14450
900.83	14347
900.95	14560
901.069	14454
901.189	14355
901.308	14054
901.427	14012
901.546	14073
901.665	14016
901.784	14020
901.904	13955
902.023	13803
902.141	13708
902.26	13651
902.379	13677
902.498	13628
902.617	13510
902.735	13704
902.854	13575
902.973	13499
903.091	13388
903.21	13343
903.328	13449
903.446	13255
903.565	13232
903.683	13137
903.801	13084
903.919	13164
904.038	13160
904.156	13050
904.274	13126
904.392	13118
904.51	12958
904.627	13042
904.745	13008
904.863	13053
904.981	12848
905.098	12700
905.216	12669
905.334	12673
905.451	12707
905.569	12669
905.686	12688
905.803	12719
905.921	12498
906.038	12711
906.155	12460
906.272	12433
906.389	12483
906.506	12334
906.623	12338
906.74	12281
906.857	12114
906.974	12281
907.091	12456
907.208	12494
907.324	12327
907.441	12220
907.557	12083
907.674	12178
907.79	12030
907.907	12041
908.023	12106
908.139	12041
908.256	11939
908.372	11977
908.488	11893
908.604	11790
908.72	11684
908.836	11828
908.952	11786
909.068	11889
909.184	11916
909.3	11745
909.415	11851
909.531	11756
909.647	11589
909.762	11562
909.878	11581
909.993	11535
910.108	11547
910.224	11474
910.339	11619
910.454	11512
910.57	11463
910.685	11349
910.8	11718
910.915	11592
911.03	11417
911.145	11296
911.259	11258
911.374	11242
911.489	11204
911.604	11181
911.718	11094
911.833	11113
911.947	10915
912.062	10828
912.176	10999
912.291	11124
912.405	10995
912.519	11185
912.633	11273
912.748	11006
912.862	11079
912.976	10919
913.09	10733
913.204	10923
913.318	10828
913.431	10976
913.545	11006
913.659	10991
913.772	10972
913.886	10801
914	10805
914.113	10904
914.226	10919
914.34	10877
914.453	10748
914.566	10934
914.68	10790
914.793	10683
914.906	10588
915.019	10504
915.132	10462
915.245	10512
915.358	10607
915.47	10523
915.583	10512
915.696	10535
915.809	10675
915.921	10592
916.034	10493
916.146	10443
916.259	10440
916.371	10580
916.483	10558
916.595	10402
916.708	10493
916.82	10481
916.932	10409
917.044	10413
917.156	10390
917.268	10303
917.38	10337
917.491	10287
917.603	10344
917.715	10462
917.826	10436
917.938	10299
918.049	10295
918.161	10390
918.272	10531
918.384	10504
918.495	10432
918.606	10295
918.717	10173
918.828	10306
918.939	10246
919.05	10143
919.161	10272
919.272	10017
919.383	10044
919.494	10246
919.604	10379
919.715	10261
919.826	10219
919.936	10291
920.047	10276
920.157	10299
920.267	10436
920.378	10310
920.488	10200
920.598	10436
920.708	10637
920.818	10386
920.928	10455
921.038	10626
921.148	10622
921.258	10303
921.368	10242
921.477	10109
921.587	10051
921.697	9953
921.806	10097
921.916	9987
922.025	9903
922.134	9857
922.244	9819
922.353	9831
922.462	9740
922.571	9694
922.68	9416
922.789	9450
922.898	9496
923.007	9397
923.116	9507
923.224	9492
923.333	9492
923.442	9378
923.55	9348
923.659	9340
923.767	9450
923.876	9367
923.984	9439
924.092	9283
924.201	9370
924.309	9370
924.417	9374
924.525	9279
924.633	9302
924.741	10287
924.849	9123
924.956	9298
925.064	9199
925.172	9138
925.279	9104
925.387	9195
925.494	9176
925.602	9268
925.709	9275
925.816	9116
925.924	9154
926.031	9230
926.138	9112
926.245	9203
926.352	9032
926.459	9237
926.566	9249
926.673	9157
926.779	9047
926.886	8982
926.993	8914
927.099	8853
927.206	8796
927.312	8804
927.419	8895
927.525	8906
927.631	8918
927.737	8773
927.843	8845
927.95	8701
928.056	8686
928.162	8731
928.267	8769
928.373	9340
928.479	8815
928.585	8697
928.69	8731
928.796	8754
928.901	8648
929.007	8480
929.112	8575
929.218	8720
929.323	8610
929.428	8564
929.533	8701
929.638	8514
929.743	8594
929.848	8594
929.953	8549
930.058	8518
930.163	8301
930.267	8339
930.372	8507
930.477	8320
930.581	8537
930.685	8450
930.79	8286
930.894	8343
930.998	8317
931.103	8419
931.207	8126
931.311	8058
931.415	7986
931.519	7753
931.623	7788
