Data from test_V78500241_674.txt Node
Date: Fri Mar 25 14:38:24 CST 2022
User: usil
Spectrometer: V785-0024
Trigger mode: 0
Integration Time (sec): 4.000000E-1
Scans to average: 1
Nonlinearity correction enabled: false
Boxcar width: 0
Storing dark spectrum: false
XAxis mode: Wavelengths
Number of Pixels in Spectrum: 1024
>>>>>Begin Spectral Data<<<<<
801.071	28196
801.214	27926
801.356	27797
801.499	27739
801.641	27530
801.783	27511
801.926	27663
802.068	27462
802.211	27294
802.353	27188
802.496	27028
802.638	26899
802.78	26975
802.923	26956
803.065	27032
803.208	26944
803.35	27028
803.492	27184
803.635	27203
803.777	27085
803.919	27279
804.061	27633
804.204	27382
804.346	27150
804.488	27363
804.63	27264
804.773	27169
804.915	27397
805.057	27477
805.199	27359
805.341	27580
805.483	27759
805.626	27816
805.768	27895
805.91	27907
806.052	28093
806.194	28090
806.336	28371
806.478	28592
806.62	28569
806.762	29064
806.904	29402
807.046	29882
807.188	30182
807.33	30479
807.472	31255
807.614	31784
807.756	32834
807.898	33755
808.04	35452
808.182	37510
808.324	39987
808.465	43095
808.607	46150
808.749	49091
808.891	50674
809.033	51001
809.174	49228
809.316	46538
809.458	43004
809.6	39557
809.741	36981
809.883	34748
810.025	33211
810.166	32297
810.308	31491
810.45	30696
810.591	30281
810.733	29752
810.875	29277
811.016	29018
811.158	28729
811.299	28793
811.441	28664
811.582	28512
811.724	28363
811.865	28093
812.007	28090
812.148	28128
812.29	28036
812.431	27926
812.573	28059
812.714	28078
812.855	28086
812.997	28219
813.138	28363
813.279	28226
813.421	28086
813.562	27956
813.703	27850
813.845	27675
813.986	27195
814.127	27116
814.268	26826
814.41	26899
814.551	26746
814.692	26777
814.833	26655
814.974	26720
815.115	26682
815.256	26678
815.397	26457
815.539	26530
815.68	26328
815.821	26267
815.962	26385
816.103	26229
816.244	26145
816.385	26126
816.526	25982
816.666	25947
816.807	25712
816.948	25715
817.089	25807
817.23	25696
817.371	25708
817.512	25689
817.653	25537
817.793	25430
817.934	25590
818.075	25616
818.216	25670
818.356	25495
818.497	25453
818.638	25190
818.778	25225
818.919	25244
819.06	25377
819.2	25400
819.341	25529
819.481	25476
819.622	25712
819.762	25715
819.903	25556
820.043	25559
820.184	25502
820.324	25430
820.465	25464
820.605	25457
820.746	25301
820.886	25194
821.026	25411
821.167	25327
821.307	25400
821.447	25244
821.588	25053
821.728	25099
821.868	24791
822.008	24734
822.149	24597
822.289	24654
822.429	24350
822.569	24247
822.709	24235
822.849	24064
822.99	24262
823.13	24060
823.27	24026
823.41	23977
823.55	23828
823.69	23878
823.83	23771
823.97	23805
824.11	23668
824.25	23551
824.389	23615
824.529	23684
824.669	23611
824.809	23832
824.949	23665
825.089	23676
825.228	23653
825.368	23341
825.508	23433
825.648	23410
825.787	23471
825.927	23440
826.067	23421
826.206	23364
826.346	23440
826.485	23421
826.625	23341
826.765	23554
826.904	23512
827.044	23231
827.183	23121
827.323	23064
827.462	23185
827.601	23113
827.741	23147
827.88	23079
828.02	23105
828.159	22995
828.298	22923
828.437	23109
828.577	23048
828.716	23174
828.855	23003
828.994	22721
829.134	22736
829.273	22812
829.412	22641
829.551	22691
829.69	22683
829.829	22725
829.968	22793
830.107	22797
830.246	22816
830.385	22733
830.524	22668
830.663	22649
830.802	22497
830.941	22128
831.08	22367
831.219	22489
831.357	22291
831.496	22603
831.635	22394
831.774	22226
831.913	22253
832.051	22093
832.19	22147
832.329	22105
832.467	22219
832.606	22097
832.744	22173
832.883	22204
833.022	22169
833.16	22455
833.299	22523
833.437	22649
833.576	22759
833.714	22877
833.852	22972
833.991	23185
834.129	23349
834.267	23242
834.406	23136
834.544	23200
834.682	23044
834.821	22949
834.959	22934
835.097	22531
835.235	22603
835.373	22504
835.511	22516
835.65	22291
835.788	22204
835.926	21907
836.064	21934
836.202	21911
836.34	21968
836.478	22074
836.615	21861
836.753	21808
836.891	21854
837.029	21850
837.167	21724
837.305	21736
837.443	21797
837.58	21743
837.718	21724
837.856	21652
837.993	21580
838.131	21625
838.269	21504
838.406	21656
838.544	21500
838.681	21329
838.819	21317
838.956	21062
839.094	21116
839.231	21062
839.369	21100
839.506	21462
839.643	21359
839.781	21085
839.918	21047
840.055	21108
840.193	20963
840.33	20941
840.467	21096
840.604	21100
840.742	21256
840.879	20849
841.016	20960
841.153	20895
841.29	21173
841.427	20872
841.564	21013
841.701	20914
841.838	20990
841.975	20853
842.112	20952
842.249	20853
842.385	20765
842.522	21085
842.659	20906
842.796	20883
842.933	20872
843.069	20834
843.206	20952
843.343	21055
843.479	20895
843.616	21032
843.752	20769
843.889	20853
844.025	20990
844.162	20963
844.298	21233
844.435	21176
844.571	21420
844.708	21766
844.844	22268
844.98	22641
845.117	23239
845.253	24182
845.389	26065
845.525	29573
845.661	35524
845.798	42216
845.934	47398
846.07	49278
846.206	47646
846.342	42829
846.478	36053
846.614	30426
846.75	26583
846.886	24369
847.022	23056
847.158	21991
847.294	21530
847.429	21173
847.565	20921
847.701	20975
847.837	20374
847.972	20221
848.108	20233
848.244	20161
848.379	20012
848.515	19909
848.65	19913
848.786	19784
848.921	19753
849.057	19894
849.192	19791
849.328	19757
849.463	19693
849.598	19662
849.734	19639
849.869	19552
850.004	19400
850.14	19502
850.275	19453
850.41	19327
850.545	19434
850.68	19400
850.815	19468
850.95	19419
851.085	19670
851.22	19563
851.355	19244
851.49	19426
851.625	19411
851.76	19377
851.895	19350
852.03	19312
852.165	19468
852.299	19441
852.434	19468
852.569	19407
852.703	19483
852.838	19552
852.973	19658
853.107	19674
853.242	19506
853.376	19521
853.511	19411
853.645	19460
853.78	19719
853.914	19559
854.048	19601
854.183	19597
854.317	19723
854.451	19856
854.585	19544
854.72	19537
854.854	19677
854.988	19483
855.122	19605
855.256	19331
855.39	19358
855.524	19544
855.658	19537
855.792	19441
855.926	19407
856.06	19365
856.194	19403
856.327	19206
856.461	19187
856.595	19152
856.729	19183
856.862	19346
856.996	19316
857.13	19266
857.263	19415
857.397	19358
857.53	19118
857.664	19247
857.797	19339
857.931	19236
858.064	19183
858.197	19244
858.331	19099
858.464	19065
858.597	19004
858.731	19015
858.864	19034
858.997	19065
859.13	19232
859.263	19072
859.396	19190
859.529	19031
859.662	19012
859.795	19095
859.928	19103
860.061	19198
860.194	19209
860.327	19061
860.46	19069
860.592	19259
860.725	19236
860.858	19133
860.99	19038
861.123	18962
861.256	19019
861.388	19088
861.521	19685
861.653	18829
861.786	18795
861.918	18848
862.05	18924
862.183	18958
862.315	19046
862.447	19038
862.58	18894
862.712	18749
862.844	18722
862.976	18848
863.108	18749
863.24	19110
863.372	18738
863.504	18734
863.636	18722
863.768	18757
863.9	18703
864.032	18631
864.164	18707
864.296	18787
864.428	18776
864.559	18722
864.691	18700
864.823	18665
864.954	18795
865.086	18783
865.217	18540
865.349	18525
865.48	18635
865.612	18566
865.743	18840
865.875	18715
866.006	18635
866.137	18597
866.269	18654
866.4	18589
866.531	18578
866.662	18502
866.793	18555
866.924	18570
867.055	18559
867.186	18601
867.317	18525
867.448	18521
867.579	18532
867.71	18410
867.841	18521
867.972	18494
868.103	18650
868.233	18623
868.364	18593
868.495	18650
868.625	18817
868.756	18913
868.886	18631
869.017	18757
869.147	18958
869.278	18958
869.408	18833
869.539	18821
869.669	19000
869.799	18833
869.929	18890
870.06	18916
870.19	19194
870.32	19217
870.45	19099
870.58	19156
870.71	19396
870.84	19434
870.97	19263
871.1	19259
871.23	19426
871.36	19457
871.489	19426
871.619	19499
871.749	19457
871.879	19499
872.008	19712
872.138	19453
872.267	19571
872.397	19422
872.526	19559
872.656	19392
872.785	19563
872.915	19590
873.044	19788
873.173	19780
873.303	19719
873.432	19761
873.561	19780
873.69	19788
873.819	19849
873.948	19856
874.077	19753
874.206	19833
874.335	19894
874.464	20142
874.593	20229
874.722	20172
874.851	20259
874.979	20263
875.108	20404
875.237	20301
875.365	20278
875.494	20377
875.623	20530
875.751	20514
875.88	20442
876.008	20686
876.136	20807
876.265	21199
876.393	21302
876.521	21306
876.65	21310
876.778	21249
876.906	21424
877.034	21393
877.162	21443
877.29	21466
877.418	21644
877.546	21812
877.674	21690
877.802	22006
877.93	22078
878.058	22192
878.185	22386
878.313	22580
878.441	23121
878.568	23261
878.696	23942
878.824	24772
878.951	25746
879.079	27401
879.206	29395
879.333	31674
879.461	33203
879.588	34303
879.715	34325
879.842	33660
879.97	31605
880.097	29478
880.224	27728
880.351	26705
880.478	25887
880.605	25179
880.732	24867
880.859	24791
880.986	24319
881.112	24410
881.239	24053
881.366	23942
881.493	24003
881.619	23859
881.746	23813
881.872	23901
881.999	23897
882.125	23878
882.252	24068
882.378	24018
882.505	24197
882.631	24072
882.757	23893
882.883	23942
883.01	23866
883.136	23927
883.262	23707
883.388	23668
883.514	24174
883.64	23920
883.766	23821
883.892	23566
884.018	23592
884.143	23836
884.269	23950
884.395	23657
884.52	23638
884.646	23634
884.772	23490
884.897	23455
885.023	23657
885.148	23592
885.274	23748
885.399	23531
885.524	23383
885.65	23277
885.775	23025
885.9	23010
886.025	22984
886.15	22774
886.275	22607
886.4	22398
886.525	22139
886.65	22013
886.775	21911
886.9	22063
887.025	22055
887.149	21781
887.274	21458
887.399	21374
887.523	21287
887.648	21142
887.773	20948
887.897	21070
888.021	20967
888.146	20864
888.27	20883
888.395	20830
888.519	20819
888.643	20724
888.767	20697
888.891	20560
889.015	20457
889.139	20381
889.263	20324
889.387	20317
889.511	20408
889.635	20225
889.759	20168
889.883	20142
890.006	20054
890.13	20142
890.254	19982
890.377	19921
890.501	19780
890.624	19746
890.748	19715
890.871	19605
890.995	19457
891.118	19400
891.241	19434
891.364	19369
891.488	19491
891.611	19278
891.734	19384
891.857	19369
891.98	19392
892.103	19274
892.226	19289
892.349	19133
892.471	18993
892.594	19095
892.717	19141
892.839	19057
892.962	19015
893.085	19118
893.207	18973
893.33	18783
893.452	18829
893.575	18901
893.697	18764
893.819	19004
893.941	18939
894.064	18916
894.186	18521
894.308	18620
894.43	18806
894.552	18825
894.674	18814
894.796	18555
894.918	18555
895.04	18673
895.161	18642
895.283	18642
895.405	18517
895.526	18555
895.648	18555
895.769	18536
895.891	18582
896.012	18692
896.134	18555
896.255	18528
896.376	18490
896.498	18593
896.619	18494
896.74	18483
896.861	18521
896.982	18749
897.103	18886
897.224	18688
897.345	18745
897.466	18517
897.587	18730
897.708	18833
897.828	18673
897.949	18467
898.07	18464
898.19	18433
898.311	18661
898.431	18688
898.552	18639
898.672	18741
898.792	18707
898.913	18719
899.033	18525
899.153	18517
899.273	18380
899.393	18460
899.513	18448
899.633	18418
899.753	18448
899.873	18334
899.993	18456
900.113	18369
900.232	18330
900.352	18262
900.472	18254
900.591	18167
900.711	18289
900.83	18144
900.95	18213
901.069	18311
901.189	18083
901.308	17878
901.427	17737
901.546	17790
901.665	17798
901.784	17843
901.904	17497
902.023	17436
902.141	17246
902.26	17315
902.379	17303
902.498	17239
902.617	17174
902.735	17185
902.854	17178
902.973	17010
903.091	16858
903.21	16934
903.328	16839
903.446	16809
903.565	16660
903.683	16535
903.801	16516
903.919	16596
904.038	16550
904.156	16417
904.274	16436
904.392	16325
904.51	16337
904.627	16325
904.745	16527
904.863	16382
904.981	16097
905.098	16071
905.216	15998
905.334	16040
905.451	15983
905.569	15956
905.686	15975
905.803	15934
905.921	15838
906.038	15739
906.155	15857
906.272	15778
906.389	15747
906.506	15519
906.623	15526
906.74	15443
906.857	15367
906.974	15504
907.091	15584
907.208	15652
907.324	15488
907.441	15424
907.557	15241
907.674	15211
907.79	15081
907.907	15180
908.023	15176
908.139	15176
908.256	15176
908.372	15184
908.488	15131
908.604	15009
908.72	14891
908.836	14975
908.952	14929
909.068	14979
909.184	15036
909.3	14956
909.415	14872
909.531	14853
909.647	14663
909.762	14735
909.878	14610
909.993	14655
910.108	14655
910.224	14632
910.339	14610
910.454	14598
910.57	14568
910.685	14419
910.8	14773
910.915	14621
911.03	14476
911.145	14324
911.259	14332
911.374	14370
911.489	14332
911.604	14168
911.718	14145
911.833	14024
911.947	13906
912.062	13830
912.176	13852
912.291	13967
912.405	14001
912.519	14115
912.633	14221
912.748	14073
912.862	14020
912.976	13845
913.09	13719
913.204	13830
913.318	13826
913.431	13917
913.545	13887
913.659	13936
913.772	13894
913.886	13708
914	13643
914.113	13719
914.226	13970
914.34	13708
914.453	13677
914.566	13723
914.68	13643
914.793	13578
914.906	13400
915.019	13460
915.132	13301
915.245	13339
915.358	13415
915.47	13419
915.583	13434
915.696	13407
915.809	13472
915.921	13487
916.034	13354
916.146	13343
916.259	13244
916.371	13464
916.483	13297
916.595	13419
916.708	13358
916.82	13384
916.932	13419
917.044	13244
917.156	13198
917.268	13225
917.38	13072
917.491	13152
917.603	13091
917.715	13129
917.826	13129
917.938	13065
918.049	12966
918.161	13164
918.272	13156
918.384	13164
918.495	13008
918.606	12875
918.717	12806
918.828	12779
918.939	12966
919.05	12734
919.161	12810
919.272	12669
919.383	12703
919.494	12913
919.604	13076
919.715	12859
919.826	12764
919.936	12776
920.047	12856
920.157	12837
920.267	12981
920.378	12852
920.488	12749
920.598	12954
920.708	13118
920.818	12989
920.928	12977
921.038	13156
921.148	13053
921.258	12764
921.368	12642
921.477	12658
921.587	12597
921.697	12521
921.806	12506
921.916	12479
922.025	12304
922.134	12346
922.244	12308
922.353	12247
922.462	12106
922.571	12095
922.68	11961
922.789	11996
922.898	11832
923.007	11866
923.116	11912
923.224	11927
923.333	11832
923.442	11855
923.55	11813
923.659	11809
923.767	11813
923.876	11718
923.984	11798
924.092	11665
924.201	11657
924.309	11790
924.417	11710
924.525	11596
924.633	11661
924.741	12601
924.849	11474
924.956	11611
925.064	11459
925.172	11452
925.279	11360
925.387	11414
925.494	11486
925.602	11524
925.709	11474
925.816	11410
925.924	11497
926.031	11516
926.138	11376
926.245	11467
926.352	11474
926.459	11463
926.566	11433
926.673	11356
926.779	11250
926.886	11189
926.993	11124
927.099	11162
927.206	11117
927.312	10995
927.419	11025
927.525	11014
927.631	11086
927.737	10923
927.843	10854
927.95	10786
928.056	10923
928.162	10892
928.267	10965
928.373	11482
928.479	11090
928.585	10778
928.69	10908
928.796	10972
928.901	10790
929.007	10668
929.112	10801
929.218	10752
929.323	10694
929.428	10675
929.533	10820
929.638	10599
929.743	10702
929.848	10694
929.953	10698
930.058	10611
930.163	10329
930.267	10432
930.372	10531
930.477	10390
930.581	10588
930.685	10421
930.79	10272
930.894	10413
930.998	10303
931.103	10447
931.207	10063
931.311	10063
931.415	9918
931.519	9728
931.623	9701
