Data from test_V78500241_1695.txt Node
Date: Fri Mar 25 14:45:30 CST 2022
User: usil
Spectrometer: V785-0024
Trigger mode: 0
Integration Time (sec): 4.000000E-1
Scans to average: 1
Nonlinearity correction enabled: false
Boxcar width: 0
Storing dark spectrum: false
XAxis mode: Wavelengths
Number of Pixels in Spectrum: 1024
>>>>>Begin Spectral Data<<<<<
801.071	22158
801.214	22147
801.356	21945
801.499	21861
801.641	21663
801.783	21720
801.926	21572
802.068	21553
802.211	21519
802.353	21439
802.496	21241
802.638	21138
802.78	21017
802.923	20979
803.065	20876
803.208	20887
803.35	21001
803.492	21085
803.635	21074
803.777	20952
803.919	21009
804.061	21382
804.204	20994
804.346	21020
804.488	20872
804.63	20971
804.773	20826
804.915	20838
805.057	21070
805.199	20899
805.341	20982
805.483	21017
805.626	20952
805.768	20986
805.91	20872
806.052	20971
806.194	20804
806.336	20975
806.478	20883
806.62	20902
806.762	20941
806.904	21108
807.046	21291
807.188	21203
807.33	21154
807.472	21291
807.614	21077
807.756	21256
807.898	20979
808.04	20941
808.182	20933
808.324	21066
808.465	21039
808.607	21211
808.749	21249
808.891	21481
809.033	21534
809.174	21378
809.316	21340
809.458	21370
809.6	21264
809.741	21241
809.883	21313
810.025	21507
810.166	21332
810.308	21500
810.45	21351
810.591	21336
810.733	21195
810.875	21081
811.016	21043
811.158	20979
811.299	21211
811.441	21192
811.582	21222
811.724	20914
811.865	20952
812.007	21096
812.148	21074
812.29	21104
812.431	21252
812.573	21416
812.714	21515
812.855	21538
812.997	21720
813.138	21770
813.279	21675
813.421	21603
813.562	21450
813.703	21321
813.845	21218
813.986	20891
814.127	20800
814.268	20667
814.41	20720
814.551	20644
814.692	20708
814.833	20530
814.974	20522
815.115	20640
815.256	20454
815.397	20465
815.539	20412
815.68	20320
815.821	20484
815.962	20355
816.103	20286
816.244	20195
816.385	20084
816.526	19963
816.666	19978
816.807	19681
816.948	19818
817.089	19947
817.23	19864
817.371	19681
817.512	19765
817.653	19723
817.793	19643
817.934	19757
818.075	19791
818.216	19750
818.356	19616
818.497	19594
818.638	19312
818.778	19445
818.919	19449
819.06	19369
819.2	19525
819.341	19632
819.481	19677
819.622	19837
819.762	19845
819.903	19978
820.043	19871
820.184	19670
820.324	19784
820.465	19734
820.605	19693
820.746	19769
820.886	19670
821.026	19719
821.167	19674
821.307	19784
821.447	19685
821.588	19407
821.728	19358
821.868	19209
822.008	19107
822.149	19031
822.289	19053
822.429	18939
822.569	18867
822.709	18795
822.849	18669
822.99	18597
823.13	18677
823.27	18555
823.41	18414
823.55	18350
823.69	18452
823.83	18448
823.97	18285
824.11	18209
824.25	18144
824.389	18152
824.529	18350
824.669	18167
824.809	18285
824.949	18174
825.089	18262
825.228	18159
825.368	17908
825.508	17958
825.648	18068
825.787	18091
825.927	18049
826.067	17874
826.206	17946
826.346	17980
826.485	17999
826.625	17897
826.765	17996
826.904	17965
827.044	17767
827.183	17745
827.323	17611
827.462	17691
827.601	17668
827.741	17634
827.88	17722
828.02	17619
828.159	17665
828.298	17657
828.437	17741
828.577	17642
828.716	17779
828.855	17558
828.994	17455
829.134	17383
829.273	17429
829.412	17250
829.551	17284
829.69	17433
829.829	17505
829.968	17402
830.107	17448
830.246	17452
830.385	17360
830.524	17364
830.663	17296
830.802	17045
830.941	17052
831.08	16999
831.219	17143
831.357	17056
831.496	17155
831.635	17132
831.774	16965
831.913	16965
832.051	16824
832.19	16809
832.329	16835
832.467	16862
832.606	16793
832.744	16687
832.883	16656
833.022	16596
833.16	16683
833.299	16626
833.437	16816
833.576	16706
833.714	16687
833.852	16740
833.991	16801
834.129	16809
834.267	16824
834.406	16835
834.544	16847
834.682	16828
834.821	16748
834.959	16900
835.097	16843
835.235	16835
835.373	16831
835.511	16812
835.65	16637
835.788	16706
835.926	16573
836.064	16497
836.202	16565
836.34	16672
836.478	16759
836.615	16668
836.753	16771
836.891	16736
837.029	16744
837.167	16637
837.305	16630
837.443	16462
837.58	16500
837.718	16531
837.856	16596
837.993	16478
838.131	16535
838.269	16497
838.406	16405
838.544	16348
838.681	16181
838.819	16215
838.956	16036
839.094	16006
839.231	16124
839.369	16097
839.506	16462
839.643	16375
839.781	16147
839.918	15998
840.055	16105
840.193	16006
840.33	16013
840.467	16086
840.604	16188
840.742	16272
840.879	15907
841.016	15922
841.153	16063
841.29	16192
841.427	16162
841.564	16048
841.701	15998
841.838	15994
841.975	15960
842.112	16044
842.249	15865
842.385	15831
842.522	16128
842.659	15854
842.796	15850
842.933	15816
843.069	15876
843.206	15827
843.343	15956
843.479	15895
843.616	15857
843.752	15759
843.889	15652
844.025	15831
844.162	15633
844.298	15743
844.435	15686
844.571	15641
844.708	15679
844.844	15751
844.98	15812
845.117	15762
845.253	15641
845.389	15507
845.525	15679
845.661	15580
845.798	15450
845.934	15580
846.07	15435
846.206	15507
846.342	15561
846.478	15507
846.614	15340
846.75	15287
846.886	15256
847.022	15291
847.158	15218
847.294	15241
847.429	15180
847.565	15192
847.701	15477
847.837	15017
847.972	15001
848.108	15066
848.244	15032
848.379	14857
848.515	14796
848.65	14826
848.786	14891
848.921	14834
849.057	14963
849.192	14948
849.328	14925
849.463	14872
849.598	14921
849.734	14689
849.869	14731
850.004	14640
850.14	14670
850.275	14621
850.41	14541
850.545	14568
850.68	14560
850.815	14731
850.95	14708
851.085	14765
851.22	14686
851.355	14640
851.49	14530
851.625	14594
851.76	14564
851.895	14560
852.03	14408
852.165	14583
852.299	14644
852.434	14678
852.569	14689
852.703	14621
852.838	14613
852.973	14796
853.107	14800
853.242	14606
853.376	14541
853.511	14370
853.645	14412
853.78	14655
853.914	14415
854.048	14419
854.183	14393
854.317	14423
854.451	14629
854.585	14503
854.72	14393
854.854	14454
854.988	14393
855.122	14446
855.256	14385
855.39	14412
855.524	14514
855.658	14556
855.792	14446
855.926	14450
856.06	14545
856.194	14511
856.327	14381
856.461	14400
856.595	14366
856.729	14355
856.862	14568
856.996	14465
857.13	14454
857.263	14594
857.397	14495
857.53	14495
857.664	14526
857.797	14564
857.931	14667
858.064	14533
858.197	14579
858.331	14514
858.464	14374
858.597	14454
858.731	14412
858.864	14503
858.997	14423
859.13	14492
859.263	14526
859.396	14419
859.529	14389
859.662	14377
859.795	14332
859.928	14511
860.061	14583
860.194	14648
860.327	14545
860.46	14457
860.592	14469
860.725	14518
860.858	14571
860.99	14370
861.123	14374
861.256	14374
861.388	14461
861.521	14933
861.653	14301
861.786	14419
861.918	14313
862.05	14332
862.183	14389
862.315	14514
862.447	14503
862.58	14396
862.712	14343
862.844	14123
862.976	14271
863.108	14282
863.24	14708
863.372	14084
863.504	14161
863.636	14256
863.768	14210
863.9	14187
864.032	14153
864.164	14180
864.296	14336
864.428	14320
864.559	14366
864.691	14259
864.823	14240
864.954	14286
865.086	14294
865.217	14267
865.349	14138
865.48	14237
865.612	14271
865.743	14374
865.875	14252
866.006	14210
866.137	14229
866.269	14298
866.4	14202
866.531	14130
866.662	14157
866.793	14195
866.924	14126
867.055	14267
867.186	14225
867.317	14164
867.448	14069
867.579	14164
867.71	14100
867.841	14187
867.972	14244
868.103	14119
868.233	14214
868.364	14206
868.495	14393
868.625	14469
868.756	14564
868.886	14358
869.017	14476
869.147	14590
869.278	14564
869.408	14533
869.539	14480
869.669	14613
869.799	14533
869.929	14644
870.06	14575
870.19	14834
870.32	14800
870.45	14823
870.58	14956
870.71	14944
870.84	14902
870.97	14872
871.1	14861
871.23	15051
871.36	15104
871.489	14864
871.619	14982
871.749	15070
871.879	15142
872.008	15173
872.138	15119
872.267	15001
872.397	14979
872.526	14883
872.656	14921
872.785	14925
872.915	15093
873.044	15051
873.173	15032
873.303	15150
873.432	15116
873.561	15199
873.69	15036
873.819	14982
873.948	15123
874.077	15116
874.206	15089
874.335	15298
874.464	15279
874.593	15447
874.722	15408
874.851	15412
874.979	15435
875.108	15412
875.237	15321
875.365	15443
875.494	15443
875.623	15374
875.751	15454
875.88	15496
876.008	15652
876.136	15751
876.265	15827
876.393	16044
876.521	15899
876.65	15884
876.778	15819
876.906	15816
877.034	15865
877.162	15838
877.29	15781
877.418	15770
877.546	15778
877.674	15804
877.802	15774
877.93	15774
878.058	15827
878.185	15739
878.313	15755
878.441	15808
878.568	15652
878.696	15751
878.824	15850
878.951	15892
879.079	16010
879.206	16154
879.333	16029
879.461	15911
879.588	15983
879.715	16036
879.842	16105
879.97	15975
880.097	15660
880.224	15701
880.351	15732
880.478	15629
880.605	15629
880.732	15629
880.859	15899
880.986	15663
881.112	15671
881.239	15629
881.366	15530
881.493	15424
881.619	15321
881.746	15332
881.872	15325
881.999	15241
882.125	15260
882.252	15416
882.378	15408
882.505	15439
882.631	15340
882.757	15161
882.883	15169
883.01	15203
883.136	15146
883.262	14975
883.388	14986
883.514	15203
883.64	15176
883.766	15131
883.892	15017
884.018	14975
884.143	15119
884.269	15222
884.395	15020
884.52	14762
884.646	14838
884.772	14800
884.897	14762
885.023	14845
885.148	14937
885.274	15074
885.399	14910
885.524	14982
885.65	14838
885.775	14937
885.9	14845
886.025	14906
886.15	14891
886.275	14826
886.4	14727
886.525	14804
886.65	14750
886.775	14807
886.9	14967
887.025	15127
887.149	14842
887.274	14651
887.399	14636
887.523	14613
887.648	14560
887.773	14568
887.897	14720
888.021	14758
888.146	14693
888.27	14727
888.395	14819
888.519	14750
888.643	14754
888.767	14739
888.891	14583
889.015	14533
889.139	14568
889.263	14499
889.387	14667
889.511	14758
889.635	14579
889.759	14503
889.883	14594
890.006	14530
890.13	14549
890.254	14427
890.377	14400
890.501	14370
890.624	14355
890.748	14358
890.871	14256
890.995	14126
891.118	14100
891.241	14282
891.364	14298
891.488	14309
891.611	14206
891.734	14168
891.857	14305
891.98	14278
892.103	14381
892.226	14309
892.349	14290
892.471	14157
892.594	14202
892.717	14275
892.839	14244
892.962	14313
893.085	14358
893.207	14123
893.33	14111
893.452	14240
893.575	14320
893.697	14263
893.819	14339
893.941	14450
894.064	14355
894.186	14153
894.308	14142
894.43	14328
894.552	14324
894.674	14438
894.796	14278
894.918	14263
895.04	14332
895.161	14362
895.283	14358
895.405	14237
895.526	14351
895.648	14336
895.769	14320
895.891	14362
896.012	14579
896.134	14442
896.255	14332
896.376	14294
896.498	14351
896.619	14381
896.74	14343
896.861	14476
896.982	14701
897.103	14853
897.224	14716
897.345	14640
897.466	14606
897.587	14663
897.708	14895
897.828	14819
897.949	14670
898.07	14499
898.19	14632
898.311	14769
898.431	14762
898.552	14648
898.672	14807
898.792	14845
898.913	14834
899.033	14682
899.153	14629
899.273	14530
899.393	14537
899.513	14621
899.633	14625
899.753	14621
899.873	14545
899.993	14606
900.113	14579
900.232	14594
900.352	14629
900.472	14541
900.591	14412
900.711	14488
900.83	14408
900.95	14556
901.069	14507
901.189	14419
901.308	14199
901.427	14168
901.546	14176
901.665	14206
901.784	14286
901.904	14050
902.023	13974
902.141	13753
902.26	13655
902.379	13849
902.498	13723
902.617	13731
902.735	13738
902.854	13677
902.973	13666
903.091	13449
903.21	13438
903.328	13476
903.446	13339
903.565	13285
903.683	13350
903.801	13236
903.919	13225
904.038	13183
904.156	13114
904.274	13236
904.392	13103
904.51	12973
904.627	13050
904.745	13133
904.863	13156
904.981	12897
905.098	12787
905.216	12802
905.334	12810
905.451	12787
905.569	12806
905.686	12821
905.803	12757
905.921	12658
906.038	12726
906.155	12601
906.272	12574
906.389	12525
906.506	12418
906.623	12327
906.74	12456
906.857	12292
906.974	12186
907.091	12418
907.208	12388
907.324	12437
907.441	12300
907.557	12045
907.674	12182
907.79	11927
907.907	12102
908.023	12144
908.139	12140
908.256	12083
908.372	12079
908.488	12041
908.604	11935
908.72	11790
908.836	11935
908.952	11859
909.068	11798
909.184	11942
909.3	11931
909.415	11817
909.531	11889
909.647	11653
909.762	11638
909.878	11543
909.993	11703
910.108	11573
910.224	11585
910.339	11726
910.454	11558
910.57	11463
910.685	11429
910.8	11691
910.915	11680
911.03	11562
911.145	11368
911.259	11326
911.374	11334
911.489	11345
911.604	11201
911.718	11159
911.833	11113
911.947	10927
912.062	10919
912.176	11105
912.291	11132
912.405	11128
912.519	11246
912.633	11273
912.748	11242
912.862	11174
912.976	10972
913.09	10843
913.204	10900
913.318	10934
913.431	11033
913.545	11117
913.659	11064
913.772	10953
913.886	10782
914	10839
914.113	10987
914.226	10957
914.34	10987
914.453	10873
914.566	10919
914.68	10755
914.793	10919
914.906	10580
915.019	10561
915.132	10538
915.245	10630
915.358	10580
915.47	10656
915.583	10656
915.696	10721
915.809	10752
915.921	10740
916.034	10691
916.146	10443
916.259	10497
916.371	10668
916.483	10622
916.595	10538
916.708	10580
916.82	10561
916.932	10523
917.044	10489
917.156	10538
917.268	10375
917.38	10443
917.491	10440
917.603	10500
917.715	10538
917.826	10470
917.938	10318
918.049	10344
918.161	10402
918.272	10596
918.384	10626
918.495	10398
918.606	10341
918.717	10265
918.828	10272
918.939	10363
919.05	10280
919.161	10329
919.272	10169
919.383	10200
919.494	10333
919.604	10615
919.715	10337
919.826	10265
919.936	10322
920.047	10440
920.157	10337
920.267	10538
920.378	10436
920.488	10318
920.598	10523
920.708	10691
920.818	10508
920.928	10512
921.038	10706
921.148	10660
921.258	10451
921.368	10188
921.477	10253
921.587	10177
921.697	10078
921.806	10192
921.916	10040
922.025	10006
922.134	9899
922.244	9884
922.353	9983
922.462	9781
922.571	9686
922.68	9614
922.789	9591
922.898	9622
923.007	9587
923.116	9660
923.224	9530
923.333	9549
923.442	9526
923.55	9473
923.659	9485
923.767	9622
923.876	9523
923.984	9545
924.092	9450
924.201	9447
924.309	9416
924.417	9450
924.525	9370
924.633	9450
924.741	10325
924.849	9218
924.956	9367
925.064	9279
925.172	9195
925.279	9195
925.387	9230
925.494	9245
925.602	9321
925.709	9340
925.816	9218
925.924	9283
926.031	9355
926.138	9222
926.245	9256
926.352	9150
926.459	9310
926.566	9317
926.673	9226
926.779	9127
926.886	9127
926.993	8956
927.099	8956
927.206	8914
927.312	8883
927.419	9017
927.525	8994
927.631	9024
927.737	8811
927.843	8807
927.95	8762
928.056	8857
928.162	8857
928.267	8861
928.373	9408
928.479	8956
928.585	8731
928.69	8807
928.796	8914
928.901	8686
929.007	8552
929.112	8785
929.218	8762
929.323	8644
929.428	8602
929.533	8849
929.638	8617
929.743	8689
929.848	8720
929.953	8606
930.058	8526
930.163	8381
930.267	8499
930.372	8556
930.477	8358
930.581	8651
930.685	8488
930.79	8320
930.894	8419
930.998	8419
931.103	8511
931.207	8199
931.311	8081
931.415	8016
931.519	7879
931.623	7849
