Data from test_V78500241_2437.txt Node
Date: Fri Mar 25 14:50:40 CST 2022
User: usil
Spectrometer: V785-0024
Trigger mode: 0
Integration Time (sec): 4.000000E-1
Scans to average: 1
Nonlinearity correction enabled: false
Boxcar width: 0
Storing dark spectrum: false
XAxis mode: Wavelengths
Number of Pixels in Spectrum: 1024
>>>>>Begin Spectral Data<<<<<
801.071	22086
801.214	21960
801.356	21747
801.499	21576
801.641	21386
801.783	21389
801.926	21481
802.068	21473
802.211	21275
802.353	21108
802.496	21116
802.638	20971
802.78	21062
802.923	20769
803.065	20727
803.208	20727
803.35	20811
803.492	20811
803.635	21051
803.777	20564
803.919	20975
804.061	21047
804.204	20693
804.346	20689
804.488	20663
804.63	20712
804.773	20617
804.915	20746
805.057	20758
805.199	20686
805.341	20773
805.483	20781
805.626	20777
805.768	20727
805.91	20705
806.052	20674
806.194	20552
806.336	20815
806.478	20552
806.62	20644
806.762	20834
806.904	20845
807.046	21119
807.188	20929
807.33	20967
807.472	21043
807.614	21093
807.756	20872
807.898	20800
808.04	20705
808.182	20750
808.324	20838
808.465	20857
808.607	21001
808.749	21195
808.891	21230
809.033	21245
809.174	21138
809.316	21070
809.458	21108
809.6	20998
809.741	21096
809.883	21123
810.025	21367
810.166	21173
810.308	21249
810.45	21146
810.591	21138
810.733	21055
810.875	20918
811.016	20800
811.158	20773
811.299	20960
811.441	20986
811.582	21039
811.724	20883
811.865	20876
812.007	20948
812.148	20842
812.29	20952
812.431	21112
812.573	21222
812.714	21245
812.855	21367
812.997	21424
813.138	21496
813.279	21416
813.421	21488
813.562	21317
813.703	21275
813.845	21058
813.986	20781
814.127	20602
814.268	20533
814.41	20438
814.551	20431
814.692	20564
814.833	20332
814.974	20328
815.115	20400
815.256	20332
815.397	20298
815.539	20286
815.68	20145
815.821	20065
815.962	20172
816.103	20286
816.244	19856
816.385	19898
816.526	19868
816.666	19788
816.807	19495
816.948	19677
817.089	19753
817.23	19578
817.371	19582
817.512	19537
817.653	19548
817.793	19483
817.934	19510
818.075	19529
818.216	19514
818.356	19529
818.497	19335
818.638	19221
818.778	19232
818.919	19175
819.06	19274
819.2	19350
819.341	19396
819.481	19419
819.622	19628
819.762	19723
819.903	19765
820.043	19651
820.184	19457
820.324	19453
820.465	19502
820.605	19601
820.746	19487
820.886	19289
821.026	19521
821.167	19445
821.307	19624
821.447	19468
821.588	19312
821.728	19289
821.868	18886
822.008	18875
822.149	19027
822.289	18958
822.429	18658
822.569	18582
822.709	18741
822.849	18498
822.99	18308
823.13	18441
823.27	18433
823.41	18136
823.55	18254
823.69	18209
823.83	18232
823.97	18079
824.11	17958
824.25	17973
824.389	17954
824.529	18007
824.669	18133
824.809	17980
824.949	18049
825.089	18068
825.228	18129
825.368	17760
825.508	17916
825.648	17786
825.787	17851
825.927	17748
826.067	17783
826.206	17661
826.346	17790
826.485	17779
826.625	17764
826.765	17843
826.904	17748
827.044	17592
827.183	17337
827.323	17433
827.462	17566
827.601	17467
827.741	17414
827.88	17524
828.02	17223
828.159	17391
828.298	17505
828.437	17608
828.577	17532
828.716	17600
828.855	17532
828.994	17250
829.134	17216
829.273	17242
829.412	17235
829.551	17117
829.69	17197
829.829	17212
829.968	17322
830.107	17341
830.246	17143
830.385	17227
830.524	17174
830.663	17090
830.802	16968
830.941	16843
831.08	16850
831.219	16869
831.357	16881
831.496	16991
831.635	16927
831.774	16691
831.913	16858
832.051	16584
832.19	16672
832.329	16679
832.467	16611
832.606	16497
832.744	16546
832.883	16451
833.022	16531
833.16	16535
833.299	16459
833.437	16611
833.576	16634
833.714	16672
833.852	16660
833.991	16759
834.129	16611
834.267	16599
834.406	16577
834.544	16615
834.682	16577
834.821	16618
834.959	16664
835.097	16485
835.235	16649
835.373	16725
835.511	16569
835.65	16546
835.788	16546
835.926	16325
836.064	16303
836.202	16421
836.34	16588
836.478	16577
836.615	16462
836.753	16527
836.891	16664
837.029	16516
837.167	16398
837.305	16375
837.443	16329
837.58	16192
837.718	16474
837.856	16428
837.993	16284
838.131	16295
838.269	16367
838.406	16325
838.544	16169
838.681	16128
838.819	15949
838.956	15937
839.094	15949
839.231	15964
839.369	16074
839.506	16367
839.643	16101
839.781	15918
839.918	15869
840.055	15972
840.193	15831
840.33	15869
840.467	15876
840.604	15926
840.742	16177
840.879	15739
841.016	15857
841.153	15846
841.29	15926
841.427	15915
841.564	15930
841.701	15911
841.838	15831
841.975	15819
842.112	15945
842.249	15698
842.385	15679
842.522	15911
842.659	15667
842.796	15663
842.933	15648
843.069	15599
843.206	15675
843.343	15755
843.479	15663
843.616	15720
843.752	15576
843.889	15481
844.025	15599
844.162	15469
844.298	15618
844.435	15504
844.571	15416
844.708	15568
844.844	15610
844.98	15595
845.117	15656
845.253	15359
845.389	15389
845.525	15340
845.661	15412
845.798	15291
845.934	15226
846.07	15287
846.206	15249
846.342	15367
846.478	15199
846.614	15055
846.75	14982
846.886	14998
847.022	15157
847.158	14998
847.294	15028
847.429	15051
847.565	14990
847.701	15272
847.837	14750
847.972	14663
848.108	14800
848.244	14830
848.379	14720
848.515	14564
848.65	14644
848.786	14674
848.921	14632
849.057	14743
849.192	14765
849.328	14663
849.463	14655
849.598	14556
849.734	14518
849.869	14511
850.004	14457
850.14	14389
850.275	14431
850.41	14351
850.545	14450
850.68	14358
850.815	14461
850.95	14389
851.085	14648
851.22	14518
851.355	14465
851.49	14309
851.625	14389
851.76	14301
851.895	14385
852.03	14317
852.165	14313
852.299	14446
852.434	14518
852.569	14415
852.703	14457
852.838	14389
852.973	14511
853.107	14583
853.242	14336
853.376	14191
853.511	14248
853.645	14149
853.78	14389
853.914	14267
854.048	14256
854.183	14210
854.317	14229
854.451	14343
854.585	14271
854.72	14164
854.854	14309
854.988	14225
855.122	14172
855.256	14008
855.39	14286
855.524	14317
855.658	14336
855.792	14218
855.926	14313
856.06	14294
856.194	14275
856.327	14324
856.461	14263
856.595	14206
856.729	14172
856.862	14301
856.996	14377
857.13	14427
857.263	14381
857.397	14347
857.53	14336
857.664	14374
857.797	14381
857.931	14389
858.064	14309
858.197	14442
858.331	14256
858.464	14191
858.597	14180
858.731	14233
858.864	14305
858.997	14164
859.13	14381
859.263	14244
859.396	14343
859.529	14294
859.662	14267
859.795	14218
859.928	14351
860.061	14434
860.194	14434
860.327	14305
860.46	14294
860.592	14358
860.725	14480
860.858	14374
860.99	14206
861.123	14221
861.256	14214
861.388	14278
861.521	14910
861.653	14180
861.786	14084
861.918	14210
862.05	14138
862.183	14153
862.315	14210
862.447	14214
862.58	14237
862.712	14062
862.844	14077
862.976	14088
863.108	14054
863.24	14412
863.372	14020
863.504	13993
863.636	14062
863.768	14058
863.9	13993
864.032	13871
864.164	13951
864.296	14187
864.428	14168
864.559	14024
864.691	14183
864.823	14134
864.954	14077
865.086	14016
865.217	13967
865.349	13974
865.48	14046
865.612	14005
865.743	14161
865.875	14012
866.006	13986
866.137	14073
866.269	14077
866.4	14043
866.531	14012
866.662	13909
866.793	13944
866.924	13963
867.055	14039
867.186	13963
867.317	14069
867.448	13837
867.579	13849
867.71	14043
867.841	13951
867.972	14054
868.103	13978
868.233	14153
868.364	14115
868.495	14153
868.625	14225
868.756	14347
868.886	14187
869.017	14271
869.147	14355
869.278	14404
869.408	14324
869.539	14282
869.669	14313
869.799	14351
869.929	14366
870.06	14404
870.19	14556
870.32	14526
870.45	14583
870.58	14705
870.71	14792
870.84	14724
870.97	14640
871.1	14693
871.23	14868
871.36	14902
871.489	14788
871.619	14902
871.749	14834
871.879	14967
872.008	14918
872.138	14861
872.267	14948
872.397	14708
872.526	14648
872.656	14720
872.785	14655
872.915	14899
873.044	14918
873.173	14944
873.303	14891
873.432	14906
873.561	14982
873.69	15020
873.819	14941
873.948	15036
874.077	14891
874.206	14849
874.335	15036
874.464	15119
874.593	15135
874.722	15100
874.851	15249
874.979	15207
875.108	15325
875.237	15203
875.365	15116
875.494	15230
875.623	15317
875.751	15192
875.88	15317
876.008	15310
876.136	15428
876.265	15633
876.393	15774
876.521	15808
876.65	15698
876.778	15739
876.906	15542
877.034	15663
877.162	15606
877.29	15568
877.418	15701
877.546	15682
877.674	15736
877.802	15591
877.93	15701
878.058	15473
878.185	15568
878.313	15679
878.441	15675
878.568	15435
878.696	15553
878.824	15690
878.951	15732
879.079	15789
879.206	16017
879.333	15781
879.461	15732
879.588	15743
879.715	15789
879.842	15983
879.97	15774
880.097	15523
880.224	15507
880.351	15511
880.478	15519
880.605	15500
880.732	15454
880.859	15709
880.986	15603
881.112	15557
881.239	15439
881.366	15355
881.493	15211
881.619	15241
881.746	15176
881.872	15169
881.999	15093
882.125	15184
882.252	15211
882.378	15180
882.505	15294
882.631	15074
882.757	15005
882.883	15013
883.01	15055
883.136	14861
883.262	14914
883.388	14804
883.514	14979
883.64	14952
883.766	15001
883.892	14864
884.018	14887
884.143	15039
884.269	15112
884.395	14727
884.52	14743
884.646	14758
884.772	14629
884.897	14636
885.023	14674
885.148	14792
885.274	14842
885.399	14792
885.524	14670
885.65	14697
885.775	14693
885.9	14773
886.025	14750
886.15	14777
886.275	14606
886.4	14556
886.525	14674
886.65	14636
886.775	14613
886.9	14872
887.025	14918
887.149	14731
887.274	14571
887.399	14571
887.523	14526
887.648	14438
887.773	14530
887.897	14583
888.021	14598
888.146	14526
888.27	14606
888.395	14689
888.519	14594
888.643	14571
888.767	14651
888.891	14332
889.015	14457
889.139	14427
889.263	14313
889.387	14511
889.511	14530
889.635	14648
889.759	14404
889.883	14400
890.006	14336
890.13	14484
890.254	14366
890.377	14362
890.501	14278
890.624	14199
890.748	14233
890.871	14142
890.995	14103
891.118	13955
891.241	14100
891.364	14096
891.488	14259
891.611	14142
891.734	14119
891.857	14138
891.98	14126
892.103	14145
892.226	14123
892.349	14229
892.471	13928
892.594	14031
892.717	14149
892.839	14065
892.962	14126
893.085	14126
893.207	14073
893.33	13963
893.452	14054
893.575	14149
893.697	14176
893.819	14221
893.941	14294
894.064	14298
894.186	14039
894.308	14001
894.43	14244
894.552	14408
894.674	14355
894.796	14176
894.918	14161
895.04	14088
895.161	14195
895.283	14282
895.405	14214
895.526	14191
895.648	14195
895.769	14240
895.891	14336
896.012	14259
896.134	14294
896.255	14294
896.376	14244
896.498	14256
896.619	14351
896.74	14233
896.861	14298
896.982	14625
897.103	14815
897.224	14556
897.345	14518
897.466	14469
897.587	14583
897.708	14705
897.828	14640
897.949	14484
898.07	14434
898.19	14511
898.311	14765
898.431	14602
898.552	14701
898.672	14686
898.792	14724
898.913	14659
899.033	14602
899.153	14469
899.273	14419
899.393	14473
899.513	14415
899.633	14461
899.753	14492
899.873	14457
899.993	14454
900.113	14427
900.232	14583
900.352	14423
900.472	14507
900.591	14328
900.711	14370
900.83	14309
900.95	14427
901.069	14457
901.189	14298
901.308	14096
901.427	14046
901.546	14016
901.665	14084
901.784	14145
901.904	13978
902.023	13803
902.141	13594
902.26	13594
902.379	13700
902.498	13670
902.617	13506
902.735	13658
902.854	13544
902.973	13578
903.091	13320
903.21	13304
903.328	13400
903.446	13244
903.565	13187
903.683	13110
903.801	13034
903.919	13129
904.038	13076
904.156	13038
904.274	13152
904.392	12970
904.51	12920
904.627	12954
904.745	12989
904.863	12966
904.981	12768
905.098	12669
905.216	12692
905.334	12783
905.451	12665
905.569	12608
905.686	12669
905.803	12604
905.921	12429
906.038	12521
906.155	12483
906.272	12384
906.389	12388
906.506	12258
906.623	12266
906.74	12194
906.857	12155
906.974	12102
907.091	12391
907.208	12357
907.324	12273
907.441	12121
907.557	11999
907.674	11980
907.79	11958
907.907	11950
908.023	12064
908.139	11973
908.256	11897
908.372	11969
908.488	11950
908.604	11824
908.72	11767
908.836	11737
908.952	11790
909.068	11748
909.184	11859
909.3	11748
909.415	11863
909.531	11767
909.647	11627
909.762	11573
909.878	11467
909.993	11532
910.108	11573
910.224	11520
910.339	11406
910.454	11444
910.57	11463
910.685	11334
910.8	11585
910.915	11570
911.03	11296
911.145	11250
911.259	11143
911.374	11185
911.489	11086
911.604	11136
911.718	10991
911.833	10991
911.947	10896
912.062	10767
912.176	10923
912.291	10927
912.405	11010
912.519	11128
912.633	11242
912.748	11052
912.862	10976
912.976	10885
913.09	10740
913.204	10782
913.318	10904
913.431	10904
913.545	10915
913.659	11048
913.772	10847
913.886	10645
914	10698
914.113	10839
914.226	10881
914.34	10755
914.453	10630
914.566	10820
914.68	10641
914.793	10717
914.906	10527
915.019	10379
915.132	10451
915.245	10508
915.358	10519
915.47	10470
915.583	10516
915.696	10588
915.809	10615
915.921	10672
916.034	10455
916.146	10428
916.259	10413
916.371	10485
916.483	10489
916.595	10363
916.708	10398
916.82	10428
916.932	10424
917.044	10402
917.156	10405
917.268	10344
917.38	10348
917.491	10360
917.603	10348
917.715	10447
917.826	10390
917.938	10268
918.049	10242
918.161	10329
918.272	10447
918.384	10500
918.495	10352
918.606	10158
918.717	10185
918.828	10181
918.939	10230
919.05	10071
919.161	10143
919.272	9987
919.383	10059
919.494	10257
919.604	10352
919.715	10265
919.826	10143
919.936	10147
920.047	10341
920.157	10207
920.267	10371
920.378	10325
920.488	10257
920.598	10459
920.708	10592
920.818	10440
920.928	10333
921.038	10527
921.148	10546
921.258	10249
921.368	10154
921.477	10082
921.587	10074
921.697	9991
921.806	10059
921.916	9994
922.025	9865
922.134	9800
922.244	9732
922.353	9766
922.462	9778
922.571	9667
922.68	9477
922.789	9450
922.898	9530
923.007	9424
923.116	9447
923.224	9542
923.333	9439
923.442	9382
923.55	9313
923.659	9397
923.767	9405
923.876	9359
923.984	9454
924.092	9306
924.201	9275
924.309	9397
924.417	9340
924.525	9359
924.633	9302
924.741	10135
924.849	9089
924.956	9291
925.064	9138
925.172	8982
925.279	8990
925.387	9058
925.494	9180
925.602	9188
925.709	9165
925.816	9043
925.924	9135
926.031	9135
926.138	9112
926.245	9135
926.352	9036
926.459	9211
926.566	9264
926.673	9070
926.779	8952
926.886	8956
926.993	8929
927.099	8815
927.206	8777
927.312	8785
927.419	8910
927.525	8823
927.631	8872
927.737	8777
927.843	8731
927.95	8625
928.056	8705
928.162	8708
928.267	8815
928.373	9431
928.479	8811
928.585	8613
928.69	8705
928.796	8857
928.901	8625
929.007	8518
929.112	8648
929.218	8629
929.323	8571
929.428	8587
929.533	8701
929.638	8438
929.743	8583
929.848	8610
929.953	8613
930.058	8419
930.163	8259
930.267	8252
930.372	8400
930.477	8324
930.581	8522
930.685	8408
930.79	8286
930.894	8351
930.998	8271
931.103	8396
931.207	8062
931.311	7951
931.415	7959
931.519	7780
931.623	7738
