Data from test_V78500241_2557.txt Node
Date: Fri Mar 25 14:51:31 CST 2022
User: usil
Spectrometer: V785-0024
Trigger mode: 0
Integration Time (sec): 4.000000E-1
Scans to average: 1
Nonlinearity correction enabled: false
Boxcar width: 0
Storing dark spectrum: false
XAxis mode: Wavelengths
Number of Pixels in Spectrum: 1024
>>>>>Begin Spectral Data<<<<<
801.071	21869
801.214	21930
801.356	21637
801.499	21572
801.641	21485
801.783	21306
801.926	21431
802.068	21405
802.211	21302
802.353	21146
802.496	20990
802.638	21066
802.78	20906
802.923	20891
803.065	20598
803.208	20716
803.35	20746
803.492	20830
803.635	20853
803.777	20697
803.919	20830
804.061	21062
804.204	20857
804.346	20602
804.488	20735
804.63	20697
804.773	20625
804.915	20659
805.057	20765
805.199	20609
805.341	20701
805.483	20800
805.626	20746
805.768	20621
805.91	20621
806.052	20659
806.194	20571
806.336	20807
806.478	20571
806.62	20720
806.762	20632
806.904	20830
807.046	21176
807.188	20937
807.33	21017
807.472	20998
807.614	20872
807.756	20895
807.898	20785
808.04	20602
808.182	20667
808.324	20861
808.465	20853
808.607	20982
808.749	21009
808.891	21169
809.033	21138
809.174	21108
809.316	20929
809.458	20994
809.6	20929
809.741	21146
809.883	21131
810.025	21260
810.166	21142
810.308	21112
810.45	21024
810.591	21051
810.733	20918
810.875	20834
811.016	20648
811.158	20724
811.299	20796
811.441	20849
811.582	20929
811.724	20887
811.865	20659
812.007	20842
812.148	20754
812.29	20686
812.431	20925
812.573	20967
812.714	21138
812.855	21252
812.997	21378
813.138	21564
813.279	21374
813.421	21348
813.562	21138
813.703	21062
813.845	20929
813.986	20739
814.127	20450
814.268	20381
814.41	20381
814.551	20248
814.692	20317
814.833	20244
814.974	20286
815.115	20252
815.256	20256
815.397	20161
815.539	20237
815.68	20012
815.821	20077
815.962	20119
816.103	19967
816.244	19928
816.385	19799
816.526	19704
816.666	19594
816.807	19544
816.948	19483
817.089	19571
817.23	19510
817.371	19422
817.512	19441
817.653	19415
817.793	19422
817.934	19441
818.075	19476
818.216	19453
818.356	19415
818.497	19301
818.638	19137
818.778	19141
818.919	19179
819.06	19114
819.2	19320
819.341	19236
819.481	19384
819.622	19529
819.762	19689
819.903	19571
820.043	19491
820.184	19441
820.324	19480
820.465	19422
820.605	19400
820.746	19415
820.886	19209
821.026	19377
821.167	19362
821.307	19521
821.447	19457
821.588	19259
821.728	19187
821.868	18993
822.008	18810
822.149	18878
822.289	18825
822.429	18673
822.569	18559
822.709	18517
822.849	18296
822.99	18285
823.13	18403
823.27	18292
823.41	18148
823.55	18133
823.69	18186
823.83	18228
823.97	17954
824.11	17969
824.25	17882
824.389	17969
824.529	17980
824.669	17954
824.809	18007
824.949	17965
825.089	17961
825.228	17920
825.368	17767
825.508	17726
825.648	17729
825.787	17767
825.927	17771
826.067	17665
826.206	17653
826.346	17592
826.485	17638
826.625	17600
826.765	17779
826.904	17653
827.044	17356
827.183	17448
827.323	17356
827.462	17486
827.601	17364
827.741	17395
827.88	17334
828.02	17311
828.159	17296
828.298	17391
828.437	17395
828.577	17223
828.716	17497
828.855	17410
828.994	17166
829.134	17105
829.273	17181
829.412	17060
829.551	17136
829.69	17162
829.829	17155
829.968	17193
830.107	17121
830.246	17170
830.385	17094
830.524	17022
830.663	16934
830.802	16831
830.941	16797
831.08	16816
831.219	16847
831.357	16824
831.496	16995
831.635	16790
831.774	16675
831.913	16706
832.051	16702
832.19	16558
832.329	16546
832.467	16459
832.606	16455
832.744	16485
832.883	16478
833.022	16493
833.16	16462
833.299	16519
833.437	16462
833.576	16580
833.714	16497
833.852	16459
833.991	16504
834.129	16573
834.267	16538
834.406	16622
834.544	16588
834.682	16459
834.821	16485
834.959	16656
835.097	16455
835.235	16554
835.373	16481
835.511	16603
835.65	16462
835.788	16478
835.926	16265
836.064	16299
836.202	16257
836.34	16462
836.478	16500
836.615	16405
836.753	16462
836.891	16512
837.029	16459
837.167	16371
837.305	16341
837.443	16382
837.58	16379
837.718	16348
837.856	16360
837.993	16276
838.131	16272
838.269	16139
838.406	16200
838.544	16215
838.681	16044
838.819	16017
838.956	15895
839.094	15892
839.231	15854
839.369	16048
839.506	16242
839.643	16036
839.781	15899
839.918	15865
840.055	15888
840.193	15865
840.33	15736
840.467	15823
840.604	15884
840.742	16150
840.879	15705
841.016	15800
841.153	15793
841.29	15975
841.427	15838
841.564	15895
841.701	15846
841.838	15770
841.975	15789
842.112	15797
842.249	15701
842.385	15568
842.522	15785
842.659	15641
842.796	15698
842.933	15724
843.069	15485
843.206	15568
843.343	15774
843.479	15652
843.616	15568
843.752	15542
843.889	15454
844.025	15557
844.162	15450
844.298	15564
844.435	15538
844.571	15405
844.708	15405
844.844	15564
844.98	15618
845.117	15568
845.253	15412
845.389	15378
845.525	15287
845.661	15336
845.798	15123
845.934	15275
846.07	15192
846.206	15291
846.342	15321
846.478	15237
846.614	14967
846.75	14979
846.886	14990
847.022	15085
847.158	15058
847.294	14971
847.429	15047
847.565	15055
847.701	15287
847.837	14712
847.972	14667
848.108	14872
848.244	14769
848.379	14632
848.515	14594
848.65	14648
848.786	14476
848.921	14613
849.057	14663
849.192	14670
849.328	14621
849.463	14583
849.598	14560
849.734	14545
849.869	14556
850.004	14377
850.14	14347
850.275	14419
850.41	14389
850.545	14336
850.68	14336
850.815	14328
850.95	14347
851.085	14552
851.22	14408
851.355	14374
851.49	14298
851.625	14259
851.76	14305
851.895	14301
852.03	14332
852.165	14324
852.299	14431
852.434	14366
852.569	14389
852.703	14412
852.838	14400
852.973	14499
853.107	14526
853.242	14374
853.376	14248
853.511	14168
853.645	14294
853.78	14343
853.914	14199
854.048	14248
854.183	14149
854.317	14206
854.451	14423
854.585	14282
854.72	14195
854.854	14218
854.988	14244
855.122	14252
855.256	14119
855.39	14252
855.524	14172
855.658	14305
855.792	14199
855.926	14229
856.06	14210
856.194	14332
856.327	14119
856.461	14240
856.595	14191
856.729	14214
856.862	14336
856.996	14328
857.13	14298
857.263	14320
857.397	14328
857.53	14233
857.664	14298
857.797	14339
857.931	14476
858.064	14214
858.197	14298
858.331	14271
858.464	14237
858.597	14149
858.731	14183
858.864	14172
858.997	14206
859.13	14191
859.263	14225
859.396	14271
859.529	14176
859.662	14157
859.795	14149
859.928	14248
860.061	14423
860.194	14427
860.327	14218
860.46	14225
860.592	14320
860.725	14305
860.858	14320
860.99	14225
861.123	14134
861.256	14244
861.388	14282
861.521	14845
861.653	14130
861.786	14100
861.918	14100
862.05	14157
862.183	14164
862.315	14263
862.447	14320
862.58	14256
862.712	14073
862.844	14054
862.976	14111
863.108	14111
863.24	14522
863.372	13875
863.504	13936
863.636	13993
863.768	14119
863.9	14054
864.032	13963
864.164	13917
864.296	14035
864.428	14035
864.559	14138
864.691	14084
864.823	14084
864.954	14016
865.086	14035
865.217	14012
865.349	13963
865.48	14001
865.612	14084
865.743	14107
865.875	14043
866.006	14016
866.137	14046
866.269	14062
866.4	13940
866.531	13967
866.662	13883
866.793	14050
866.924	13978
867.055	14027
867.186	14054
867.317	14043
867.448	13864
867.579	13974
867.71	13982
867.841	13959
867.972	13955
868.103	13989
868.233	14103
868.364	14065
868.495	14126
868.625	14195
868.756	14233
868.886	14142
869.017	14149
869.147	14305
869.278	14324
869.408	14187
869.539	14309
869.669	14252
869.799	14282
869.929	14423
870.06	14282
870.19	14610
870.32	14568
870.45	14518
870.58	14693
870.71	14785
870.84	14670
870.97	14678
871.1	14682
871.23	14830
871.36	14811
871.489	14697
871.619	14735
871.749	14826
871.879	14883
872.008	14906
872.138	14895
872.267	14857
872.397	14804
872.526	14632
872.656	14754
872.785	14663
872.915	14830
873.044	14967
873.173	15009
873.303	14967
873.432	14975
873.561	14967
873.69	15013
873.819	14933
873.948	14967
874.077	14902
874.206	14891
874.335	14910
874.464	14967
874.593	15294
874.722	15154
874.851	15306
874.979	15233
875.108	15230
875.237	15135
875.365	15154
875.494	15211
875.623	15336
875.751	15180
875.88	15287
876.008	15370
876.136	15397
876.265	15557
876.393	15743
876.521	15766
876.65	15774
876.778	15671
876.906	15568
877.034	15545
877.162	15618
877.29	15507
877.418	15587
877.546	15694
877.674	15587
877.802	15625
877.93	15656
878.058	15584
878.185	15462
878.313	15618
878.441	15686
878.568	15466
878.696	15561
878.824	15679
878.951	15720
879.079	15850
879.206	15911
879.333	15850
879.461	15713
879.588	15675
879.715	15831
879.842	15922
879.97	15625
880.097	15469
880.224	15504
880.351	15477
880.478	15511
880.605	15481
880.732	15538
880.859	15736
880.986	15564
881.112	15492
881.239	15363
881.366	15241
881.493	15245
881.619	15093
881.746	15146
881.872	15081
881.999	15097
882.125	15123
882.252	15233
882.378	15195
882.505	15207
882.631	15100
882.757	14918
882.883	14963
883.01	14872
883.136	14914
883.262	14727
883.388	14834
883.514	14994
883.64	14994
883.766	14887
883.892	14811
884.018	14758
884.143	14979
884.269	15093
884.395	14701
884.52	14769
884.646	14678
884.772	14621
884.897	14549
885.023	14678
885.148	14716
885.274	14762
885.399	14678
885.524	14640
885.65	14674
885.775	14769
885.9	14708
886.025	14765
886.15	14746
886.275	14549
886.4	14651
886.525	14655
886.65	14625
886.775	14533
886.9	14815
887.025	14952
887.149	14705
887.274	14511
887.399	14533
887.523	14442
887.648	14415
887.773	14324
887.897	14545
888.021	14549
888.146	14427
888.27	14667
888.395	14598
888.519	14473
888.643	14511
888.767	14560
888.891	14434
889.015	14339
889.139	14427
889.263	14347
889.387	14537
889.511	14514
889.635	14507
889.759	14362
889.883	14393
890.006	14381
890.13	14514
890.254	14317
890.377	14343
890.501	14058
890.624	14161
890.748	14233
890.871	14084
890.995	14046
891.118	13978
891.241	14039
891.364	14123
891.488	14195
891.611	14069
891.734	14062
891.857	14149
891.98	14050
892.103	14145
892.226	14020
892.349	14039
892.471	13913
892.594	14001
892.717	14031
892.839	14054
892.962	13967
893.085	14046
893.207	14062
893.33	14001
893.452	14012
893.575	14031
893.697	14069
893.819	14256
893.941	14164
894.064	14210
894.186	14016
894.308	14100
894.43	14210
894.552	14282
894.674	14263
894.796	14092
894.918	14130
895.04	14081
895.161	14248
895.283	14199
895.405	14161
895.526	14214
895.648	14191
895.769	14123
895.891	14259
896.012	14336
896.134	14210
896.255	14256
896.376	14229
896.498	14164
896.619	14332
896.74	14206
896.861	14389
896.982	14579
897.103	14765
897.224	14651
897.345	14507
897.466	14488
897.587	14442
897.708	14606
897.828	14720
897.949	14419
898.07	14389
898.19	14495
898.311	14564
898.431	14533
898.552	14587
898.672	14697
898.792	14804
898.913	14739
899.033	14431
899.153	14457
899.273	14377
899.393	14507
899.513	14480
899.633	14404
899.753	14526
899.873	14423
899.993	14484
900.113	14423
900.232	14492
900.352	14473
900.472	14294
900.591	14157
900.711	14301
900.83	14172
900.95	14389
901.069	14469
901.189	14157
901.308	13982
901.427	14035
901.546	13967
901.665	14016
901.784	13932
901.904	13890
902.023	13757
902.141	13620
902.26	13575
902.379	13681
902.498	13594
902.617	13510
902.735	13578
902.854	13514
902.973	13529
903.091	13251
903.21	13240
903.328	13282
903.446	13103
903.565	13149
903.683	13088
903.801	13053
903.919	13107
904.038	13084
904.156	12943
904.274	12996
904.392	12837
904.51	12890
904.627	12848
904.745	13008
904.863	13019
904.981	12688
905.098	12646
905.216	12639
905.334	12719
905.451	12677
905.569	12521
905.686	12620
905.803	12635
905.921	12471
906.038	12555
906.155	12448
906.272	12346
906.389	12346
906.506	12220
906.623	12213
906.74	12182
906.857	12136
906.974	12117
907.091	12399
907.208	12361
907.324	12258
907.441	12216
907.557	12030
907.674	11977
907.79	11874
907.907	11874
908.023	12045
908.139	11946
908.256	11965
908.372	11843
908.488	11832
908.604	11775
908.72	11714
908.836	11672
908.952	11691
909.068	11695
909.184	11767
909.3	11710
909.415	11836
909.531	11748
909.647	11604
909.762	11364
909.878	11482
909.993	11520
910.108	11463
910.224	11459
910.339	11471
910.454	11474
910.57	11376
910.685	11261
910.8	11509
910.915	11512
911.03	11356
911.145	11212
911.259	11185
911.374	11147
911.489	11071
911.604	11025
911.718	10919
911.833	10999
911.947	10873
912.062	10752
912.176	10976
912.291	10949
912.405	10953
912.519	11166
912.633	11151
912.748	10930
912.862	11025
912.976	10915
913.09	10729
913.204	10755
913.318	10763
913.431	10999
913.545	10927
913.659	10911
913.772	10927
913.886	10748
914	10672
914.113	10824
914.226	10839
914.34	10774
914.453	10702
914.566	10816
914.68	10725
914.793	10653
914.906	10440
915.019	10405
915.132	10363
915.245	10474
915.358	10474
915.47	10500
915.583	10485
915.696	10489
915.809	10634
915.921	10573
916.034	10417
916.146	10413
916.259	10436
916.371	10462
916.483	10508
916.595	10344
916.708	10428
916.82	10371
916.932	10303
917.044	10436
917.156	10268
917.268	10242
917.38	10303
917.491	10246
917.603	10246
917.715	10375
917.826	10421
917.938	10238
918.049	10196
918.161	10291
918.272	10382
918.384	10394
918.495	10310
918.606	10181
918.717	10105
918.828	10173
918.939	10196
919.05	10185
919.161	10192
919.272	9953
919.383	10082
919.494	10192
919.604	10417
919.715	10192
919.826	10143
919.936	10207
920.047	10276
920.157	10227
920.267	10417
920.378	10185
920.488	10246
920.598	10363
920.708	10474
920.818	10447
920.928	10417
921.038	10550
921.148	10535
921.258	10249
921.368	10177
921.477	10029
921.587	9991
921.697	9987
921.806	10082
921.916	9953
922.025	9827
922.134	9755
922.244	9717
922.353	9819
922.462	9614
922.571	9625
922.68	9439
922.789	9340
922.898	9397
923.007	9473
923.116	9469
923.224	9454
923.333	9416
923.442	9310
923.55	9256
923.659	9374
923.767	9393
923.876	9291
923.984	9336
924.092	9321
924.201	9321
924.309	9279
924.417	9329
924.525	9230
924.633	9260
924.741	10044
924.849	9089
924.956	9249
925.064	9116
925.172	9001
925.279	9081
925.387	9028
925.494	9119
925.602	9256
925.709	9169
925.816	9085
925.924	9089
926.031	9211
926.138	9066
926.245	9192
926.352	9085
926.459	9192
926.566	9230
926.673	8929
926.779	8994
926.886	8910
926.993	8876
927.099	8834
927.206	8727
927.312	8777
927.419	8876
927.525	8826
927.631	8849
927.737	8746
927.843	8792
927.95	8545
928.056	8651
928.162	8689
928.267	8769
928.373	9348
928.479	8792
928.585	8651
928.69	8693
928.796	8731
928.901	8590
929.007	8533
929.112	8621
929.218	8511
929.323	8590
929.428	8602
929.533	8610
929.638	8473
929.743	8530
929.848	8587
929.953	8522
930.058	8507
930.163	8309
930.267	8286
930.372	8438
930.477	8279
930.581	8518
930.685	8320
930.79	8256
930.894	8317
930.998	8206
931.103	8393
931.207	8046
931.311	7993
931.415	7944
931.519	7788
931.623	7776
