Data from test_V78500241_1482.txt Node
Date: Fri Mar 25 14:44:02 CST 2022
User: usil
Spectrometer: V785-0024
Trigger mode: 0
Integration Time (sec): 4.000000E-1
Scans to average: 1
Nonlinearity correction enabled: false
Boxcar width: 0
Storing dark spectrum: false
XAxis mode: Wavelengths
Number of Pixels in Spectrum: 1024
>>>>>Begin Spectral Data<<<<<
801.071	22504
801.214	22265
801.356	22116
801.499	22048
801.641	21854
801.783	21755
801.926	21816
802.068	21682
802.211	21686
802.353	21599
802.496	21382
802.638	21348
802.78	21249
802.923	21241
803.065	21176
803.208	21009
803.35	21116
803.492	21317
803.635	21355
803.777	21184
803.919	21233
804.061	21477
804.204	21226
804.346	21005
804.488	21047
804.63	21096
804.773	20925
804.915	21100
805.057	21096
805.199	21005
805.341	21135
805.483	21081
805.626	21157
805.768	20902
805.91	21017
806.052	21005
806.194	20944
806.336	21195
806.478	21100
806.62	20956
806.762	21100
806.904	21279
807.046	21519
807.188	21294
807.33	21401
807.472	21496
807.614	21298
807.756	21462
807.898	21393
808.04	21283
808.182	21184
808.324	21264
808.465	21424
808.607	21488
808.749	21682
808.891	21717
809.033	21857
809.174	21633
809.316	21488
809.458	21545
809.6	21492
809.741	21637
809.883	21568
810.025	21728
810.166	21633
810.308	21633
810.45	21599
810.591	21511
810.733	21408
810.875	21226
811.016	21173
811.158	21188
811.299	21329
811.441	21382
811.582	21397
811.724	21214
811.865	21157
812.007	21112
812.148	21180
812.29	21241
812.431	21363
812.573	21454
812.714	21606
812.855	21770
812.997	21800
813.138	22017
813.279	21915
813.421	21926
813.562	21629
813.703	21439
813.845	21348
813.986	21104
814.127	20944
814.268	20857
814.41	20792
814.551	20815
814.692	20823
814.833	20678
814.974	20758
815.115	20731
815.256	20648
815.397	20632
815.539	20613
815.68	20533
815.821	20351
815.962	20575
816.103	20461
816.244	20362
816.385	20263
816.526	20320
816.666	20054
816.807	19898
816.948	20012
817.089	20119
817.23	20001
817.371	19928
817.512	19845
817.653	19944
817.793	19898
817.934	19871
818.075	20050
818.216	19894
818.356	19909
818.497	19750
818.638	19616
818.778	19616
818.919	19693
819.06	19582
819.2	19712
819.341	19856
819.481	19765
819.622	19925
819.762	20164
819.903	20027
820.043	20050
820.184	19921
820.324	19860
820.465	19917
820.605	19909
820.746	19822
820.886	19803
821.026	19871
821.167	19753
821.307	20043
821.447	19833
821.588	19769
821.728	19605
821.868	19499
822.008	19240
822.149	19152
822.289	19270
822.429	19031
822.569	18993
822.709	18977
822.849	18764
822.99	18886
823.13	18734
823.27	18798
823.41	18700
823.55	18563
823.69	18608
823.83	18544
823.97	18547
824.11	18346
824.25	18334
824.389	18342
824.529	18361
824.669	18391
824.809	18509
824.949	18536
825.089	18422
825.228	18300
825.368	18091
825.508	18159
825.648	18281
825.787	18262
825.927	18163
826.067	18110
826.206	18133
826.346	18095
826.485	18102
826.625	18110
826.765	18262
826.904	18220
827.044	17931
827.183	17863
827.323	17748
827.462	17874
827.601	17836
827.741	17680
827.88	17836
828.02	17764
828.159	17786
828.298	17878
828.437	17874
828.577	17710
828.716	17897
828.855	17878
828.994	17653
829.134	17558
829.273	17547
829.412	17684
829.551	17566
829.69	17497
829.829	17615
829.968	17554
830.107	17570
830.246	17535
830.385	17490
830.524	17535
830.663	17425
830.802	17250
830.941	17128
831.08	17197
831.219	17208
831.357	17239
831.496	17417
831.635	17155
831.774	17140
831.913	17086
832.051	17003
832.19	17003
832.329	17075
832.467	16949
832.606	16763
832.744	16934
832.883	16858
833.022	16839
833.16	16835
833.299	16820
833.437	16915
833.576	16923
833.714	16972
833.852	16927
833.991	16930
834.129	17075
834.267	17003
834.406	16854
834.544	17018
834.682	16919
834.821	16968
834.959	17109
835.097	16911
835.235	17010
835.373	16923
835.511	16961
835.65	16892
835.788	16824
835.926	16713
836.064	16607
836.202	16748
836.34	16797
836.478	16809
836.615	16816
836.753	16805
836.891	16877
837.029	16831
837.167	16790
837.305	16774
837.443	16736
837.58	16573
837.718	16805
837.856	16752
837.993	16675
838.131	16713
838.269	16599
838.406	16565
838.544	16558
838.681	16432
838.819	16386
838.956	16169
839.094	16188
839.231	16280
839.369	16363
839.506	16607
839.643	16478
839.781	16207
839.918	16253
840.055	16230
840.193	16303
840.33	16181
840.467	16204
840.604	16261
840.742	16504
840.879	16139
841.016	16105
841.153	16150
841.29	16268
841.427	16291
841.564	16375
841.701	16204
841.838	16090
841.975	16128
842.112	16219
842.249	16097
842.385	15987
842.522	16226
842.659	16044
842.796	16032
842.933	16074
843.069	15960
843.206	15880
843.343	16166
843.479	16013
843.616	15994
843.752	15823
843.889	15819
844.025	15991
844.162	15774
844.298	15949
844.435	15789
844.571	15812
844.708	15827
844.844	15816
844.98	15884
845.117	16021
845.253	15728
845.389	15656
845.525	15759
845.661	15812
845.798	15724
845.934	15865
846.07	15846
846.206	15892
846.342	15876
846.478	15720
846.614	15526
846.75	15351
846.886	15351
847.022	15488
847.158	15302
847.294	15367
847.429	15408
847.565	15329
847.701	15572
847.837	15074
847.972	15017
848.108	15211
848.244	15169
848.379	14902
848.515	14853
848.65	14941
848.786	14986
848.921	15077
849.057	15081
849.192	15017
849.328	14994
849.463	14902
849.598	15009
849.734	14918
849.869	14868
850.004	14743
850.14	14724
850.275	14758
850.41	14590
850.545	14644
850.68	14678
850.815	14781
850.95	14743
851.085	14921
851.22	14750
851.355	14834
851.49	14613
851.625	14716
851.76	14701
851.895	14655
852.03	14522
852.165	14640
852.299	14788
852.434	14823
852.569	14823
852.703	14678
852.838	14842
852.973	14853
853.107	14918
853.242	14735
853.376	14606
853.511	14507
853.645	14583
853.78	14731
853.914	14590
854.048	14568
854.183	14564
854.317	14594
854.451	14678
854.585	14587
854.72	14507
854.854	14568
854.988	14530
855.122	14575
855.256	14537
855.39	14602
855.524	14571
855.658	14667
855.792	14606
855.926	14625
856.06	14644
856.194	14693
856.327	14594
856.461	14545
856.595	14560
856.729	14587
856.862	14686
856.996	14556
857.13	14720
857.263	14765
857.397	14731
857.53	14636
857.664	14621
857.797	14648
857.931	14781
858.064	14568
858.197	14705
858.331	14469
858.464	14526
858.597	14541
858.731	14651
858.864	14469
858.997	14495
859.13	14625
859.263	14579
859.396	14746
859.529	14602
859.662	14556
859.795	14556
859.928	14625
860.061	14678
860.194	14708
860.327	14598
860.46	14541
860.592	14785
860.725	14655
860.858	14758
860.99	14560
861.123	14526
861.256	14537
861.388	14613
861.521	15135
861.653	14431
861.786	14332
861.918	14461
862.05	14556
862.183	14583
862.315	14655
862.447	14526
862.58	14537
862.712	14374
862.844	14328
862.976	14412
863.108	14320
863.24	14735
863.372	14275
863.504	14290
863.636	14355
863.768	14454
863.9	14355
864.032	14286
864.164	14278
864.296	14374
864.428	14438
864.559	14431
864.691	14484
864.823	14442
864.954	14381
865.086	14374
865.217	14324
865.349	14256
865.48	14244
865.612	14408
865.743	14427
865.875	14328
866.006	14355
866.137	14278
866.269	14248
866.4	14419
866.531	14305
866.662	14309
866.793	14294
866.924	14313
867.055	14370
867.186	14339
867.317	14320
867.448	14233
867.579	14324
867.71	14298
867.841	14259
867.972	14301
868.103	14358
868.233	14336
868.364	14313
868.495	14408
868.625	14552
868.756	14682
868.886	14461
869.017	14514
869.147	14689
869.278	14727
869.408	14564
869.539	14526
869.669	14735
869.799	14632
869.929	14655
870.06	14773
870.19	14933
870.32	14971
870.45	14937
870.58	14990
870.71	15150
870.84	15085
870.97	14895
871.1	14857
871.23	15119
871.36	15188
871.489	15074
871.619	15142
871.749	15165
871.879	15207
872.008	15218
872.138	15032
872.267	15222
872.397	15066
872.526	15043
872.656	14963
872.785	15070
872.915	15116
873.044	15374
873.173	15241
873.303	15272
873.432	15249
873.561	15317
873.69	15272
873.819	15268
873.948	15264
874.077	15230
874.206	15275
874.335	15302
874.464	15435
874.593	15519
874.722	15439
874.851	15603
874.979	15580
875.108	15656
875.237	15504
875.365	15595
875.494	15591
875.623	15652
875.751	15435
875.88	15534
876.008	15652
876.136	15831
876.265	15956
876.393	16074
876.521	16067
876.65	16185
876.778	16086
876.906	15953
877.034	15960
877.162	16010
877.29	15987
877.418	15941
877.546	15998
877.674	15941
877.802	15979
877.93	15964
878.058	15823
878.185	15869
878.313	16017
878.441	15941
878.568	15854
878.696	15899
878.824	16048
878.951	16032
879.079	16128
879.206	16333
879.333	16234
879.461	16162
879.588	16105
879.715	16215
879.842	16306
879.97	16135
880.097	15838
880.224	15888
880.351	15888
880.478	15865
880.605	15953
880.732	15751
880.859	16093
880.986	15739
881.112	15934
881.239	15736
881.366	15671
881.493	15652
881.619	15485
881.746	15572
881.872	15477
881.999	15466
882.125	15526
882.252	15477
882.378	15507
882.505	15652
882.631	15424
882.757	15226
882.883	15435
883.01	15370
883.136	15260
883.262	15199
883.388	15138
883.514	15283
883.64	15291
883.766	15260
883.892	15081
884.018	15230
884.143	15294
884.269	15412
884.395	15032
884.52	14880
884.646	15020
884.772	14994
884.897	14899
885.023	14971
885.148	15108
885.274	15157
885.399	15207
885.524	15001
885.65	15005
885.775	14998
885.9	15020
886.025	15180
886.15	15089
886.275	14952
886.4	14891
886.525	14956
886.65	14845
886.775	14998
886.9	15017
887.025	15268
887.149	14963
887.274	14921
887.399	14849
887.523	14796
887.648	14674
887.773	14826
887.897	14849
888.021	14838
888.146	14769
888.27	14876
888.395	14982
888.519	14826
888.643	14914
888.767	14956
888.891	14724
889.015	14743
889.139	14617
889.263	14579
889.387	14705
889.511	14815
889.635	14781
889.759	14610
889.883	14610
890.006	14674
890.13	14781
890.254	14495
890.377	14651
890.501	14522
890.624	14355
890.748	14530
890.871	14457
890.995	14412
891.118	14275
891.241	14377
891.364	14347
891.488	14358
891.611	14336
891.734	14374
891.857	14355
891.98	14256
892.103	14374
892.226	14404
892.349	14370
892.471	14256
892.594	14362
892.717	14377
892.839	14286
892.962	14377
893.085	14377
893.207	14370
893.33	14301
893.452	14183
893.575	14309
893.697	14267
893.819	14469
893.941	14575
894.064	14587
894.186	14244
894.308	14347
894.43	14415
894.552	14621
894.674	14438
894.796	14374
894.918	14351
895.04	14343
895.161	14480
895.283	14423
895.405	14336
895.526	14381
895.648	14389
895.769	14476
895.891	14583
896.012	14583
896.134	14556
896.255	14541
896.376	14484
896.498	14473
896.619	14587
896.74	14511
896.861	14617
896.982	14849
897.103	15028
897.224	14967
897.345	14735
897.466	14579
897.587	14849
897.708	14906
897.828	14842
897.949	14765
898.07	14686
898.19	14743
898.311	14921
898.431	14788
898.552	14864
898.672	14899
898.792	14994
898.913	14918
899.033	14735
899.153	14678
899.273	14610
899.393	14743
899.513	14693
899.633	14701
899.753	14750
899.873	14686
899.993	14792
900.113	14686
900.232	14746
900.352	14708
900.472	14560
900.591	14507
900.711	14587
900.83	14564
900.95	14701
901.069	14765
901.189	14438
901.308	14286
901.427	14210
901.546	14309
901.665	14271
901.784	14221
901.904	14191
902.023	14195
902.141	13913
902.26	13890
902.379	13902
902.498	13856
902.617	13761
902.735	13849
902.854	13818
902.973	13791
903.091	13533
903.21	13639
903.328	13525
903.446	13502
903.565	13445
903.683	13400
903.801	13350
903.919	13400
904.038	13331
904.156	13171
904.274	13350
904.392	13206
904.51	13152
904.627	13179
904.745	13244
904.863	13202
904.981	12977
905.098	12810
905.216	12894
905.334	12932
905.451	12909
905.569	12844
905.686	12916
905.803	12875
905.921	12802
906.038	12825
906.155	12692
906.272	12585
906.389	12665
906.506	12410
906.623	12559
906.74	12494
906.857	12311
906.974	12490
907.091	12570
907.208	12589
907.324	12502
907.441	12300
907.557	12190
907.674	12235
907.79	12186
907.907	12243
908.023	12186
908.139	12194
908.256	12175
908.372	12152
908.488	12159
908.604	12057
908.72	11954
908.836	12026
908.952	11939
909.068	11973
909.184	12098
909.3	11939
909.415	12034
909.531	11961
909.647	11798
909.762	11809
909.878	11684
909.993	11843
910.108	11779
910.224	11638
910.339	11767
910.454	11695
910.57	11653
910.685	11554
910.8	11783
910.915	11809
911.03	11608
911.145	11440
911.259	11414
911.374	11482
911.489	11303
911.604	11284
911.718	11128
911.833	11220
911.947	11128
912.062	11041
912.176	11105
912.291	11212
912.405	11204
912.519	11406
912.633	11448
912.748	11284
912.862	11208
912.976	11033
913.09	10930
913.204	11136
913.318	11014
913.431	11181
913.545	11147
913.659	11208
913.772	11098
913.886	10889
914	10877
914.113	11003
914.226	11105
914.34	11003
914.453	10938
914.566	10953
914.68	10889
914.793	10881
914.906	10759
915.019	10607
915.132	10554
915.245	10729
915.358	10653
915.47	10653
915.583	10755
915.696	10767
915.809	10847
915.921	10816
916.034	10607
916.146	10603
916.259	10615
916.371	10755
916.483	10687
916.595	10554
916.708	10656
916.82	10622
916.932	10626
917.044	10580
917.156	10546
917.268	10485
917.38	10447
917.491	10470
917.603	10489
917.715	10664
917.826	10645
917.938	10478
918.049	10344
918.161	10565
918.272	10611
918.384	10634
918.495	10508
918.606	10409
918.717	10325
918.828	10443
918.939	10462
919.05	10318
919.161	10390
919.272	10181
919.383	10230
919.494	10432
919.604	10558
919.715	10344
919.826	10360
919.936	10428
920.047	10531
920.157	10428
920.267	10641
920.378	10398
920.488	10428
920.598	10580
920.708	10694
920.818	10573
920.928	10603
921.038	10710
921.148	10748
921.258	10394
921.368	10284
921.477	10238
921.587	10249
921.697	10074
921.806	10242
921.916	10230
922.025	10040
922.134	9884
922.244	9861
922.353	10013
922.462	9823
922.571	9785
922.68	9709
922.789	9538
922.898	9698
923.007	9603
923.116	9793
923.224	9625
923.333	9614
923.442	9496
923.55	9526
923.659	9515
923.767	9644
923.876	9492
923.984	9622
924.092	9401
924.201	9462
924.309	9462
924.417	9469
924.525	9504
924.633	9443
924.741	10421
924.849	9336
924.956	9462
925.064	9279
925.172	9218
925.279	9306
925.387	9302
925.494	9313
925.602	9393
925.709	9340
925.816	9249
925.924	9317
926.031	9363
926.138	9298
926.245	9260
926.352	9192
926.459	9386
926.566	9428
926.673	9207
926.779	9218
926.886	9169
926.993	9009
927.099	9020
927.206	8960
927.312	8921
927.419	9028
927.525	8975
927.631	9058
927.737	8952
927.843	8925
927.95	8743
928.056	8876
928.162	8868
928.267	8986
928.373	9542
928.479	8929
928.585	8705
928.69	8918
928.796	8895
928.901	8724
929.007	8708
929.112	8773
929.218	8735
929.323	8678
929.428	8708
929.533	8838
929.638	8682
929.743	8651
929.848	8838
929.953	8739
930.058	8590
930.163	8530
930.267	8438
930.372	8583
930.477	8484
930.581	8678
930.685	8579
930.79	8389
930.894	8377
930.998	8415
931.103	8533
931.207	8180
931.311	8123
931.415	8065
931.519	7921
931.623	7890
