Data from test_V78500241_3557.txt Node
Date: Fri Mar 25 14:58:29 CST 2022
User: usil
Spectrometer: V785-0024
Trigger mode: 0
Integration Time (sec): 4.000000E-1
Scans to average: 1
Nonlinearity correction enabled: false
Boxcar width: 0
Storing dark spectrum: false
XAxis mode: Wavelengths
Number of Pixels in Spectrum: 1024
>>>>>Begin Spectral Data<<<<<
801.071	21861
801.214	21743
801.356	21591
801.499	21549
801.641	21355
801.783	21207
801.926	21283
802.068	21310
802.211	21184
802.353	21138
802.496	20781
802.638	20705
802.78	20781
802.923	20625
803.065	20655
803.208	20583
803.35	20644
803.492	20708
803.635	20727
803.777	20613
803.919	20644
804.061	20998
804.204	20617
804.346	20514
804.488	20374
804.63	20537
804.773	20522
804.915	20530
805.057	20484
805.199	20552
805.341	20674
805.483	20678
805.626	20549
805.768	20484
805.91	20499
806.052	20507
806.194	20339
806.336	20746
806.478	20571
806.62	20396
806.762	20492
806.904	20644
807.046	20906
807.188	20769
807.33	20811
807.472	20838
807.614	20838
807.756	20792
807.898	20697
808.04	20609
808.182	20587
808.324	20556
808.465	20598
808.607	20834
808.749	20883
808.891	20937
809.033	20982
809.174	20994
809.316	20842
809.458	20830
809.6	20796
809.741	20929
809.883	20944
810.025	21081
810.166	21017
810.308	21108
810.45	20971
810.591	20876
810.733	20697
810.875	20682
811.016	20419
811.158	20556
811.299	20625
811.441	20724
811.582	20701
811.724	20537
811.865	20625
812.007	20583
812.148	20598
812.29	20644
812.431	20891
812.573	21085
812.714	21024
812.855	21085
812.997	21279
813.138	21340
813.279	21192
813.421	21119
813.562	21058
813.703	20800
813.845	20758
813.986	20446
814.127	20351
814.268	20115
814.41	20172
814.551	20256
814.692	20298
814.833	20065
814.974	20180
815.115	20092
815.256	19986
815.397	20020
815.539	20073
815.68	19909
815.821	19837
815.962	19917
816.103	19883
816.244	19788
816.385	19666
816.526	19632
816.666	19441
816.807	19312
816.948	19422
817.089	19464
817.23	19346
817.371	19388
817.512	19259
817.653	19278
817.793	19236
817.934	19232
818.075	19274
818.216	19369
818.356	19175
818.497	19152
818.638	18943
818.778	18989
818.919	18981
819.06	18985
819.2	19126
819.341	19221
819.481	19179
819.622	19346
819.762	19457
819.903	19358
820.043	19365
820.184	19400
820.324	19247
820.465	19320
820.605	19255
820.746	19293
820.886	19217
821.026	19285
821.167	19293
821.307	19343
821.447	19213
821.588	19023
821.728	19069
821.868	19008
822.008	18798
822.149	18707
822.289	18661
822.429	18460
822.569	18365
822.709	18399
822.849	18216
822.99	18213
823.13	18129
823.27	18205
823.41	18194
823.55	17912
823.69	18136
823.83	18087
823.97	17927
824.11	17824
824.25	17726
824.389	17695
824.529	17904
824.669	17836
824.809	17885
824.949	17843
825.089	17805
825.228	17885
825.368	17646
825.508	17501
825.648	17497
825.787	17524
825.927	17672
826.067	17524
826.206	17455
826.346	17512
826.485	17497
826.625	17482
826.765	17535
826.904	17520
827.044	17398
827.183	17258
827.323	17280
827.462	17307
827.601	17345
827.741	17216
827.88	17261
828.02	17022
828.159	17166
828.298	17337
828.437	17341
828.577	17204
828.716	17334
828.855	17254
828.994	17029
829.134	16919
829.273	17018
829.412	16965
829.551	16946
829.69	17006
829.829	17147
829.968	17140
830.107	17170
830.246	17014
830.385	16942
830.524	16961
830.663	16847
830.802	16763
830.941	16550
831.08	16611
831.219	16675
831.357	16763
831.496	16915
831.635	16668
831.774	16538
831.913	16546
832.051	16375
832.19	16390
832.329	16462
832.467	16405
832.606	16318
832.744	16169
832.883	16306
833.022	16333
833.16	16337
833.299	16455
833.437	16382
833.576	16371
833.714	16303
833.852	16443
833.991	16466
834.129	16489
834.267	16352
834.406	16398
834.544	16363
834.682	16356
834.821	16299
834.959	16516
835.097	16375
835.235	16493
835.373	16337
835.511	16455
835.65	16207
835.788	16325
835.926	16192
836.064	15994
836.202	16082
836.34	16333
836.478	16287
836.615	16299
836.753	16413
836.891	16478
837.029	16459
837.167	16261
837.305	16356
837.443	16238
837.58	16219
837.718	16166
837.856	16192
837.993	16249
838.131	16219
838.269	15991
838.406	16162
838.544	16109
838.681	15835
838.819	15922
838.956	15781
839.094	15694
839.231	15816
839.369	15922
839.506	16074
839.643	16044
839.781	15732
839.918	15778
840.055	15850
840.193	15682
840.33	15682
840.467	15656
840.604	15797
840.742	15998
840.879	15633
841.016	15690
841.153	15682
841.29	15918
841.427	15797
841.564	15797
841.701	15747
841.838	15713
841.975	15637
842.112	15637
842.249	15545
842.385	15504
842.522	15762
842.659	15561
842.796	15477
842.933	15485
843.069	15424
843.206	15466
843.343	15584
843.479	15564
843.616	15538
843.752	15329
843.889	15401
844.025	15458
844.162	15256
844.298	15431
844.435	15294
844.571	15249
844.708	15443
844.844	15530
844.98	15481
845.117	15450
845.253	15256
845.389	15188
845.525	15161
845.661	15199
845.798	15066
845.934	15230
846.07	15058
846.206	15116
846.342	15245
846.478	15100
846.614	15017
846.75	14861
846.886	14895
847.022	15013
847.158	14918
847.294	14910
847.429	14876
847.565	14895
847.701	15074
847.837	14720
847.972	14606
848.108	14720
848.244	14800
848.379	14530
848.515	14434
848.65	14419
848.786	14469
848.921	14537
849.057	14629
849.192	14541
849.328	14545
849.463	14545
849.598	14450
849.734	14434
849.869	14362
850.004	14305
850.14	14351
850.275	14301
850.41	14202
850.545	14191
850.68	14263
850.815	14286
850.95	14248
851.085	14431
851.22	14381
851.355	14305
851.49	14172
851.625	14199
851.76	14202
851.895	14229
852.03	14107
852.165	14183
852.299	14278
852.434	14347
852.569	14275
852.703	14210
852.838	14305
852.973	14480
853.107	14393
853.242	14161
853.376	14119
853.511	13997
853.645	14043
853.78	14267
853.914	14248
854.048	14046
854.183	14024
854.317	14092
854.451	14244
854.585	14142
854.72	14039
854.854	14145
854.988	14084
855.122	14058
855.256	13902
855.39	14130
855.524	14199
855.658	14153
855.792	14107
855.926	14145
856.06	14145
856.194	14206
856.327	14164
856.461	14123
856.595	14077
856.729	13993
856.862	14317
856.996	14168
857.13	14233
857.263	14240
857.397	14263
857.53	14123
857.664	14248
857.797	14168
857.931	14248
858.064	14107
858.197	14244
858.331	14153
858.464	14142
858.597	14031
858.731	14092
858.864	14134
858.997	14138
859.13	14100
859.263	14039
859.396	14233
859.529	14149
859.662	14130
859.795	14073
859.928	14145
860.061	14244
860.194	14252
860.327	14126
860.46	14119
860.592	14206
860.725	14298
860.858	14221
860.99	14191
861.123	14031
861.256	14103
861.388	14138
861.521	14933
861.653	13974
861.786	14031
861.918	13993
862.05	14077
862.183	14081
862.315	14107
862.447	14248
862.58	14123
862.712	13879
862.844	13799
862.976	13978
863.108	13970
863.24	14301
863.372	13860
863.504	13860
863.636	13887
863.768	14062
863.9	14005
864.032	13921
864.164	13799
864.296	13898
864.428	14096
864.559	13944
864.691	14043
864.823	13989
864.954	13906
865.086	13932
865.217	13871
865.349	13791
865.48	13982
865.612	14031
865.743	13982
865.875	13822
866.006	13856
866.137	13917
866.269	13856
866.4	13871
866.531	13849
866.662	13818
866.793	13811
866.924	13932
867.055	13894
867.186	13940
867.317	13925
867.448	13723
867.579	13799
867.71	13826
867.841	13788
867.972	13913
868.103	13932
868.233	13967
868.364	13841
868.495	13909
868.625	14107
868.756	14164
868.886	14077
869.017	14100
869.147	14145
869.278	14199
869.408	14164
869.539	14081
869.669	14195
869.799	14221
869.929	14240
870.06	14278
870.19	14400
870.32	14579
870.45	14408
870.58	14606
870.71	14617
870.84	14549
870.97	14495
871.1	14629
871.23	14765
871.36	14716
871.489	14568
871.619	14701
871.749	14705
871.879	14807
872.008	14887
872.138	14708
872.267	14712
872.397	14606
872.526	14663
872.656	14583
872.785	14606
872.915	14746
873.044	14891
873.173	14750
873.303	14842
873.432	14849
873.561	14937
873.69	14758
873.819	14708
873.948	14918
874.077	14887
874.206	14842
874.335	14899
874.464	15043
874.593	15062
874.722	15089
874.851	15119
874.979	15218
875.108	15207
875.237	15081
875.365	15043
875.494	15074
875.623	15237
875.751	15062
875.88	15165
876.008	15260
876.136	15382
876.265	15526
876.393	15705
876.521	15667
876.65	15625
876.778	15564
876.906	15530
877.034	15469
877.162	15466
877.29	15500
877.418	15530
877.546	15420
877.674	15610
877.802	15515
877.93	15553
878.058	15450
878.185	15466
878.313	15622
878.441	15431
878.568	15378
878.696	15397
878.824	15561
878.951	15618
879.079	15580
879.206	15857
879.333	15728
879.461	15625
879.588	15679
879.715	15675
879.842	15755
879.97	15682
880.097	15344
880.224	15348
880.351	15401
880.478	15443
880.605	15469
880.732	15439
880.859	15603
880.986	15374
881.112	15447
881.239	15310
881.366	15138
881.493	15135
881.619	15005
881.746	15176
881.872	15081
881.999	15017
882.125	14960
882.252	15055
882.378	15119
882.505	15138
882.631	14998
882.757	14891
882.883	14925
883.01	14941
883.136	14785
883.262	14758
883.388	14724
883.514	14842
883.64	14937
883.766	14823
883.892	14682
884.018	14617
884.143	14910
884.269	14887
884.395	14693
884.52	14552
884.646	14552
884.772	14575
884.897	14587
885.023	14594
885.148	14659
885.274	14708
885.399	14674
885.524	14640
885.65	14545
885.775	14678
885.9	14480
886.025	14693
886.15	14598
886.275	14587
886.4	14484
886.525	14518
886.65	14461
886.775	14537
886.9	14625
887.025	14781
887.149	14564
887.274	14438
887.399	14480
887.523	14290
887.648	14393
887.773	14278
887.897	14488
888.021	14393
888.146	14408
888.27	14446
888.395	14499
888.519	14492
888.643	14492
888.767	14419
888.891	14305
889.015	14244
889.139	14301
889.263	14244
889.387	14404
889.511	14415
889.635	14358
889.759	14233
889.883	14183
890.006	14351
890.13	14309
890.254	14221
890.377	14225
890.501	14035
890.624	14092
890.748	14142
890.871	14096
890.995	14065
891.118	13982
891.241	13887
891.364	13951
891.488	14111
891.611	14020
891.734	13887
891.857	14020
891.98	13955
892.103	14164
892.226	14103
892.349	13944
892.471	13772
892.594	13936
892.717	13921
892.839	13917
892.962	14050
893.085	14027
893.207	13955
893.33	13887
893.452	13879
893.575	14035
893.697	13921
893.819	14100
893.941	14191
894.064	14062
894.186	14020
894.308	13970
894.43	14100
894.552	14237
894.674	14130
894.796	13947
894.918	14111
895.04	14031
895.161	14081
895.283	14084
895.405	14054
895.526	14008
895.648	14111
895.769	14199
895.891	14157
896.012	14183
896.134	14252
896.255	14126
896.376	14168
896.498	14271
896.619	14149
896.74	14157
896.861	14233
896.982	14473
897.103	14674
897.224	14427
897.345	14385
897.466	14328
897.587	14385
897.708	14514
897.828	14511
897.949	14423
898.07	14214
898.19	14290
898.311	14579
898.431	14457
898.552	14454
898.672	14602
898.792	14492
898.913	14556
899.033	14423
899.153	14385
899.273	14225
899.393	14324
899.513	14256
899.633	14309
899.753	14278
899.873	14286
899.993	14324
900.113	14362
900.232	14385
900.352	14294
900.472	14339
900.591	14161
900.711	14237
900.83	14206
900.95	14298
901.069	14240
901.189	14065
901.308	13925
901.427	13833
901.546	13875
901.665	13875
901.784	13890
901.904	13795
902.023	13776
902.141	13575
902.26	13453
902.379	13609
902.498	13407
902.617	13331
902.735	13445
902.854	13434
902.973	13350
903.091	13270
903.21	13171
903.328	13225
903.446	13057
903.565	12996
903.683	13084
903.801	12935
903.919	13061
904.038	13042
904.156	12867
904.274	12848
904.392	12859
904.51	12837
904.627	12939
904.745	12894
904.863	12905
904.981	12669
905.098	12646
905.216	12506
905.334	12639
905.451	12574
905.569	12498
905.686	12536
905.803	12604
905.921	12376
906.038	12563
906.155	12369
906.272	12273
906.389	12300
906.506	12213
906.623	12155
906.74	12148
906.857	12041
906.974	12049
907.091	12251
907.208	12289
907.324	12216
907.441	12095
907.557	11992
907.674	11809
907.79	11805
907.907	11821
908.023	11866
908.139	11897
908.256	11866
908.372	11760
908.488	11794
908.604	11672
908.72	11668
908.836	11642
908.952	11665
909.068	11638
909.184	11767
909.3	11638
909.415	11722
909.531	11619
909.647	11395
909.762	11395
909.878	11330
909.993	11356
910.108	11345
910.224	11364
910.339	11414
910.454	11341
910.57	11330
910.685	11212
910.8	11497
910.915	11501
911.03	11288
911.145	11151
911.259	11033
911.374	11094
911.489	11048
911.604	11014
911.718	10869
911.833	10908
911.947	10755
912.062	10717
912.176	10923
912.291	10934
912.405	10847
912.519	10980
912.633	11098
912.748	10949
912.862	10927
912.976	10725
913.09	10641
913.204	10656
913.318	10706
913.431	10953
913.545	10782
913.659	10923
913.772	10748
913.886	10691
914	10664
914.113	10744
914.226	10755
914.34	10679
914.453	10535
914.566	10649
914.68	10592
914.793	10603
914.906	10375
915.019	10382
915.132	10352
915.245	10333
915.358	10348
915.47	10421
915.583	10356
915.696	10432
915.809	10512
915.921	10615
916.034	10352
916.146	10329
916.259	10329
916.371	10478
916.483	10402
916.595	10276
916.708	10287
916.82	10318
916.932	10382
917.044	10276
917.156	10207
917.268	10272
917.38	10306
917.491	10196
917.603	10268
917.715	10318
917.826	10287
917.938	10249
918.049	10044
918.161	10207
918.272	10379
918.384	10322
918.495	10249
918.606	10093
918.717	10093
918.828	10093
918.939	10124
919.05	9968
919.161	10067
919.272	9888
919.383	10032
919.494	10173
919.604	10303
919.715	10207
919.826	10078
919.936	10051
920.047	10166
920.157	10173
920.267	10299
920.378	10162
920.488	10147
920.598	10325
920.708	10451
920.818	10295
920.928	10287
921.038	10497
921.148	10413
921.258	10162
921.368	10063
921.477	9998
921.587	10044
921.697	9869
921.806	9972
921.916	9781
922.025	9675
922.134	9652
922.244	9614
922.353	9720
922.462	9542
922.571	9511
922.68	9397
922.789	9321
922.898	9405
923.007	9351
923.116	9397
923.224	9424
923.333	9374
923.442	9249
923.55	9165
923.659	9199
923.767	9260
923.876	9214
923.984	9287
924.092	9176
924.201	9237
924.309	9249
924.417	9294
924.525	9275
924.633	9214
924.741	9934
924.849	9100
924.956	9150
925.064	9127
925.172	8941
925.279	9039
925.387	9081
925.494	9017
925.602	9188
925.709	9108
925.816	9009
925.924	9047
926.031	9199
926.138	9020
926.245	9112
926.352	8967
926.459	9104
926.566	9180
926.673	8948
926.779	8963
926.886	8891
926.993	8853
927.099	8716
927.206	8712
927.312	8670
927.419	8853
927.525	8807
927.631	8785
927.737	8682
927.843	8560
927.95	8518
928.056	8667
928.162	8640
928.267	8727
928.373	9336
928.479	8727
928.585	8541
928.69	8693
928.796	8682
928.901	8617
929.007	8492
929.112	8663
929.218	8507
929.323	8492
929.428	8473
929.533	8613
929.638	8454
929.743	8488
929.848	8461
929.953	8419
930.058	8362
930.163	8210
930.267	8290
930.372	8377
930.477	8183
930.581	8465
930.685	8355
930.79	8172
930.894	8142
930.998	8180
931.103	8355
931.207	8088
931.311	7883
931.415	7833
931.519	7689
931.623	7738
