Data from test_V78500241_1700.txt Node
Date: Fri Mar 25 14:45:33 CST 2022
User: usil
Spectrometer: V785-0024
Trigger mode: 0
Integration Time (sec): 4.000000E-1
Scans to average: 1
Nonlinearity correction enabled: false
Boxcar width: 0
Storing dark spectrum: false
XAxis mode: Wavelengths
Number of Pixels in Spectrum: 1024
>>>>>Begin Spectral Data<<<<<
801.071	22215
801.214	22211
801.356	21873
801.499	21591
801.641	21705
801.783	21568
801.926	21610
802.068	21576
802.211	21389
802.353	21469
802.496	21195
802.638	21001
802.78	21207
802.923	21047
803.065	21058
803.208	20910
803.35	20956
803.492	21058
803.635	21096
803.777	21055
803.919	21017
804.061	21332
804.204	21070
804.346	20921
804.488	20944
804.63	20925
804.773	20921
804.915	20823
805.057	20990
805.199	20979
805.341	20925
805.483	21039
805.626	20902
805.768	20864
805.91	20906
806.052	20891
806.194	20773
806.336	21066
806.478	21024
806.62	20857
806.762	20941
806.904	21032
807.046	21275
807.188	21291
807.33	21218
807.472	21294
807.614	21188
807.756	21055
807.898	21131
808.04	20967
808.182	20899
808.324	20952
808.465	21070
808.607	21230
808.749	21203
808.891	21355
809.033	21450
809.174	21359
809.316	21313
809.458	21249
809.6	21260
809.741	21279
809.883	21306
810.025	21481
810.166	21454
810.308	21515
810.45	21416
810.591	21336
810.733	21211
810.875	21093
811.016	20975
811.158	21036
811.299	20864
811.441	21119
811.582	21077
811.724	21077
811.865	20956
812.007	20963
812.148	21020
812.29	20963
812.431	21249
812.573	21348
812.714	21348
812.855	21599
812.997	21606
813.138	21789
813.279	21587
813.421	21519
813.562	21473
813.703	21332
813.845	21142
813.986	20975
814.127	20769
814.268	20655
814.41	20579
814.551	20598
814.692	20754
814.833	20609
814.974	20507
815.115	20560
815.256	20431
815.397	20552
815.539	20442
815.68	20347
815.821	20317
815.962	20351
816.103	20237
816.244	20149
816.385	20122
816.526	20031
816.666	19894
816.807	19750
816.948	19871
817.089	19864
817.23	19693
817.371	19757
817.512	19643
817.653	19761
817.793	19761
817.934	19795
818.075	19799
818.216	19666
818.356	19757
818.497	19594
818.638	19415
818.778	19438
818.919	19449
819.06	19499
819.2	19632
819.341	19586
819.481	19605
819.622	19643
819.762	19955
819.903	19925
820.043	19765
820.184	19799
820.324	19635
820.465	19788
820.605	19674
820.746	19708
820.886	19586
821.026	19704
821.167	19670
821.307	19685
821.447	19578
821.588	19525
821.728	19510
821.868	19301
822.008	19164
822.149	19213
822.289	19072
822.429	18844
822.569	18837
822.709	18840
822.849	18669
822.99	18528
823.13	18563
823.27	18486
823.41	18372
823.55	18372
823.69	18407
823.83	18460
823.97	18342
824.11	18171
824.25	18155
824.389	18095
824.529	18251
824.669	18152
824.809	18224
824.949	18262
825.089	18239
825.228	18254
825.368	18007
825.508	17885
825.648	18007
825.787	17920
825.927	18133
826.067	18007
826.206	18022
826.346	17977
826.485	17942
826.625	18007
826.765	18087
826.904	18015
827.044	17764
827.183	17859
827.323	17630
827.462	17745
827.601	17661
827.741	17642
827.88	17592
828.02	17535
828.159	17630
828.298	17634
828.437	17707
828.577	17543
828.716	17729
828.855	17634
828.994	17436
829.134	17330
829.273	17482
829.412	17334
829.551	17360
829.69	17398
829.829	17341
829.968	17505
830.107	17520
830.246	17478
830.385	17337
830.524	17280
830.663	17227
830.802	17128
830.941	16927
831.08	17003
831.219	17200
831.357	17105
831.496	17231
831.635	17143
831.774	16850
831.913	16938
832.051	16820
832.19	16820
832.329	16771
832.467	16812
832.606	16626
832.744	16649
832.883	16740
833.022	16687
833.16	16717
833.299	16839
833.437	16698
833.576	16790
833.714	16831
833.852	16698
833.991	16767
834.129	16854
834.267	16736
834.406	16710
834.544	16721
834.682	16721
834.821	16801
834.959	16896
835.097	16801
835.235	16858
835.373	16744
835.511	16793
835.65	16660
835.788	16675
835.926	16512
836.064	16470
836.202	16523
836.34	16668
836.478	16767
836.615	16702
836.753	16656
836.891	16797
837.029	16698
837.167	16691
837.305	16489
837.443	16542
837.58	16481
837.718	16630
837.856	16523
837.993	16622
838.131	16440
838.269	16421
838.406	16405
838.544	16356
838.681	16211
838.819	16177
838.956	16154
839.094	16051
839.231	16139
839.369	16204
839.506	16455
839.643	16287
839.781	16166
839.918	16017
840.055	16078
840.193	16029
840.33	16006
840.467	16154
840.604	16078
840.742	16337
840.879	15865
841.016	16040
841.153	16017
841.29	16257
841.427	16025
841.564	16101
841.701	16150
841.838	16040
841.975	15892
842.112	15926
842.249	15945
842.385	15831
842.522	16002
842.659	15857
842.796	15816
842.933	15854
843.069	15736
843.206	15755
843.343	15903
843.479	15918
843.616	15812
843.752	15698
843.889	15568
844.025	15747
844.162	15595
844.298	15808
844.435	15648
844.571	15603
844.708	15701
844.844	15873
844.98	15800
845.117	15739
845.253	15587
845.389	15473
845.525	15580
845.661	15538
845.798	15454
845.934	15545
846.07	15485
846.206	15450
846.342	15603
846.478	15492
846.614	15188
846.75	15207
846.886	15230
847.022	15226
847.158	15245
847.294	15195
847.429	15313
847.565	15214
847.701	15416
847.837	15013
847.972	14952
848.108	14925
848.244	15036
848.379	14872
848.515	14762
848.65	14792
848.786	14880
848.921	14834
849.057	14807
849.192	14952
849.328	14929
849.463	14781
849.598	14769
849.734	14693
849.869	14705
850.004	14594
850.14	14629
850.275	14568
850.41	14530
850.545	14499
850.68	14518
850.815	14613
850.95	14545
851.085	14758
851.22	14686
851.355	14598
851.49	14571
851.625	14514
851.76	14522
851.895	14507
852.03	14473
852.165	14575
852.299	14503
852.434	14644
852.569	14644
852.703	14632
852.838	14739
852.973	14621
853.107	14568
853.242	14667
853.376	14400
853.511	14332
853.645	14400
853.78	14530
853.914	14438
854.048	14446
854.183	14488
854.317	14366
854.451	14598
854.585	14393
854.72	14339
854.854	14434
854.988	14415
855.122	14454
855.256	14309
855.39	14461
855.524	14499
855.658	14473
855.792	14514
855.926	14518
856.06	14514
856.194	14484
856.327	14488
856.461	14358
856.595	14336
856.729	14446
856.862	14541
856.996	14533
857.13	14522
857.263	14507
857.397	14575
857.53	14343
857.664	14556
857.797	14560
857.931	14663
858.064	14514
858.197	14545
858.331	14442
858.464	14377
858.597	14313
858.731	14454
858.864	14427
858.997	14454
859.13	14476
859.263	14423
859.396	14549
859.529	14427
859.662	14385
859.795	14415
859.928	14514
860.061	14678
860.194	14644
860.327	14476
860.46	14351
860.592	14495
860.725	14552
860.858	14507
860.99	14351
861.123	14244
861.256	14362
861.388	14488
861.521	14960
861.653	14374
861.786	14324
861.918	14320
862.05	14290
862.183	14385
862.315	14442
862.447	14526
862.58	14412
862.712	14229
862.844	14035
862.976	14313
863.108	14347
863.24	14651
863.372	14096
863.504	14252
863.636	14271
863.768	14145
863.9	14278
864.032	14107
864.164	14138
864.296	14214
864.428	14214
864.559	14317
864.691	14305
864.823	14248
864.954	14240
865.086	14187
865.217	14221
865.349	14164
865.48	14240
865.612	14130
865.743	14358
865.875	14149
866.006	14164
866.137	14233
866.269	14271
866.4	14206
866.531	14214
866.662	14149
866.793	14100
866.924	14153
867.055	14202
867.186	14149
867.317	14100
867.448	14107
867.579	14218
867.71	14123
867.841	14100
867.972	14206
868.103	14111
868.233	14240
868.364	14244
868.495	14324
868.625	14492
868.756	14499
868.886	14294
869.017	14431
869.147	14473
869.278	14606
869.408	14533
869.539	14488
869.669	14404
869.799	14454
869.929	14560
870.06	14602
870.19	14762
870.32	14769
870.45	14830
870.58	14811
870.71	14986
870.84	14956
870.97	14788
871.1	14758
871.23	15020
871.36	14960
871.489	14944
871.619	14929
871.749	15001
871.879	15100
872.008	15150
872.138	15024
872.267	15081
872.397	14918
872.526	14902
872.656	14891
872.785	14887
872.915	15055
873.044	15104
873.173	15062
873.303	15157
873.432	15081
873.561	15081
873.69	15123
873.819	15165
873.948	15112
874.077	15173
874.206	15032
874.335	15146
874.464	15180
874.593	15340
874.722	15325
874.851	15389
874.979	15454
875.108	15386
875.237	15363
875.365	15325
875.494	15443
875.623	15428
875.751	15397
875.88	15431
876.008	15424
876.136	15713
876.265	15785
876.393	15934
876.521	15918
876.65	15835
876.778	15797
876.906	15804
877.034	15778
877.162	15736
877.29	15812
877.418	15808
877.546	15846
877.674	15781
877.802	15857
877.93	15816
878.058	15759
878.185	15739
878.313	15838
878.441	15652
878.568	15709
878.696	15717
878.824	15876
878.951	15892
879.079	15937
879.206	16101
879.333	15991
879.461	15739
879.588	15907
879.715	15979
879.842	16120
879.97	15861
880.097	15667
880.224	15679
880.351	15698
880.478	15732
880.605	15614
880.732	15675
880.859	15907
880.986	15679
881.112	15671
881.239	15648
881.366	15462
881.493	15359
881.619	15268
881.746	15268
881.872	15378
881.999	15218
882.125	15165
882.252	15321
882.378	15294
882.505	15401
882.631	15287
882.757	15081
882.883	15230
883.01	15062
883.136	15039
883.262	15024
883.388	14986
883.514	15184
883.64	15157
883.766	15017
883.892	14921
884.018	14986
884.143	15157
884.269	15222
884.395	14807
884.52	14739
884.646	14769
884.772	14830
884.897	14727
885.023	14864
885.148	14872
885.274	15051
885.399	14979
885.524	14845
885.65	14845
885.775	14880
885.9	14792
886.025	14975
886.15	14906
886.275	14819
886.4	14697
886.525	14754
886.65	14762
886.775	14705
886.9	15005
887.025	15058
887.149	14902
887.274	14693
887.399	14587
887.523	14655
887.648	14575
887.773	14617
887.897	14769
888.021	14727
888.146	14579
888.27	14792
888.395	14796
888.519	14674
888.643	14720
888.767	14632
888.891	14632
889.015	14431
889.139	14632
889.263	14434
889.387	14613
889.511	14678
889.635	14640
889.759	14511
889.883	14537
890.006	14640
890.13	14613
890.254	14484
890.377	14476
890.501	14324
890.624	14336
890.748	14476
890.871	14317
890.995	14225
891.118	14180
891.241	14195
891.364	14271
891.488	14328
891.611	14256
891.734	14191
891.857	14396
891.98	14218
892.103	14377
892.226	14271
892.349	14298
892.471	14031
892.594	14233
892.717	14271
892.839	14161
892.962	14191
893.085	14248
893.207	14263
893.33	14081
893.452	14206
893.575	14252
893.697	14183
893.819	14419
893.941	14286
894.064	14336
894.186	14183
894.308	14157
894.43	14370
894.552	14423
894.674	14366
894.796	14233
894.918	14168
895.04	14278
895.161	14271
895.283	14313
895.405	14248
895.526	14404
895.648	14298
895.769	14358
895.891	14469
896.012	14507
896.134	14427
896.255	14339
896.376	14347
896.498	14393
896.619	14301
896.74	14408
896.861	14533
896.982	14746
897.103	14857
897.224	14663
897.345	14610
897.466	14552
897.587	14625
897.708	14746
897.828	14678
897.949	14583
898.07	14621
898.19	14663
898.311	14708
898.431	14674
898.552	14781
898.672	14857
898.792	14845
898.913	14754
899.033	14667
899.153	14720
899.273	14526
899.393	14473
899.513	14587
899.633	14575
899.753	14632
899.873	14640
899.993	14644
900.113	14499
900.232	14670
900.352	14590
900.472	14465
900.591	14503
900.711	14594
900.83	14377
900.95	14613
901.069	14522
901.189	14427
901.308	14218
901.427	14035
901.546	14199
901.665	14157
901.784	14199
901.904	14005
902.023	13890
902.141	13852
902.26	13689
902.379	13753
902.498	13658
902.617	13708
902.735	13662
902.854	13620
902.973	13575
903.091	13441
903.21	13396
903.328	13426
903.446	13324
903.565	13255
903.683	13331
903.801	13141
903.919	13213
904.038	13244
904.156	13008
904.274	13129
904.392	13118
904.51	12989
904.627	13137
904.745	13091
904.863	13080
904.981	12913
905.098	12776
905.216	12840
905.334	12829
905.451	12760
905.569	12741
905.686	12848
905.803	12757
905.921	12620
906.038	12696
906.155	12582
906.272	12521
906.389	12509
906.506	12369
906.623	12418
906.74	12365
906.857	12292
906.974	12251
907.091	12384
907.208	12441
907.324	12384
907.441	12247
907.557	12060
907.674	12102
907.79	12019
907.907	12087
908.023	12087
908.139	12072
908.256	12125
908.372	12064
908.488	11999
908.604	11920
908.72	11828
908.836	11821
908.952	11790
909.068	11893
909.184	12102
909.3	11878
909.415	11904
909.531	11851
909.647	11661
909.762	11596
909.878	11623
909.993	11710
910.108	11619
910.224	11573
910.339	11623
910.454	11532
910.57	11482
910.685	11376
910.8	11714
910.915	11653
911.03	11497
911.145	11383
911.259	11315
911.374	11307
911.489	11372
911.604	11223
911.718	11041
911.833	11067
911.947	11003
912.062	10938
912.176	11086
912.291	11064
912.405	11086
912.519	11318
912.633	11326
912.748	11124
912.862	11109
912.976	10873
913.09	10877
913.204	10904
913.318	10991
913.431	11071
913.545	11045
913.659	11147
913.772	10965
913.886	10801
914	10771
914.113	10934
914.226	10961
914.34	10942
914.453	10774
914.566	10904
914.68	10786
914.793	10748
914.906	10573
915.019	10641
915.132	10470
915.245	10527
915.358	10645
915.47	10630
915.583	10641
915.696	10588
915.809	10733
915.921	10683
916.034	10592
916.146	10481
916.259	10535
916.371	10618
916.483	10611
916.595	10565
916.708	10542
916.82	10497
916.932	10497
917.044	10485
917.156	10436
917.268	10447
917.38	10428
917.491	10478
917.603	10413
917.715	10485
917.826	10489
917.938	10382
918.049	10303
918.161	10386
918.272	10428
918.384	10508
918.495	10485
918.606	10242
918.717	10265
918.828	10280
918.939	10322
919.05	10207
919.161	10162
919.272	10166
919.383	10093
919.494	10398
919.604	10390
919.715	10329
919.826	10166
919.936	10268
920.047	10371
920.157	10398
920.267	10569
920.378	10337
920.488	10318
920.598	10459
920.708	10637
920.818	10508
920.928	10470
921.038	10634
921.148	10656
921.258	10379
921.368	10242
921.477	10135
921.587	10120
921.697	10059
921.806	10238
921.916	10071
922.025	9941
922.134	9911
922.244	9778
922.353	9880
922.462	9751
922.571	9728
922.68	9603
922.789	9511
922.898	9603
923.007	9545
923.116	9572
923.224	9511
923.333	9519
923.442	9416
923.55	9405
923.659	9462
923.767	9507
923.876	9348
923.984	9435
924.092	9382
924.201	9374
924.309	9443
924.417	9401
924.525	9389
924.633	9321
924.741	10322
924.849	9203
924.956	9389
925.064	9233
925.172	9119
925.279	9173
925.387	9241
925.494	9233
925.602	9389
925.709	9291
925.816	9157
925.924	9192
926.031	9268
926.138	9184
926.245	9287
926.352	9127
926.459	9256
926.566	9351
926.673	9207
926.779	9062
926.886	9066
926.993	8967
927.099	8895
927.206	8868
927.312	8819
927.419	9024
927.525	8982
927.631	8998
927.737	8819
927.843	8826
927.95	8708
928.056	8857
928.162	8815
928.267	8853
928.373	9431
928.479	8944
928.585	8632
928.69	8804
928.796	8849
928.901	8689
929.007	8556
929.112	8708
929.218	8750
929.323	8629
929.428	8587
929.533	8849
929.638	8492
929.743	8602
929.848	8632
929.953	8613
930.058	8530
930.163	8408
930.267	8457
930.372	8549
930.477	8370
930.581	8522
930.685	8446
930.79	8328
930.894	8309
930.998	8374
931.103	8431
931.207	8176
931.311	8058
931.415	8024
931.519	7822
931.623	7845
