Data from test_V78500241_2866.txt Node
Date: Fri Mar 25 14:53:40 CST 2022
User: usil
Spectrometer: V785-0024
Trigger mode: 0
Integration Time (sec): 4.000000E-1
Scans to average: 1
Nonlinearity correction enabled: false
Boxcar width: 0
Storing dark spectrum: false
XAxis mode: Wavelengths
Number of Pixels in Spectrum: 1024
>>>>>Begin Spectral Data<<<<<
801.071	22169
801.214	22021
801.356	21622
801.499	21701
801.641	21473
801.783	21412
801.926	21405
802.068	21393
802.211	21370
802.353	21291
802.496	21051
802.638	20963
802.78	20887
802.923	20830
803.065	20773
803.208	20781
803.35	20739
803.492	20842
803.635	20845
803.777	20811
803.919	20895
804.061	21150
804.204	20838
804.346	20743
804.488	20636
804.63	20667
804.773	20655
804.915	20731
805.057	20724
805.199	20632
805.341	20720
805.483	20754
805.626	20758
805.768	20602
805.91	20716
806.052	20750
806.194	20640
806.336	20819
806.478	20682
806.62	20606
806.762	20708
806.904	20845
807.046	21066
807.188	21020
807.33	21108
807.472	21066
807.614	20963
807.756	20777
807.898	20796
808.04	20701
808.182	20621
808.324	20785
808.465	20670
808.607	20918
808.749	21116
808.891	21043
809.033	21249
809.174	21077
809.316	21032
809.458	21154
809.6	20887
809.741	21188
809.883	21157
810.025	21127
810.166	21214
810.308	21184
810.45	21108
810.591	21100
810.733	20899
810.875	20902
811.016	20788
811.158	20708
811.299	20857
811.441	20960
811.582	20956
811.724	20899
811.865	20815
812.007	20712
812.148	20731
812.29	20807
812.431	20872
812.573	21070
812.714	21135
812.855	21256
812.997	21317
813.138	21507
813.279	21359
813.421	21279
813.562	21207
813.703	21161
813.845	20921
813.986	20697
814.127	20438
814.268	20317
814.41	20347
814.551	20328
814.692	20480
814.833	20233
814.974	20374
815.115	20294
815.256	20275
815.397	20271
815.539	20218
815.68	20263
815.821	20054
815.962	20088
816.103	20016
816.244	19852
816.385	19868
816.526	19856
816.666	19677
816.807	19506
816.948	19502
817.089	19556
817.23	19552
817.371	19514
817.512	19483
817.653	19613
817.793	19377
817.934	19533
818.075	19438
818.216	19438
818.356	19468
818.497	19308
818.638	19198
818.778	19072
818.919	19251
819.06	19354
819.2	19312
819.341	19244
819.481	19316
819.622	19400
819.762	19677
819.903	19556
820.043	19521
820.184	19388
820.324	19495
820.465	19556
820.605	19506
820.746	19430
820.886	19270
821.026	19396
821.167	19426
821.307	19506
821.447	19327
821.588	19221
821.728	19240
821.868	18962
822.008	18856
822.149	18837
822.289	18943
822.429	18684
822.569	18517
822.709	18509
822.849	18464
822.99	18365
823.13	18346
823.27	18353
823.41	18213
823.55	18095
823.69	18190
823.83	18178
823.97	18098
824.11	17821
824.25	17973
824.389	17912
824.529	17999
824.669	17946
824.809	18007
824.949	18038
825.089	17980
825.228	17927
825.368	17828
825.508	17699
825.648	17707
825.787	17775
825.927	17821
826.067	17661
826.206	17649
826.346	17767
826.485	17745
826.625	17775
826.765	17813
826.904	17733
827.044	17547
827.183	17554
827.323	17395
827.462	17543
827.601	17334
827.741	17379
827.88	17376
828.02	17391
828.159	17448
828.298	17417
828.437	17372
828.577	17379
828.716	17490
828.855	17376
828.994	17223
829.134	17079
829.273	17208
829.412	17037
829.551	17083
829.69	17143
829.829	17064
829.968	17231
830.107	17204
830.246	17246
830.385	17033
830.524	16991
830.663	16908
830.802	16816
830.941	16782
831.08	16694
831.219	16908
831.357	16793
831.496	16980
831.635	16744
831.774	16656
831.913	16626
832.051	16535
832.19	16443
832.329	16542
832.467	16451
832.606	16413
832.744	16493
832.883	16470
833.022	16424
833.16	16360
833.299	16558
833.437	16451
833.576	16622
833.714	16497
833.852	16569
833.991	16538
834.129	16588
834.267	16561
834.406	16592
834.544	16538
834.682	16538
834.821	16405
834.959	16698
835.097	16455
835.235	16656
835.373	16546
835.511	16584
835.65	16360
835.788	16409
835.926	16268
836.064	16341
836.202	16329
836.34	16405
836.478	16500
836.615	16356
836.753	16455
836.891	16580
837.029	16451
837.167	16344
837.305	16299
837.443	16379
837.58	16276
837.718	16291
837.856	16306
837.993	16185
838.131	16310
838.269	16280
838.406	16177
838.544	16204
838.681	16013
838.819	15991
838.956	15838
839.094	15698
839.231	15899
839.369	16013
839.506	16299
839.643	16097
839.781	15759
839.918	15747
840.055	15778
840.193	15823
840.33	15808
840.467	15694
840.604	15941
840.742	16078
840.879	15660
841.016	15774
841.153	15656
841.29	15945
841.427	15804
841.564	15850
841.701	15835
841.838	15762
841.975	15774
842.112	15747
842.249	15622
842.385	15572
842.522	15865
842.659	15690
842.796	15534
842.933	15682
843.069	15591
843.206	15526
843.343	15679
843.479	15595
843.616	15530
843.752	15443
843.889	15454
844.025	15648
844.162	15367
844.298	15507
844.435	15306
844.571	15355
844.708	15420
844.844	15584
844.98	15504
845.117	15530
845.253	15355
845.389	15306
845.525	15359
845.661	15176
845.798	15108
845.934	15184
846.07	15089
846.206	15214
846.342	15260
846.478	15154
846.614	15058
846.75	14845
846.886	14910
847.022	15036
847.158	14944
847.294	14944
847.429	15020
847.565	14960
847.701	15230
847.837	14667
847.972	14598
848.108	14792
848.244	14811
848.379	14587
848.515	14526
848.65	14594
848.786	14514
848.921	14579
849.057	14629
849.192	14587
849.328	14613
849.463	14571
849.598	14522
849.734	14556
849.869	14431
850.004	14317
850.14	14332
850.275	14389
850.41	14336
850.545	14271
850.68	14309
850.815	14301
850.95	14259
851.085	14484
851.22	14446
851.355	14339
851.49	14358
851.625	14332
851.76	14336
851.895	14244
852.03	14229
852.165	14305
852.299	14290
852.434	14362
852.569	14381
852.703	14313
852.838	14396
852.973	14400
853.107	14438
853.242	14271
853.376	14248
853.511	14016
853.645	14202
853.78	14324
853.914	14172
854.048	14115
854.183	14206
854.317	14096
854.451	14434
854.585	14157
854.72	14096
854.854	14271
854.988	14142
855.122	14111
855.256	14065
855.39	14187
855.524	14202
855.658	14237
855.792	14168
855.926	14180
856.06	14286
856.194	14336
856.327	14164
856.461	14153
856.595	14145
856.729	14001
856.862	14324
856.996	14248
857.13	14263
857.263	14385
857.397	14305
857.53	14206
857.664	14332
857.797	14298
857.931	14404
858.064	14244
858.197	14256
858.331	14225
858.464	14176
858.597	14096
858.731	14176
858.864	14275
858.997	14214
859.13	14180
859.263	14301
859.396	14358
859.529	14161
859.662	14107
859.795	14168
859.928	14214
860.061	14408
860.194	14370
860.327	14202
860.46	14271
860.592	14244
860.725	14252
860.858	14309
860.99	14191
861.123	14157
861.256	14062
861.388	14202
861.521	14785
861.653	14107
861.786	14027
861.918	14020
862.05	14142
862.183	14153
862.315	14157
862.447	14214
862.58	14202
862.712	13982
862.844	13978
862.976	13967
863.108	14069
863.24	14457
863.372	13993
863.504	13883
863.636	13925
863.768	14043
863.9	14050
864.032	13944
864.164	13959
864.296	13955
864.428	14027
864.559	14145
864.691	14065
864.823	14088
864.954	14024
865.086	14039
865.217	13959
865.349	13913
865.48	13940
865.612	13856
865.743	14039
865.875	14024
866.006	13940
866.137	13947
866.269	14024
866.4	13875
866.531	14050
866.662	13826
866.793	13906
866.924	13936
867.055	13902
867.186	13928
867.317	13871
867.448	13845
867.579	13967
867.71	13921
867.841	13879
867.972	13989
868.103	13970
868.233	13940
868.364	14001
868.495	14092
868.625	14180
868.756	14263
868.886	14073
869.017	14259
869.147	14362
869.278	14358
869.408	14195
869.539	14202
869.669	14244
869.799	14275
869.929	14358
870.06	14267
870.19	14541
870.32	14629
870.45	14549
870.58	14613
870.71	14670
870.84	14697
870.97	14636
871.1	14480
871.23	14861
871.36	14826
871.489	14708
871.619	14701
871.749	14746
871.879	14868
872.008	14948
872.138	14731
872.267	14785
872.397	14648
872.526	14743
872.656	14579
872.785	14602
872.915	14792
873.044	14895
873.173	14765
873.303	14864
873.432	14891
873.561	14853
873.69	14792
873.819	14914
873.948	15024
874.077	14921
874.206	14823
874.335	14906
874.464	14979
874.593	15100
874.722	15005
874.851	15123
874.979	15252
875.108	15298
875.237	15146
875.365	15116
875.494	15169
875.623	15157
875.751	15169
875.88	15241
876.008	15332
876.136	15348
876.265	15622
876.393	15751
876.521	15698
876.65	15698
876.778	15599
876.906	15553
877.034	15587
877.162	15519
877.29	15488
877.418	15477
877.546	15599
877.674	15652
877.802	15587
877.93	15553
878.058	15637
878.185	15424
878.313	15652
878.441	15599
878.568	15481
878.696	15488
878.824	15614
878.951	15663
879.079	15705
879.206	15953
879.333	15812
879.461	15663
879.588	15709
879.715	15698
879.842	15835
879.97	15652
880.097	15420
880.224	15405
880.351	15435
880.478	15397
880.605	15294
880.732	15386
880.859	15660
880.986	15420
881.112	15507
881.239	15340
881.366	15348
881.493	15116
881.619	15032
881.746	15173
881.872	15077
881.999	15097
882.125	15123
882.252	15165
882.378	15180
882.505	15192
882.631	15062
882.757	14838
882.883	15074
883.01	14933
883.136	14899
883.262	14739
883.388	14750
883.514	14914
883.64	14883
883.766	14781
883.892	14781
884.018	14788
884.143	14960
884.269	14845
884.395	14724
884.52	14579
884.646	14606
884.772	14522
884.897	14503
885.023	14670
885.148	14727
885.274	14727
885.399	14697
885.524	14640
885.65	14678
885.775	14625
885.9	14552
886.025	14716
886.15	14621
886.275	14560
886.4	14476
886.525	14552
886.65	14610
886.775	14632
886.9	14758
887.025	14861
887.149	14583
887.274	14461
887.399	14492
887.523	14492
887.648	14396
887.773	14328
887.897	14480
888.021	14495
888.146	14423
888.27	14518
888.395	14533
888.519	14503
888.643	14499
888.767	14571
888.891	14298
889.015	14263
889.139	14454
889.263	14294
889.387	14442
889.511	14473
889.635	14400
889.759	14271
889.883	14336
890.006	14282
890.13	14450
890.254	14210
890.377	14278
890.501	14164
890.624	14176
890.748	14183
890.871	14062
890.995	13944
891.118	13887
891.241	14016
891.364	14100
891.488	14088
891.611	14073
891.734	14054
891.857	14138
891.98	14027
892.103	14069
892.226	14050
892.349	14043
892.471	13917
892.594	13928
892.717	13986
892.839	13913
892.962	14012
893.085	14058
893.207	14084
893.33	13898
893.452	13993
893.575	14142
893.697	13936
893.819	14225
893.941	14263
894.064	14180
894.186	13978
894.308	13947
894.43	14164
894.552	14317
894.674	14161
894.796	13955
894.918	14020
895.04	14039
895.161	14103
895.283	14191
895.405	14031
895.526	14145
895.648	14157
895.769	14218
895.891	14202
896.012	14298
896.134	14119
896.255	14157
896.376	14195
896.498	14290
896.619	14229
896.74	14191
896.861	14320
896.982	14602
897.103	14705
897.224	14476
897.345	14454
897.466	14362
897.587	14423
897.708	14644
897.828	14514
897.949	14419
898.07	14412
898.19	14431
898.311	14613
898.431	14484
898.552	14522
898.672	14693
898.792	14689
898.913	14606
899.033	14499
899.153	14473
899.273	14377
899.393	14389
899.513	14579
899.633	14377
899.753	14457
899.873	14339
899.993	14400
900.113	14419
900.232	14476
900.352	14328
900.472	14408
900.591	14199
900.711	14393
900.83	14278
900.95	14358
901.069	14309
901.189	14248
901.308	14046
901.427	13913
901.546	13978
901.665	13932
901.784	13940
901.904	13822
902.023	13700
902.141	13628
902.26	13540
902.379	13556
902.498	13506
902.617	13521
902.735	13518
902.854	13487
902.973	13537
903.091	13247
903.21	13225
903.328	13289
903.446	13164
903.565	13088
903.683	13107
903.801	12985
903.919	13057
904.038	13095
904.156	12947
904.274	12989
904.392	12924
904.51	13004
904.627	12890
904.745	12848
904.863	13000
904.981	12692
905.098	12677
905.216	12582
905.334	12646
905.451	12719
905.569	12551
905.686	12585
905.803	12604
905.921	12490
906.038	12509
906.155	12540
906.272	12319
906.389	12350
906.506	12213
906.623	12224
906.74	12117
906.857	11996
906.974	12045
907.091	12224
907.208	12350
907.324	12224
907.441	12171
907.557	11999
907.674	11939
907.79	11885
907.907	11836
908.023	11980
908.139	11965
908.256	11935
908.372	11771
908.488	11798
908.604	11672
908.72	11783
908.836	11726
908.952	11684
909.068	11722
909.184	11813
909.3	11699
909.415	11809
909.531	11699
909.647	11497
909.762	11459
909.878	11410
909.993	11490
910.108	11463
910.224	11391
910.339	11421
910.454	11383
910.57	11296
910.685	11223
910.8	11482
910.915	11474
911.03	11315
911.145	11181
911.259	11094
911.374	11124
911.489	11189
911.604	11048
911.718	10927
911.833	10968
911.947	10793
912.062	10748
912.176	10946
912.291	10953
912.405	10957
912.519	11067
912.633	11079
912.748	11018
912.862	10938
912.976	10854
913.09	10714
913.204	10744
913.318	10816
913.431	10938
913.545	10869
913.659	10938
913.772	10858
913.886	10656
914	10675
914.113	10824
914.226	10831
914.34	10805
914.453	10607
914.566	10805
914.68	10668
914.793	10588
914.906	10474
915.019	10405
915.132	10276
915.245	10371
915.358	10424
915.47	10516
915.583	10569
915.696	10428
915.809	10542
915.921	10577
916.034	10417
916.146	10318
916.259	10337
916.371	10531
916.483	10508
916.595	10295
916.708	10280
916.82	10375
916.932	10272
917.044	10329
917.156	10310
917.268	10280
917.38	10261
917.491	10318
917.603	10299
917.715	10337
917.826	10344
917.938	10272
918.049	10131
918.161	10230
918.272	10337
918.384	10390
918.495	10268
918.606	10154
918.717	10017
918.828	10147
918.939	10234
919.05	10032
919.161	10135
919.272	9964
919.383	9991
919.494	10169
919.604	10402
919.715	10181
919.826	10067
919.936	10150
920.047	10322
920.157	10207
920.267	10455
920.378	10200
920.488	10128
920.598	10337
920.708	10538
920.818	10367
920.928	10348
921.038	10573
921.148	10493
921.258	10306
921.368	10078
921.477	10078
921.587	10013
921.697	9968
921.806	10017
921.916	9949
922.025	9728
922.134	9682
922.244	9618
922.353	9686
922.462	9629
922.571	9523
922.68	9431
922.789	9454
922.898	9488
923.007	9359
923.116	9488
923.224	9393
923.333	9325
923.442	9351
923.55	9230
923.659	9237
923.767	9378
923.876	9317
923.984	9344
924.092	9264
924.201	9291
924.309	9230
924.417	9291
924.525	9192
924.633	9245
924.741	10169
924.849	9081
924.956	9256
925.064	9119
925.172	8914
925.279	9097
925.387	9089
925.494	9081
925.602	9211
925.709	9222
925.816	8914
925.924	9100
926.031	9142
926.138	9089
926.245	9123
926.352	9020
926.459	9161
926.566	9226
926.673	9058
926.779	9017
926.886	8963
926.993	8804
927.099	8834
927.206	8712
927.312	8708
927.419	8800
927.525	8857
927.631	8872
927.737	8781
927.843	8686
927.95	8568
928.056	8606
928.162	8724
928.267	8766
928.373	9268
928.479	8842
928.585	8541
928.69	8746
928.796	8746
928.901	8602
929.007	8522
929.112	8613
929.218	8530
929.323	8499
929.428	8541
929.533	8724
929.638	8476
929.743	8533
929.848	8621
929.953	8465
930.058	8431
930.163	8332
930.267	8313
930.372	8442
930.477	8252
930.581	8537
930.685	8377
930.79	8195
930.894	8275
930.998	8172
931.103	8328
931.207	8043
931.311	8027
931.415	7917
931.519	7761
931.623	7685
