Data from test_V78500241_1070.txt Node
Date: Fri Mar 25 14:41:10 CST 2022
User: usil
Spectrometer: V785-0024
Trigger mode: 0
Integration Time (sec): 4.000000E-1
Scans to average: 1
Nonlinearity correction enabled: false
Boxcar width: 0
Storing dark spectrum: false
XAxis mode: Wavelengths
Number of Pixels in Spectrum: 1024
>>>>>Begin Spectral Data<<<<<
801.071	22721
801.214	22717
801.356	22352
801.499	22363
801.641	22150
801.783	22101
801.926	22150
802.068	22272
802.211	22059
802.353	22002
802.496	21759
802.638	21644
802.78	21576
802.923	21526
803.065	21443
803.208	21507
803.35	21450
803.492	21492
803.635	21648
803.777	21367
803.919	21614
804.061	22002
804.204	21595
804.346	21458
804.488	21272
804.63	21401
804.773	21279
804.915	21466
805.057	21576
805.199	21412
805.341	21416
805.483	21679
805.626	21610
805.768	21378
805.91	21515
806.052	21386
806.194	21325
806.336	21504
806.478	21500
806.62	21313
806.762	21492
806.904	21835
807.046	21915
807.188	21770
807.33	21823
807.472	21778
807.614	21842
807.756	21964
807.898	21835
808.04	21701
808.182	21732
808.324	21869
808.465	21949
808.607	22177
808.749	22344
808.891	22531
809.033	22630
809.174	22474
809.316	22265
809.458	22219
809.6	22185
809.741	22128
809.883	21983
810.025	22204
810.166	22025
810.308	22093
810.45	22067
810.591	21922
810.733	21907
810.875	21766
811.016	21606
811.158	21698
811.299	21732
811.441	21797
811.582	21808
811.724	21720
811.865	21641
812.007	21614
812.148	21633
812.29	21595
812.431	21797
812.573	21937
812.714	21968
812.855	22143
812.997	22348
813.138	22306
813.279	22268
813.421	22143
813.562	22048
813.703	21945
813.845	21835
813.986	21526
814.127	21378
814.268	21393
814.41	21119
814.551	21249
814.692	21226
814.833	21135
814.974	21119
815.115	21100
815.256	20998
815.397	21036
815.539	21104
815.68	20956
815.821	20830
815.962	20899
816.103	20902
816.244	20758
816.385	20663
816.526	20705
816.666	20484
816.807	20347
816.948	20473
817.089	20393
817.23	20305
817.371	20328
817.512	20362
817.653	20317
817.793	20263
817.934	20294
818.075	20358
818.216	20336
818.356	20374
818.497	20214
818.638	20016
818.778	20043
818.919	20084
819.06	20065
819.2	20115
819.341	20298
819.481	20256
819.622	20317
819.762	20533
819.903	20511
820.043	20301
820.184	20389
820.324	20339
820.465	20412
820.605	20499
820.746	20237
820.886	20111
821.026	20275
821.167	20210
821.307	20317
821.447	20339
821.588	20088
821.728	20054
821.868	19928
822.008	19712
822.149	19677
822.289	19685
822.429	19468
822.569	19392
822.709	19327
822.849	19217
822.99	19183
823.13	19266
823.27	19209
823.41	19034
823.55	19027
823.69	19088
823.83	19008
823.97	18985
824.11	18852
824.25	18821
824.389	18829
824.529	18909
824.669	18837
824.809	18932
824.949	18920
825.089	18996
825.228	18852
825.368	18578
825.508	18578
825.648	18627
825.787	18566
825.927	18658
826.067	18612
826.206	18502
826.346	18646
826.485	18589
826.625	18574
826.765	18703
826.904	18559
827.044	18311
827.183	18315
827.323	18190
827.462	18448
827.601	18376
827.741	18388
827.88	18308
828.02	18140
828.159	18342
828.298	18289
828.437	18380
828.577	18254
828.716	18395
828.855	18395
828.994	18106
829.134	18102
829.273	18114
829.412	17969
829.551	18026
829.69	18041
829.829	18038
829.968	18045
830.107	18079
830.246	18178
830.385	17977
830.524	17878
830.663	17942
830.802	17794
830.941	17543
831.08	17665
831.219	17783
831.357	17794
831.496	17882
831.635	17691
831.774	17695
831.913	17444
832.051	17474
832.19	17433
832.329	17493
832.467	17372
832.606	17334
832.744	17417
832.883	17452
833.022	17315
833.16	17410
833.299	17360
833.437	17402
833.576	17497
833.714	17326
833.852	17482
833.991	17505
834.129	17558
834.267	17482
834.406	17497
834.544	17497
834.682	17505
834.821	17402
834.959	17520
835.097	17341
835.235	17455
835.373	17474
835.511	17414
835.65	17269
835.788	17265
835.926	17159
836.064	17064
836.202	17185
836.34	17425
836.478	17277
836.615	17250
836.753	17334
836.891	17421
837.029	17349
837.167	17360
837.305	17181
837.443	17216
837.58	17094
837.718	17223
837.856	17079
837.993	17124
838.131	17174
838.269	17067
838.406	17086
838.544	16984
838.681	16911
838.819	16774
838.956	16702
839.094	16675
839.231	16805
839.369	16862
839.506	17109
839.643	16820
839.781	16679
839.918	16603
840.055	16675
840.193	16713
840.33	16790
840.467	16767
840.604	16694
840.742	16946
840.879	16535
841.016	16554
841.153	16508
841.29	16858
841.427	16763
841.564	16797
841.701	16660
841.838	16630
841.975	16618
842.112	16679
842.249	16523
842.385	16413
842.522	16603
842.659	16531
842.796	16512
842.933	16489
843.069	16493
843.206	16436
843.343	16455
843.479	16478
843.616	16386
843.752	16310
843.889	16230
844.025	16371
844.162	16322
844.298	16382
844.435	16242
844.571	16226
844.708	16265
844.844	16314
844.98	16440
845.117	16398
845.253	16230
845.389	16207
845.525	16474
845.661	16367
845.798	16459
845.934	16618
846.07	16672
846.206	16668
846.342	16668
846.478	16447
846.614	16093
846.75	16055
846.886	15960
847.022	15884
847.158	15907
847.294	15759
847.429	15892
847.565	15793
847.701	15991
847.837	15603
847.972	15466
848.108	15686
848.244	15759
848.379	15496
848.515	15283
848.65	15348
848.786	15431
848.921	15545
849.057	15526
849.192	15530
849.328	15519
849.463	15401
849.598	15393
849.734	15298
849.869	15279
850.004	15260
850.14	15222
850.275	15203
850.41	15055
850.545	15100
850.68	15081
850.815	15256
850.95	15188
851.085	15416
851.22	15093
851.355	15268
851.49	15135
851.625	15222
851.76	15127
851.895	15032
852.03	15074
852.165	15173
852.299	15230
852.434	15180
852.569	15173
852.703	15287
852.838	15237
852.973	15355
853.107	15283
853.242	15089
853.376	15032
853.511	15043
853.645	15043
853.78	15188
853.914	15074
854.048	15093
854.183	15119
854.317	15005
854.451	15264
854.585	15017
854.72	15005
854.854	15089
854.988	15017
855.122	14971
855.256	14986
855.39	15047
855.524	15001
855.658	15138
855.792	15058
855.926	15001
856.06	15047
856.194	15089
856.327	15150
856.461	14982
856.595	14971
856.729	15020
856.862	15127
856.996	15032
857.13	15097
857.263	15165
857.397	15135
857.53	15017
857.664	15047
857.797	15165
857.931	15169
858.064	15066
858.197	15184
858.331	15005
858.464	14937
858.597	14895
858.731	15081
858.864	14975
858.997	14941
859.13	15013
859.263	14990
859.396	15108
859.529	15089
859.662	15070
859.795	14990
859.928	15017
860.061	15150
860.194	15245
860.327	15074
860.46	15032
860.592	15218
860.725	15211
860.858	15169
860.99	15062
861.123	14994
861.256	14914
861.388	15066
861.521	15584
861.653	14963
861.786	14941
861.918	14872
862.05	14849
862.183	14963
862.315	15009
862.447	15024
862.58	14902
862.712	14815
862.844	14769
862.976	14807
863.108	14891
863.24	15291
863.372	14796
863.504	14750
863.636	14773
863.768	14815
863.9	14773
864.032	14708
864.164	14842
864.296	14788
864.428	14944
864.559	14891
864.691	14880
864.823	14864
864.954	14826
865.086	14823
865.217	14796
865.349	14682
865.48	14800
865.612	14857
865.743	14941
865.875	14811
866.006	14758
866.137	14777
866.269	14750
866.4	14746
866.531	14727
866.662	14708
866.793	14705
866.924	14834
867.055	14765
867.186	14682
867.317	14724
867.448	14693
867.579	14765
867.71	14632
867.841	14594
867.972	14701
868.103	14765
868.233	14842
868.364	14788
868.495	14826
868.625	14979
868.756	15093
868.886	14887
869.017	15001
869.147	15138
869.278	15135
869.408	15058
869.539	15039
869.669	15119
869.799	15062
869.929	15165
870.06	15165
870.19	15348
870.32	15344
870.45	15332
870.58	15401
870.71	15431
870.84	15462
870.97	15351
871.1	15416
871.23	15561
871.36	15557
871.489	15572
871.619	15534
871.749	15561
871.879	15473
872.008	15698
872.138	15519
872.267	15564
872.397	15553
872.526	15481
872.656	15428
872.785	15389
872.915	15614
873.044	15633
873.173	15606
873.303	15652
873.432	15641
873.561	15648
873.69	15686
873.819	15644
873.948	15766
874.077	15618
874.206	15644
874.335	15686
874.464	15797
874.593	15975
874.722	15972
874.851	15911
874.979	15964
875.108	16078
875.237	15964
875.365	15800
875.494	15937
875.623	16067
875.751	15941
875.88	16048
876.008	16207
876.136	16257
876.265	16322
876.393	16516
876.521	16466
876.65	16424
876.778	16390
876.906	16299
877.034	16348
877.162	16481
877.29	16249
877.418	16322
877.546	16280
877.674	16299
877.802	16428
877.93	16478
878.058	16333
878.185	16344
878.313	16390
878.441	16356
878.568	16341
878.696	16455
878.824	16558
878.951	16550
879.079	16683
879.206	16892
879.333	16854
879.461	16706
879.588	16908
879.715	16873
879.842	16953
879.97	16759
880.097	16478
880.224	16371
880.351	16379
880.478	16363
880.605	16242
880.732	16276
880.859	16516
880.986	16398
881.112	16287
881.239	16246
881.366	16082
881.493	16010
881.619	16029
881.746	15934
881.872	15869
881.999	15922
882.125	15907
882.252	15899
882.378	15972
882.505	16101
882.631	15823
882.757	15835
882.883	15823
883.01	15679
883.136	15747
883.262	15584
883.388	15667
883.514	15770
883.64	15831
883.766	15595
883.892	15606
884.018	15713
884.143	15831
884.269	15930
884.395	15648
884.52	15469
884.646	15519
884.772	15439
884.897	15287
885.023	15469
885.148	15519
885.274	15557
885.399	15557
885.524	15416
885.65	15420
885.775	15564
885.9	15405
886.025	15545
886.15	15473
886.275	15412
886.4	15355
886.525	15447
886.65	15382
886.775	15370
886.9	15488
887.025	15572
887.149	15317
887.274	15294
887.399	15230
887.523	15264
887.648	15203
887.773	15100
887.897	15351
888.021	15195
888.146	15108
888.27	15378
888.395	15370
888.519	15332
888.643	15386
888.767	15374
888.891	15157
889.015	15100
889.139	15131
889.263	15119
889.387	15195
889.511	15245
889.635	15203
889.759	15009
889.883	15100
890.006	15097
890.13	15218
890.254	15032
890.377	15020
890.501	14819
890.624	14861
890.748	14994
890.871	14788
890.995	14746
891.118	14743
891.241	14800
891.364	14804
891.488	14842
891.611	14796
891.734	14716
891.857	14811
891.98	14777
892.103	14804
892.226	14887
892.349	14731
892.471	14598
892.594	14629
892.717	14735
892.839	14701
892.962	14701
893.085	14746
893.207	14648
893.33	14598
893.452	14625
893.575	14853
893.697	14716
893.819	14906
893.941	14902
894.064	14868
894.186	14815
894.308	14651
894.43	14796
894.552	14918
894.674	14933
894.796	14701
894.918	14735
895.04	14815
895.161	14838
895.283	14864
895.405	14667
895.526	14769
895.648	14785
895.769	14830
895.891	14979
896.012	14887
896.134	14986
896.255	14990
896.376	14876
896.498	14781
896.619	14861
896.74	14952
896.861	14933
896.982	15226
897.103	15317
897.224	15203
897.345	15176
897.466	15039
897.587	15207
897.708	15226
897.828	15150
897.949	15226
898.07	15039
898.19	15097
898.311	15310
898.431	15146
898.552	15176
898.672	15351
898.792	15298
898.913	15279
899.033	15112
899.153	15169
899.273	14948
899.393	15097
899.513	15058
899.633	15001
899.753	15116
899.873	14971
899.993	15116
900.113	15066
900.232	15017
900.352	15066
900.472	14956
900.591	14937
900.711	14887
900.83	14830
900.95	15001
901.069	15108
901.189	14845
901.308	14762
901.427	14556
901.546	14560
901.665	14625
901.784	14667
901.904	14450
902.023	14351
902.141	14218
902.26	14199
902.379	14275
902.498	14149
902.617	14111
902.735	14161
902.854	14054
902.973	14157
903.091	13970
903.21	13856
903.328	13894
903.446	13811
903.565	13708
903.683	13772
903.801	13647
903.919	13750
904.038	13601
904.156	13468
904.274	13552
904.392	13422
904.51	13480
904.627	13525
904.745	13495
904.863	13582
904.981	13297
905.098	13187
905.216	13141
905.334	13236
905.451	13263
905.569	13145
905.686	13225
905.803	13183
905.921	13080
906.038	13076
906.155	13019
906.272	12962
906.389	12932
906.506	12719
906.623	12738
906.74	12802
906.857	12711
906.974	12654
907.091	12802
907.208	12871
907.324	12848
907.441	12734
907.557	12532
907.674	12513
907.79	12513
907.907	12517
908.023	12589
908.139	12544
908.256	12475
908.372	12513
908.488	12456
908.604	12330
908.72	12239
908.836	12243
908.952	12262
909.068	12266
909.184	12315
909.3	12190
909.415	12315
909.531	12296
909.647	12068
909.762	12030
909.878	12003
909.993	12072
910.108	12003
910.224	11992
910.339	12011
910.454	11927
910.57	11870
910.685	11767
910.8	12057
910.915	12038
911.03	11889
911.145	11790
911.259	11699
911.374	11661
911.489	11688
911.604	11592
911.718	11474
911.833	11482
911.947	11410
912.062	11337
912.176	11387
912.291	11444
912.405	11486
912.519	11688
912.633	11695
912.748	11505
912.862	11471
912.976	11360
913.09	11292
913.204	11311
913.318	11345
913.431	11467
913.545	11391
913.659	11444
913.772	11349
913.886	11208
914	11273
914.113	11280
914.226	11284
914.34	11201
914.453	11155
914.566	11383
914.68	11189
914.793	11071
914.906	10965
915.019	10942
915.132	10869
915.245	10904
915.358	10961
915.47	10991
915.583	10995
915.696	11010
915.809	11060
915.921	11022
916.034	10900
916.146	10759
916.259	10850
916.371	11014
916.483	10942
916.595	10896
916.708	10843
916.82	10930
916.932	10850
917.044	10896
917.156	10820
917.268	10729
917.38	10752
917.491	10835
917.603	10782
917.715	10854
917.826	10873
917.938	10759
918.049	10687
918.161	10759
918.272	10938
918.384	10927
918.495	10748
918.606	10664
918.717	10618
918.828	10634
918.939	10603
919.05	10565
919.161	10527
919.272	10440
919.383	10451
919.494	10653
919.604	10820
919.715	10653
919.826	10580
919.936	10664
920.047	10714
920.157	10717
920.267	10915
920.378	10637
920.488	10592
920.598	10862
920.708	10984
920.818	10847
920.928	10824
921.038	11025
921.148	10953
921.258	10596
921.368	10519
921.477	10485
921.587	10443
921.697	10348
921.806	10470
921.916	10417
922.025	10276
922.134	10207
922.244	10154
922.353	10215
922.462	10051
922.571	9987
922.68	9880
922.789	9816
922.898	9861
923.007	9743
923.116	9964
923.224	9850
923.333	9857
923.442	9797
923.55	9728
923.659	9736
923.767	9808
923.876	9709
923.984	9690
924.092	9694
924.201	9789
924.309	9762
924.417	9747
924.525	9682
924.633	9641
924.741	10618
924.849	9530
924.956	9553
925.064	9469
925.172	9458
925.279	9443
925.387	9492
925.494	9511
925.602	9686
925.709	9622
925.816	9447
925.924	9462
926.031	9610
926.138	9542
926.245	9534
926.352	9424
926.459	9557
926.566	9633
926.673	9443
926.779	9363
926.886	9302
926.993	9249
927.099	9237
927.206	9131
927.312	9218
927.419	9233
927.525	9230
927.631	9203
927.737	9108
927.843	9089
927.95	8941
928.056	9100
928.162	9108
928.267	9165
928.373	9755
928.479	9100
928.585	8982
928.69	9100
928.796	9108
928.901	9009
929.007	8853
929.112	9066
929.218	8887
929.323	8929
929.428	8956
929.533	9100
929.638	8891
929.743	8849
929.848	8941
929.953	8834
930.058	8769
930.163	8640
930.267	8762
930.372	8819
930.477	8648
930.581	8823
930.685	8693
930.79	8598
930.894	8613
930.998	8598
931.103	8632
931.207	8438
931.311	8339
931.415	8279
931.519	8100
931.623	8065
