Data from test_V78500241_1103.txt Node
Date: Fri Mar 25 14:41:23 CST 2022
User: usil
Spectrometer: V785-0024
Trigger mode: 0
Integration Time (sec): 4.000000E-1
Scans to average: 1
Nonlinearity correction enabled: false
Boxcar width: 0
Storing dark spectrum: false
XAxis mode: Wavelengths
Number of Pixels in Spectrum: 1024
>>>>>Begin Spectral Data<<<<<
801.071	22706
801.214	22500
801.356	22386
801.499	22219
801.641	22124
801.783	22025
801.926	21934
802.068	21892
802.211	21804
802.353	21793
802.496	21549
802.638	21507
802.78	21496
802.923	21473
803.065	21317
803.208	21389
803.35	21321
803.492	21473
803.635	21595
803.777	21454
803.919	21420
804.061	21720
804.204	21519
804.346	21256
804.488	21233
804.63	21412
804.773	21249
804.915	21348
805.057	21420
805.199	21401
805.341	21378
805.483	21473
805.626	21256
805.768	21283
805.91	21195
806.052	21249
806.194	21199
806.336	21374
806.478	21397
806.62	21249
806.762	21317
806.904	21420
807.046	21873
807.188	21720
807.33	21705
807.472	21694
807.614	21705
807.756	21656
807.898	21538
808.04	21454
808.182	21603
808.324	21515
808.465	21671
808.607	21922
808.749	22048
808.891	22101
809.033	22303
809.174	22124
809.316	21968
809.458	22029
809.6	21876
809.741	21880
809.883	21918
810.025	22044
810.166	21827
810.308	21956
810.45	21835
810.591	21800
810.733	21705
810.875	21629
811.016	21504
811.158	21397
811.299	21580
811.441	21637
811.582	21690
811.724	21485
811.865	21488
812.007	21405
812.148	21454
812.29	21523
812.431	21739
812.573	21907
812.714	21964
812.855	22074
812.997	22097
813.138	22200
813.279	22017
813.421	22006
813.562	21972
813.703	21804
813.845	21633
813.986	21378
814.127	21169
814.268	21085
814.41	21142
814.551	21036
814.692	21104
814.833	20998
814.974	20948
815.115	21017
815.256	20899
815.397	20891
815.539	20956
815.68	20804
815.821	20705
815.962	20777
816.103	20739
816.244	20640
816.385	20590
816.526	20594
816.666	20370
816.807	20221
816.948	20328
817.089	20309
817.23	20286
817.371	20206
817.512	20244
817.653	20138
817.793	20126
817.934	20248
818.075	20256
818.216	20172
818.356	20058
818.497	20046
818.638	19845
818.778	19776
818.919	19799
819.06	19921
819.2	19936
819.341	20081
819.481	19986
819.622	20138
819.762	20278
819.903	20419
820.043	20221
820.184	20195
820.324	20286
820.465	20195
820.605	20103
820.746	20115
820.886	20039
821.026	20092
821.167	20100
821.307	20233
821.447	20031
821.588	19951
821.728	19750
821.868	19776
822.008	19521
822.149	19460
822.289	19594
822.429	19297
822.569	19270
822.709	19270
822.849	19118
822.99	19099
823.13	19053
823.27	19027
823.41	18977
823.55	18817
823.69	18897
823.83	18802
823.97	18848
824.11	18844
824.25	18688
824.389	18517
824.529	18707
824.669	18597
824.809	18700
824.949	18738
825.089	18776
825.228	18604
825.368	18578
825.508	18384
825.648	18429
825.787	18475
825.927	18486
826.067	18407
826.206	18346
826.346	18467
826.485	18448
826.625	18350
826.765	18604
826.904	18506
827.044	18232
827.183	18190
827.323	18079
827.462	18334
827.601	18087
827.741	18114
827.88	18072
828.02	18007
828.159	18098
828.298	18140
828.437	18239
828.577	18019
828.716	18239
828.855	18095
828.994	17912
829.134	17946
829.273	17920
829.412	17866
829.551	17893
829.69	17874
829.829	18022
829.968	17988
830.107	17920
830.246	17798
830.385	17779
830.524	17813
830.663	17668
830.802	17570
830.941	17532
831.08	17433
831.219	17490
831.357	17566
831.496	17611
831.635	17505
831.774	17360
831.913	17452
832.051	17334
832.19	17242
832.329	17269
832.467	17288
832.606	17166
832.744	17200
832.883	17117
833.022	17181
833.16	17292
833.299	17299
833.437	17235
833.576	17265
833.714	17242
833.852	17334
833.991	17379
834.129	17421
834.267	17242
834.406	17353
834.544	17288
834.682	17269
834.821	17204
834.959	17493
835.097	17197
835.235	17402
835.373	17318
835.511	17269
835.65	17094
835.788	17143
835.926	17098
836.064	17029
836.202	16927
836.34	17151
836.478	17269
836.615	17140
836.753	17132
836.891	17246
837.029	17151
837.167	17075
837.305	17067
837.443	17045
837.58	17052
837.718	17094
837.856	17006
837.993	16866
838.131	17090
838.269	16934
838.406	16896
838.544	16854
838.681	16744
838.819	16596
838.956	16599
839.094	16546
839.231	16584
839.369	16645
839.506	17003
839.643	16759
839.781	16569
839.918	16523
840.055	16489
840.193	16485
840.33	16493
840.467	16603
840.604	16561
840.742	16824
840.879	16432
841.016	16485
841.153	16478
841.29	16535
841.427	16538
841.564	16569
841.701	16535
841.838	16466
841.975	16356
842.112	16466
842.249	16341
842.385	16207
842.522	16516
842.659	16318
842.796	16341
842.933	16322
843.069	16139
843.206	16344
843.343	16352
843.479	16314
843.616	16352
843.752	16169
843.889	16078
844.025	16310
844.162	16048
844.298	16177
844.435	16082
844.571	16143
844.708	16192
844.844	16272
844.98	16272
845.117	16314
845.253	16185
845.389	16059
845.525	16154
845.661	16124
845.798	16314
845.934	16333
846.07	16329
846.206	16394
846.342	16360
846.478	16090
846.614	15873
846.75	15739
846.886	15732
847.022	15732
847.158	15690
847.294	15671
847.429	15682
847.565	15572
847.701	15854
847.837	15435
847.972	15386
848.108	15557
848.244	15466
848.379	15302
848.515	15268
848.65	15348
848.786	15256
848.921	15332
849.057	15329
849.192	15340
849.328	15306
849.463	15279
849.598	15226
849.734	15249
849.869	15207
850.004	15058
850.14	15058
850.275	15131
850.41	14982
850.545	15051
850.68	14998
850.815	15116
850.95	15017
851.085	15188
851.22	15142
851.355	14986
851.49	15043
851.625	15051
851.76	15005
851.895	14864
852.03	14880
852.165	15047
852.299	15089
852.434	15214
852.569	15085
852.703	15013
852.838	15085
852.973	15157
853.107	15165
853.242	14979
853.376	14857
853.511	14918
853.645	14849
853.78	14937
853.914	14925
854.048	14849
854.183	14891
854.317	15055
854.451	15001
854.585	14910
854.72	14899
854.854	14952
854.988	14834
855.122	14925
855.256	14743
855.39	14910
855.524	15001
855.658	14880
855.792	14948
855.926	14868
856.06	14975
856.194	14967
856.327	14864
856.461	14864
856.595	14826
856.729	14807
856.862	15055
856.996	14792
857.13	14944
857.263	14982
857.397	15100
857.53	14891
857.664	15047
857.797	15085
857.931	15062
858.064	14944
858.197	15062
858.331	14967
858.464	14845
858.597	14804
858.731	14842
858.864	14773
858.997	14895
859.13	14876
859.263	14921
859.396	15093
859.529	14788
859.662	14925
859.795	14891
859.928	14967
860.061	15047
860.194	15074
860.327	14883
860.46	15036
860.592	14948
860.725	14963
860.858	15001
860.99	14849
861.123	14811
861.256	14842
861.388	15032
861.521	15633
861.653	14826
861.786	14705
861.918	14640
862.05	14826
862.183	14906
862.315	14891
862.447	14891
862.58	14925
862.712	14659
862.844	14571
862.976	14743
863.108	14678
863.24	14998
863.372	14606
863.504	14739
863.636	14682
863.768	14678
863.9	14731
864.032	14598
864.164	14644
864.296	14644
864.428	14842
864.559	14720
864.691	14743
864.823	14708
864.954	14765
865.086	14785
865.217	14579
865.349	14621
865.48	14651
865.612	14632
865.743	14864
865.875	14674
866.006	14621
866.137	14674
866.269	14575
866.4	14526
866.531	14541
866.662	14549
866.793	14583
866.924	14545
867.055	14701
867.186	14552
867.317	14541
867.448	14613
867.579	14587
867.71	14568
867.841	14571
867.972	14659
868.103	14644
868.233	14629
868.364	14655
868.495	14708
868.625	14834
868.756	14963
868.886	14781
869.017	14830
869.147	14986
869.278	15039
869.408	14838
869.539	14826
869.669	14990
869.799	14895
869.929	15017
870.06	14998
870.19	15249
870.32	15184
870.45	15199
870.58	15283
870.71	15401
870.84	15462
870.97	15294
871.1	15344
871.23	15408
871.36	15488
871.489	15428
871.619	15393
871.749	15439
871.879	15488
872.008	15622
872.138	15519
872.267	15431
872.397	15336
872.526	15249
872.656	15268
872.785	15355
872.915	15473
873.044	15572
873.173	15500
873.303	15603
873.432	15420
873.561	15622
873.69	15507
873.819	15500
873.948	15603
874.077	15606
874.206	15526
874.335	15599
874.464	15751
874.593	15895
874.722	15709
874.851	15880
874.979	15903
875.108	15949
875.237	15739
875.365	15751
875.494	15922
875.623	15873
875.751	15869
875.88	15884
876.008	16010
876.136	16105
876.265	16242
876.393	16455
876.521	16284
876.65	16333
876.778	16280
876.906	16211
877.034	16166
877.162	16284
877.29	16196
877.418	16325
877.546	16299
877.674	16215
877.802	16299
877.93	16379
878.058	16280
878.185	16162
878.313	16173
878.441	16280
878.568	16166
878.696	16329
878.824	16322
878.951	16451
879.079	16538
879.206	16748
879.333	16512
879.461	16489
879.588	16535
879.715	16565
879.842	16626
879.97	16615
880.097	16226
880.224	16185
880.351	16211
880.478	16249
880.605	16223
880.732	16101
880.859	16470
880.986	16154
881.112	16192
881.239	15991
881.366	15865
881.493	15808
881.619	15743
881.746	15804
881.872	15762
881.999	15816
882.125	15717
882.252	15781
882.378	15899
882.505	15956
882.631	15728
882.757	15496
882.883	15679
883.01	15644
883.136	15614
883.262	15447
883.388	15431
883.514	15568
883.64	15610
883.766	15595
883.892	15542
884.018	15462
884.143	15530
884.269	15663
884.395	15500
884.52	15310
884.646	15268
884.772	15226
884.897	15127
885.023	15405
885.148	15386
885.274	15454
885.399	15447
885.524	15298
885.65	15325
885.775	15325
885.9	15233
886.025	15355
886.15	15283
886.275	15252
886.4	15112
886.525	15294
886.65	15256
886.775	15249
886.9	15405
887.025	15564
887.149	15283
887.274	15108
887.399	15055
887.523	15017
887.648	15108
887.773	15009
887.897	15192
888.021	15184
888.146	15074
888.27	15192
888.395	15230
888.519	15214
888.643	15112
888.767	15108
888.891	15043
889.015	14967
889.139	14895
889.263	14963
889.387	15055
889.511	15222
889.635	15131
889.759	14963
889.883	14906
890.006	15032
890.13	15104
890.254	14952
890.377	14842
890.501	14800
890.624	14735
890.748	14853
890.871	14640
890.995	14625
891.118	14393
891.241	14594
891.364	14636
891.488	14701
891.611	14590
891.734	14678
891.857	14716
891.98	14644
892.103	14739
892.226	14632
892.349	14514
892.471	14518
892.594	14625
892.717	14651
892.839	14617
892.962	14712
893.085	14686
893.207	14617
893.33	14495
893.452	14530
893.575	14705
893.697	14617
893.819	14727
893.941	14830
894.064	14804
894.186	14503
894.308	14602
894.43	14792
894.552	14845
894.674	14800
894.796	14575
894.918	14674
895.04	14659
895.161	14705
895.283	14785
895.405	14674
895.526	14640
895.648	14754
895.769	14769
895.891	14765
896.012	14864
896.134	14765
896.255	14731
896.376	14720
896.498	14720
896.619	14830
896.74	14838
896.861	14815
896.982	15123
897.103	15188
897.224	15123
897.345	15074
897.466	14998
897.587	15017
897.708	15135
897.828	15146
897.949	14960
898.07	14899
898.19	15032
898.311	15207
898.431	15112
898.552	15135
898.672	15260
898.792	15135
898.913	15211
899.033	15123
899.153	15024
899.273	14925
899.393	14979
899.513	14963
899.633	15062
899.753	14937
899.873	14872
899.993	15089
900.113	14868
900.232	14937
900.352	14864
900.472	14853
900.591	14765
900.711	14868
900.83	14743
900.95	14906
901.069	14899
901.189	14765
901.308	14545
901.427	14446
901.546	14408
901.665	14488
901.784	14454
901.904	14332
902.023	14271
902.141	14123
902.26	14016
902.379	14020
902.498	14062
902.617	14012
902.735	14069
902.854	14096
902.973	13925
903.091	13788
903.21	13753
903.328	13746
903.446	13738
903.565	13689
903.683	13597
903.801	13510
903.919	13506
904.038	13552
904.156	13354
904.274	13422
904.392	13419
904.51	13377
904.627	13400
904.745	13400
904.863	13430
904.981	13251
905.098	13152
905.216	13137
905.334	13145
905.451	13099
905.569	13107
905.686	13107
905.803	13114
905.921	12916
906.038	13053
906.155	12913
906.272	12848
906.389	12886
906.506	12692
906.623	12673
906.74	12669
906.857	12536
906.974	12597
907.091	12627
907.208	12798
907.324	12669
907.441	12547
907.557	12464
907.674	12407
907.79	12350
907.907	12376
908.023	12517
908.139	12475
908.256	12395
908.372	12353
908.488	12330
908.604	12197
908.72	12091
908.836	12175
908.952	12190
909.068	12178
909.184	12395
909.3	12254
909.415	12228
909.531	12148
909.647	12022
909.762	11939
909.878	11931
909.993	11946
910.108	11920
910.224	11942
910.339	11965
910.454	11836
910.57	11851
910.685	11726
910.8	12049
910.915	11954
911.03	11798
911.145	11642
911.259	11570
911.374	11680
911.489	11505
911.604	11539
911.718	11356
911.833	11452
911.947	11269
912.062	11159
912.176	11379
912.291	11421
912.405	11383
912.519	11570
912.633	11665
912.748	11440
912.862	11421
912.976	11258
913.09	11193
913.204	11227
913.318	11288
913.431	11383
913.545	11376
913.659	11398
913.772	11258
913.886	11090
914	11117
914.113	11231
914.226	11288
914.34	11246
914.453	10995
914.566	11185
914.68	11140
914.793	11022
914.906	10904
915.019	10900
915.132	10828
915.245	10873
915.358	10877
915.47	10965
915.583	10904
915.696	10885
915.809	10949
915.921	11048
916.034	10896
916.146	10847
916.259	10847
916.371	10919
916.483	10965
916.595	10744
916.708	10869
916.82	10881
916.932	10778
917.044	10736
917.156	10675
917.268	10694
917.38	10645
917.491	10675
917.603	10729
917.715	10763
917.826	10824
917.938	10717
918.049	10603
918.161	10691
918.272	10809
918.384	10797
918.495	10812
918.606	10569
918.717	10474
918.828	10618
918.939	10603
919.05	10462
919.161	10637
919.272	10356
919.383	10447
919.494	10607
919.604	10824
919.715	10596
919.826	10481
919.936	10577
920.047	10618
920.157	10618
920.267	10782
920.378	10596
920.488	10630
920.598	10786
920.708	10873
920.818	10691
920.928	10782
921.038	10896
921.148	10919
921.258	10565
921.368	10462
921.477	10493
921.587	10363
921.697	10314
921.806	10531
921.916	10291
922.025	10158
922.134	10086
922.244	10128
922.353	10131
922.462	10055
922.571	9972
922.68	9804
922.789	9785
922.898	9800
923.007	9705
923.116	9797
923.224	9797
923.333	9770
923.442	9679
923.55	9675
923.659	9633
923.767	9781
923.876	9614
923.984	9770
924.092	9557
924.201	9652
924.309	9724
924.417	9679
924.525	9644
924.633	9618
924.741	10546
924.849	9424
924.956	9561
925.064	9405
925.172	9435
925.279	9378
925.387	9485
925.494	9443
925.602	9587
925.709	9500
925.816	9420
925.924	9458
926.031	9580
926.138	9389
926.245	9500
926.352	9332
926.459	9507
926.566	9534
926.673	9393
926.779	9241
926.886	9260
926.993	9157
927.099	9146
927.206	9081
927.312	9047
927.419	9116
927.525	9211
927.631	9161
927.737	9074
927.843	9066
927.95	8914
928.056	9001
928.162	9024
928.267	9062
928.373	9705
928.479	9119
928.585	8914
928.69	9043
928.796	9104
928.901	8967
929.007	8819
929.112	8948
929.218	8883
929.323	8823
929.428	8815
929.533	8979
929.638	8762
929.743	8830
929.848	8902
929.953	8807
930.058	8788
930.163	8556
930.267	8655
930.372	8758
930.477	8541
930.581	8826
930.685	8667
930.79	8552
930.894	8552
930.998	8507
931.103	8655
931.207	8332
931.311	8279
931.415	8237
931.519	8020
931.623	8062
