Data from test_V78500241_3711.txt Node
Date: Fri Mar 25 14:59:33 CST 2022
User: usil
Spectrometer: V785-0024
Trigger mode: 0
Integration Time (sec): 4.000000E-1
Scans to average: 1
Nonlinearity correction enabled: false
Boxcar width: 0
Storing dark spectrum: false
XAxis mode: Wavelengths
Number of Pixels in Spectrum: 1024
>>>>>Begin Spectral Data<<<<<
801.071	21884
801.214	21663
801.356	21580
801.499	21416
801.641	21256
801.783	21169
801.926	21291
802.068	21135
802.211	21104
802.353	21070
802.496	20887
802.638	20792
802.78	20716
802.923	20663
803.065	20625
803.208	20560
803.35	20651
803.492	20670
803.635	20667
803.777	20560
803.919	20598
804.061	20906
804.204	20629
804.346	20602
804.488	20469
804.63	20697
804.773	20450
804.915	20530
805.057	20636
805.199	20377
805.341	20522
805.483	20636
805.626	20488
805.768	20533
805.91	20640
806.052	20560
806.194	20408
806.336	20686
806.478	20419
806.62	20389
806.762	20522
806.904	20579
807.046	20845
807.188	20686
807.33	20781
807.472	20769
807.614	20632
807.756	20724
807.898	20594
808.04	20419
808.182	20583
808.324	20651
808.465	20594
808.607	20724
808.749	20815
808.891	20982
809.033	20891
809.174	20918
809.316	20777
809.458	20701
809.6	20785
809.741	20845
809.883	20834
810.025	21020
810.166	21077
810.308	21089
810.45	20952
810.591	20880
810.733	20720
810.875	20613
811.016	20549
811.158	20488
811.299	20845
811.441	20727
811.582	20724
811.724	20613
811.865	20602
812.007	20514
812.148	20507
812.29	20716
812.431	20800
812.573	20853
812.714	21009
812.855	21146
812.997	21188
813.138	21325
813.279	21146
813.421	21123
813.562	21032
813.703	20887
813.845	20697
813.986	20434
814.127	20214
814.268	20115
814.41	20191
814.551	20210
814.692	20176
814.833	20062
814.974	20054
815.115	20191
815.256	20005
815.397	20081
815.539	20001
815.68	19826
815.821	19864
815.962	19860
816.103	19841
816.244	19719
816.385	19647
816.526	19483
816.666	19460
816.807	19285
816.948	19278
817.089	19308
817.23	19274
817.371	19289
817.512	19320
817.653	19209
817.793	19179
817.934	19259
818.075	19213
818.216	19236
818.356	19259
818.497	19118
818.638	19023
818.778	18916
818.919	18932
819.06	18973
819.2	19225
819.341	19065
819.481	19171
819.622	19301
819.762	19483
819.903	19339
820.043	19339
820.184	19304
820.324	19308
820.465	19411
820.605	19282
820.746	19228
820.886	19122
821.026	19175
821.167	19255
821.307	19232
821.447	19103
821.588	19141
821.728	18943
821.868	18905
822.008	18711
822.149	18650
822.289	18673
822.429	18460
822.569	18369
822.709	18376
822.849	18247
822.99	18308
823.13	18201
823.27	18011
823.41	17973
823.55	17855
823.69	17904
823.83	18022
823.97	17923
824.11	17790
824.25	17699
824.389	17832
824.529	17893
824.669	17809
824.809	17798
824.949	17790
825.089	17805
825.228	17710
825.368	17486
825.508	17554
825.648	17520
825.787	17543
825.927	17532
826.067	17558
826.206	17516
826.346	17570
826.485	17532
826.625	17482
826.765	17547
826.904	17532
827.044	17258
827.183	17254
827.323	17166
827.462	17341
827.601	17178
827.741	17227
827.88	17280
828.02	17056
828.159	17155
828.298	17212
828.437	17277
828.577	17143
828.716	17315
828.855	17140
828.994	16999
829.134	16980
829.273	17018
829.412	16949
829.551	16915
829.69	16927
829.829	16972
829.968	17147
830.107	17018
830.246	17136
830.385	16904
830.524	16881
830.663	16740
830.802	16755
830.941	16588
831.08	16634
831.219	16592
831.357	16752
831.496	16713
831.635	16603
831.774	16531
831.913	16546
832.051	16367
832.19	16455
832.329	16459
832.467	16303
832.606	16242
832.744	16211
832.883	16280
833.022	16287
833.16	16265
833.299	16329
833.437	16341
833.576	16299
833.714	16272
833.852	16310
833.991	16398
834.129	16402
834.267	16356
834.406	16272
834.544	16272
834.682	16360
834.821	16280
834.959	16561
835.097	16367
835.235	16440
835.373	16371
835.511	16375
835.65	16158
835.788	16135
835.926	16101
836.064	16010
836.202	16154
836.34	16287
836.478	16337
836.615	16196
836.753	16325
836.891	16363
837.029	16238
837.167	16246
837.305	16139
837.443	16131
837.58	16112
837.718	16169
837.856	16048
837.993	16063
838.131	16139
838.269	16101
838.406	15956
838.544	16048
838.681	15922
838.819	15793
838.956	15633
839.094	15717
839.231	15701
839.369	15850
839.506	16006
839.643	15857
839.781	15736
839.918	15652
840.055	15709
840.193	15622
840.33	15690
840.467	15641
840.604	15713
840.742	15972
840.879	15587
841.016	15610
841.153	15587
841.29	15797
841.427	15762
841.564	15762
841.701	15667
841.838	15652
841.975	15553
842.112	15603
842.249	15462
842.385	15519
842.522	15682
842.659	15435
842.796	15488
842.933	15485
843.069	15485
843.206	15428
843.343	15603
843.479	15545
843.616	15477
843.752	15283
843.889	15226
844.025	15416
844.162	15203
844.298	15325
844.435	15260
844.571	15142
844.708	15264
844.844	15443
844.98	15431
845.117	15378
845.253	15211
845.389	15161
845.525	15184
845.661	15207
845.798	15036
845.934	15077
846.07	14990
846.206	15127
846.342	15165
846.478	15097
846.614	14872
846.75	14906
846.886	14807
847.022	14876
847.158	14868
847.294	14826
847.429	14811
847.565	14861
847.701	15077
847.837	14613
847.972	14556
848.108	14731
848.244	14686
848.379	14457
848.515	14442
848.65	14427
848.786	14518
848.921	14526
849.057	14556
849.192	14575
849.328	14454
849.463	14514
849.598	14381
849.734	14362
849.869	14328
850.004	14259
850.14	14275
850.275	14275
850.41	14100
850.545	14183
850.68	14195
850.815	14187
850.95	14240
851.085	14347
851.22	14343
851.355	14256
851.49	14142
851.625	14180
851.76	14107
851.895	14062
852.03	14111
852.165	14199
852.299	14233
852.434	14301
852.569	14298
852.703	14214
852.838	14244
852.973	14389
853.107	14419
853.242	14180
853.376	14046
853.511	13989
853.645	14077
853.78	14202
853.914	14062
854.048	14069
854.183	13997
854.317	14069
854.451	14290
854.585	14115
854.72	14084
854.854	14157
854.988	13967
855.122	14035
855.256	14008
855.39	14084
855.524	14229
855.658	14069
855.792	14088
855.926	14092
856.06	14115
856.194	14187
856.327	14176
856.461	14126
856.595	14039
856.729	14001
856.862	14286
856.996	14180
857.13	14157
857.263	14229
857.397	14168
857.53	14046
857.664	14168
857.797	14119
857.931	14210
858.064	14138
858.197	14153
858.331	14069
858.464	14001
858.597	13932
858.731	14005
858.864	14046
858.997	14054
859.13	14096
859.263	14180
859.396	14111
859.529	14050
859.662	14100
859.795	13970
859.928	14149
860.061	14199
860.194	14256
860.327	14081
860.46	14084
860.592	14233
860.725	14206
860.858	14256
860.99	14115
861.123	13986
861.256	13997
861.388	14145
861.521	14777
861.653	13890
861.786	13913
861.918	13963
862.05	14016
862.183	14024
862.315	14092
862.447	14256
862.58	14138
862.712	13814
862.844	13776
862.976	13932
863.108	13936
863.24	14324
863.372	13841
863.504	13883
863.636	13890
863.768	13887
863.9	13906
864.032	13845
864.164	13864
864.296	13887
864.428	13947
864.559	14016
864.691	13932
864.823	13906
864.954	13913
865.086	13940
865.217	13883
865.349	13803
865.48	13970
865.612	13871
865.743	13993
865.875	13860
866.006	13799
866.137	13902
866.269	13795
866.4	13822
866.531	13868
866.662	13852
866.793	13868
866.924	13712
867.055	13917
867.186	13982
867.317	13913
867.448	13700
867.579	13879
867.71	13788
867.841	13822
867.972	13852
868.103	13837
868.233	13879
868.364	13906
868.495	13963
868.625	14119
868.756	14229
868.886	14096
869.017	14107
869.147	14244
869.278	14218
869.408	14199
869.539	14142
869.669	14286
869.799	14161
869.929	14237
870.06	14267
870.19	14442
870.32	14374
870.45	14499
870.58	14503
870.71	14606
870.84	14727
870.97	14507
871.1	14514
871.23	14716
871.36	14708
871.489	14632
871.619	14712
871.749	14674
871.879	14777
872.008	14948
872.138	14754
872.267	14773
872.397	14488
872.526	14541
872.656	14434
872.785	14575
872.915	14724
873.044	14861
873.173	14720
873.303	14826
873.432	14777
873.561	14845
873.69	14819
873.819	14792
873.948	14800
874.077	14762
874.206	14708
874.335	14811
874.464	14819
874.593	15097
874.722	14963
874.851	15062
874.979	15108
875.108	15127
875.237	15039
875.365	14941
875.494	15055
875.623	15188
875.751	15093
875.88	15176
876.008	15275
876.136	15294
876.265	15599
876.393	15553
876.521	15530
876.65	15561
876.778	15526
876.906	15313
877.034	15485
877.162	15526
877.29	15363
877.418	15397
877.546	15572
877.674	15599
877.802	15553
877.93	15454
878.058	15447
878.185	15469
878.313	15401
878.441	15492
878.568	15367
878.696	15412
878.824	15496
878.951	15603
879.079	15679
879.206	15812
879.333	15728
879.461	15553
879.588	15610
879.715	15682
879.842	15743
879.97	15587
880.097	15389
880.224	15233
880.351	15424
880.478	15412
880.605	15348
880.732	15363
880.859	15519
880.986	15336
881.112	15401
881.239	15306
881.366	15146
881.493	15036
881.619	14986
881.746	15089
881.872	15043
881.999	14971
882.125	15055
882.252	15123
882.378	15047
882.505	15184
882.631	15024
882.757	14876
882.883	14815
883.01	14944
883.136	14807
883.262	14769
883.388	14670
883.514	14773
883.64	14880
883.766	14800
883.892	14670
884.018	14708
884.143	14880
884.269	14906
884.395	14644
884.52	14640
884.646	14621
884.772	14514
884.897	14381
885.023	14583
885.148	14644
885.274	14712
885.399	14545
885.524	14568
885.65	14549
885.775	14518
885.9	14590
886.025	14629
886.15	14499
886.275	14530
886.4	14541
886.525	14568
886.65	14465
886.775	14396
886.9	14640
887.025	14834
887.149	14522
887.274	14415
887.399	14351
887.523	14320
887.648	14343
887.773	14214
887.897	14419
888.021	14518
888.146	14332
888.27	14446
888.395	14511
888.519	14358
888.643	14427
888.767	14507
888.891	14305
889.015	14313
889.139	14267
889.263	14191
889.387	14320
889.511	14427
889.635	14400
889.759	14275
889.883	14218
890.006	14332
890.13	14313
890.254	14172
890.377	14183
890.501	14142
890.624	14005
890.748	14001
890.871	14008
890.995	13932
891.118	13818
891.241	13967
891.364	13936
891.488	14039
891.611	13917
891.734	13917
891.857	13936
891.98	14001
892.103	14005
892.226	13940
892.349	13959
892.471	13788
892.594	13902
892.717	13936
892.839	13921
892.962	13963
893.085	13993
893.207	13978
893.33	13830
893.452	13814
893.575	13967
893.697	13925
893.819	14084
893.941	14142
894.064	14145
894.186	13967
894.308	13887
894.43	14081
894.552	14153
894.674	14084
894.796	13932
894.918	14012
895.04	13967
895.161	14081
895.283	14088
895.405	13955
895.526	14050
895.648	14096
895.769	14096
895.891	14119
896.012	14130
896.134	14180
896.255	14142
896.376	14035
896.498	14157
896.619	14164
896.74	14046
896.861	14225
896.982	14358
897.103	14621
897.224	14442
897.345	14362
897.466	14286
897.587	14461
897.708	14473
897.828	14404
897.949	14370
898.07	14248
898.19	14347
898.311	14621
898.431	14404
898.552	14377
898.672	14480
898.792	14560
898.913	14385
899.033	14381
899.153	14332
899.273	14240
899.393	14385
899.513	14313
899.633	14404
899.753	14355
899.873	14233
899.993	14389
900.113	14317
900.232	14404
900.352	14328
900.472	14240
900.591	14138
900.711	14275
900.83	14191
900.95	14351
901.069	14366
901.189	14027
901.308	13822
901.427	13822
901.546	14001
901.665	13864
901.784	13890
901.904	13826
902.023	13590
902.141	13419
902.26	13407
902.379	13495
902.498	13373
902.617	13430
902.735	13468
902.854	13400
902.973	13411
903.091	13190
903.21	13069
903.328	13251
903.446	13065
903.565	12989
903.683	13023
903.801	12966
903.919	13008
904.038	12970
904.156	12795
904.274	12947
904.392	12787
904.51	12844
904.627	12844
904.745	12871
904.863	12768
904.981	12612
905.098	12490
905.216	12513
905.334	12597
905.451	12525
905.569	12460
905.686	12555
905.803	12551
905.921	12308
906.038	12407
906.155	12380
906.272	12213
906.389	12277
906.506	12159
906.623	12167
906.74	12117
906.857	11958
906.974	12041
907.091	12155
907.208	12251
907.324	12121
907.441	12034
907.557	11923
907.674	11889
907.79	11813
907.907	11851
908.023	11824
908.139	11889
908.256	11870
908.372	11771
908.488	11832
908.604	11668
908.72	11585
908.836	11623
908.952	11619
909.068	11665
909.184	11672
909.3	11634
909.415	11653
909.531	11646
909.647	11474
909.762	11436
909.878	11376
909.993	11433
910.108	11368
910.224	11334
910.339	11387
910.454	11292
910.57	11288
910.685	11216
910.8	11459
910.915	11356
911.03	11288
911.145	11064
911.259	11132
911.374	11056
911.489	11079
911.604	10980
911.718	10889
911.833	10923
911.947	10805
912.062	10721
912.176	10942
912.291	10873
912.405	10847
912.519	11090
912.633	11056
912.748	10953
912.862	10862
912.976	10736
913.09	10660
913.204	10645
913.318	10805
913.431	10767
913.545	10869
913.659	10850
913.772	10767
913.886	10672
914	10592
914.113	10675
914.226	10824
914.34	10649
914.453	10531
914.566	10733
914.68	10569
914.793	10546
914.906	10398
915.019	10337
915.132	10280
915.245	10318
915.358	10424
915.47	10318
915.583	10424
915.696	10405
915.809	10561
915.921	10523
916.034	10398
916.146	10318
916.259	10363
916.371	10440
916.483	10413
916.595	10310
916.708	10280
916.82	10253
916.932	10253
917.044	10284
917.156	10246
917.268	10154
917.38	10173
917.491	10185
917.603	10188
917.715	10291
917.826	10314
917.938	10246
918.049	10169
918.161	10291
918.272	10363
918.384	10432
918.495	10196
918.606	10105
918.717	10074
918.828	10093
918.939	10150
919.05	9983
919.161	10120
919.272	9888
919.383	10040
919.494	10139
919.604	10242
919.715	10124
919.826	9941
919.936	10105
920.047	10120
920.157	10124
920.267	10314
920.378	10234
920.488	10090
920.598	10318
920.708	10394
920.818	10227
920.928	10303
921.038	10424
921.148	10421
921.258	10147
921.368	10063
921.477	9968
921.587	9956
921.697	9808
921.806	9979
921.916	9827
922.025	9679
922.134	9732
922.244	9591
922.353	9694
922.462	9606
922.571	9462
922.68	9374
922.789	9351
922.898	9450
923.007	9256
923.116	9401
923.224	9370
923.333	9321
923.442	9218
923.55	9249
923.659	9294
923.767	9332
923.876	9279
923.984	9272
924.092	9207
924.201	9287
924.309	9195
924.417	9218
924.525	9192
924.633	9203
924.741	10120
924.849	8956
924.956	9192
925.064	9013
925.172	8963
925.279	8986
925.387	9047
925.494	8990
925.602	9142
925.709	9142
925.816	9005
925.924	9047
926.031	9123
926.138	8994
926.245	9085
926.352	8952
926.459	9138
926.566	9195
926.673	8952
926.779	8876
926.886	8872
926.993	8807
927.099	8735
927.206	8678
927.312	8708
927.419	8834
927.525	8712
927.631	8766
927.737	8674
927.843	8583
927.95	8564
928.056	8663
928.162	8663
928.267	8739
928.373	9161
928.479	8739
928.585	8499
928.69	8670
928.796	8689
928.901	8549
929.007	8415
929.112	8514
929.218	8473
929.323	8499
929.428	8503
929.533	8617
929.638	8389
929.743	8408
929.848	8549
929.953	8404
930.058	8385
930.163	8267
930.267	8195
930.372	8328
930.477	8256
930.581	8492
930.685	8305
930.79	8225
930.894	8210
930.998	8229
931.103	8332
931.207	7955
931.311	7944
931.415	7883
931.519	7712
931.623	7639
