Data from test_V78500241_339.txt Node
Date: Fri Mar 25 14:36:04 CST 2022
User: usil
Spectrometer: V785-0024
Trigger mode: 0
Integration Time (sec): 4.000000E-1
Scans to average: 1
Nonlinearity correction enabled: false
Boxcar width: 0
Storing dark spectrum: false
XAxis mode: Wavelengths
Number of Pixels in Spectrum: 1024
>>>>>Begin Spectral Data<<<<<
801.071	27001
801.214	26952
801.356	26613
801.499	26541
801.641	26457
801.783	26358
801.926	26404
802.068	26263
802.211	26320
802.353	26130
802.496	25928
802.638	25978
802.78	25875
802.923	25868
803.065	25928
803.208	25807
803.35	25856
803.492	25875
803.635	26043
803.777	25837
803.919	26039
804.061	26286
804.204	26103
804.346	25963
804.488	25814
804.63	25890
804.773	25700
804.915	25932
805.057	25974
805.199	25909
805.341	25791
805.483	25925
805.626	25883
805.768	25750
805.91	25871
806.052	25963
806.194	25738
806.336	26050
806.478	25928
806.62	25757
806.762	25913
806.904	26161
807.046	26317
807.188	26225
807.33	26149
807.472	26282
807.614	26088
807.756	26282
807.898	26187
808.04	26100
808.182	25982
808.324	26046
808.465	26157
808.607	26267
808.749	26320
808.891	26453
809.033	26594
809.174	26560
809.316	26450
809.458	26492
809.6	26275
809.741	26393
809.883	26473
810.025	26465
810.166	26625
810.308	26617
810.45	26389
810.591	26423
810.733	26324
810.875	26339
811.016	26191
811.158	26153
811.299	26240
811.441	26446
811.582	26453
811.724	26218
811.865	26180
812.007	26286
812.148	26221
812.29	26244
812.431	26366
812.573	26473
812.714	26587
812.855	26678
812.997	26819
813.138	26895
813.279	26906
813.421	26838
813.562	26571
813.703	26583
813.845	26511
813.986	26115
814.127	25906
814.268	25932
814.41	25879
814.551	25746
814.692	25841
814.833	25852
814.974	25833
815.115	25837
815.256	25540
815.397	25537
815.539	25533
815.68	25426
815.821	25533
815.962	25624
816.103	25548
816.244	25430
816.385	25263
816.526	25187
816.666	25168
816.807	24932
816.948	24913
817.089	25080
817.23	24996
817.371	25050
817.512	24894
817.653	24954
817.793	24962
817.934	24791
818.075	24958
818.216	24905
818.356	24909
818.497	24711
818.638	24578
818.778	24593
818.919	24582
819.06	24711
819.2	24798
819.341	24814
819.481	24760
819.622	24951
819.762	25141
819.903	25034
820.043	25004
820.184	24863
820.324	24981
820.465	24757
820.605	24943
820.746	24707
820.886	24715
821.026	24848
821.167	24753
821.307	24928
821.447	24665
821.588	24703
821.728	24494
821.868	24243
822.008	24289
822.149	24232
822.289	24182
822.429	23897
822.569	23870
822.709	23859
822.849	23703
822.99	23779
823.13	23627
823.27	23634
823.41	23410
823.55	23452
823.69	23429
823.83	23570
823.97	23570
824.11	23296
824.25	23216
824.389	23220
824.529	23288
824.669	23315
824.809	23463
824.949	23311
825.089	23273
825.228	23292
825.368	23216
825.508	23109
825.648	23102
825.787	23010
825.927	23071
826.067	23010
826.206	22987
826.346	23121
826.485	23113
826.625	23086
826.765	23094
826.904	23109
827.044	22721
827.183	22752
827.323	22683
827.462	22774
827.601	22736
827.741	22752
827.88	22839
828.02	22580
828.159	22687
828.298	22675
828.437	22675
828.577	22637
828.716	22854
828.855	22535
828.994	22440
829.134	22421
829.273	22493
829.412	22356
829.551	22249
829.69	22462
829.829	22398
829.968	22527
830.107	22432
830.246	22402
830.385	22344
830.524	22211
830.663	22276
830.802	22097
830.941	22021
831.08	21960
831.219	22090
831.357	22013
831.496	22242
831.635	21835
831.774	21873
831.913	21785
832.051	21793
832.19	21724
832.329	21778
832.467	21618
832.606	21507
832.744	21648
832.883	21583
833.022	21629
833.16	21603
833.299	21587
833.437	21637
833.576	21766
833.714	21526
833.852	21690
833.991	21739
834.129	21705
834.267	21835
834.406	21591
834.544	21652
834.682	21614
834.821	21641
834.959	21816
835.097	21572
835.235	21686
835.373	21580
835.511	21694
835.65	21473
835.788	21462
835.926	21397
836.064	21237
836.202	21310
836.34	21534
836.478	21682
836.615	21439
836.753	21496
836.891	21511
837.029	21515
837.167	21439
837.305	21321
837.443	21264
837.58	21317
837.718	21412
837.856	21378
837.993	21313
838.131	21378
838.269	21104
838.406	21233
838.544	21157
838.681	21017
838.819	20975
838.956	20853
839.094	20785
839.231	20842
839.369	20941
839.506	21142
839.643	21013
839.781	20823
839.918	20667
840.055	20864
840.193	20800
840.33	20697
840.467	20613
840.604	20705
840.742	20982
840.879	20552
841.016	20556
841.153	20583
841.29	20785
841.427	20708
841.564	20880
841.701	20667
841.838	20564
841.975	20579
842.112	20587
842.249	20450
842.385	20423
842.522	20640
842.659	20507
842.796	20370
842.933	20427
843.069	20381
843.206	20248
843.343	20488
843.479	20358
843.616	20389
843.752	20134
843.889	20088
844.025	20298
844.162	20008
844.298	20347
844.435	20161
844.571	20081
844.708	20172
844.844	20309
844.98	20267
845.117	20263
845.253	20084
845.389	20176
845.525	20008
845.661	20100
845.798	19997
845.934	20035
846.07	20001
846.206	19978
846.342	20111
846.478	19898
846.614	19761
846.75	19552
846.886	19575
847.022	19662
847.158	19666
847.294	19719
847.429	19613
847.565	19670
847.701	19830
847.837	19392
847.972	19259
848.108	19407
848.244	19430
848.379	19278
848.515	19282
848.65	19110
848.786	19126
848.921	19202
849.057	19255
849.192	19251
849.328	19297
849.463	19099
849.598	19072
849.734	19046
849.869	19031
850.004	18916
850.14	19000
850.275	18977
850.41	18757
850.545	18882
850.68	18916
850.815	18954
850.95	18882
851.085	19095
851.22	19072
851.355	19046
851.49	18863
851.625	18844
851.76	18787
851.895	18833
852.03	18738
852.165	18882
852.299	18837
852.434	19000
852.569	19069
852.703	18924
852.838	19015
852.973	19110
853.107	18996
853.242	18916
853.376	18707
853.511	18658
853.645	18669
853.78	18852
853.914	18707
854.048	18635
854.183	18745
854.317	18753
854.451	18859
854.585	18772
854.72	18711
854.854	18833
854.988	18608
855.122	18688
855.256	18547
855.39	18715
855.524	18760
855.658	18711
855.792	18741
855.926	18734
856.06	18760
856.194	18741
856.327	18734
856.461	18570
856.595	18570
856.729	18578
856.862	18791
856.996	18772
857.13	18681
857.263	18798
857.397	18707
857.53	18654
857.664	18772
857.797	18669
857.931	18738
858.064	18700
858.197	18760
858.331	18684
858.464	18635
858.597	18566
858.731	18639
858.864	18593
858.997	18684
859.13	18578
859.263	18715
859.396	18791
859.529	18722
859.662	18559
859.795	18494
859.928	18635
860.061	18795
860.194	18810
860.327	18696
860.46	18642
860.592	18757
860.725	18821
860.858	18760
860.99	18608
861.123	18608
861.256	18639
861.388	18585
861.521	19392
861.653	18540
861.786	18464
861.918	18517
862.05	18623
862.183	18540
862.315	18768
862.447	18707
862.58	18574
862.712	18418
862.844	18350
862.976	18464
863.108	18521
863.24	18703
863.372	18319
863.504	18372
863.636	18270
863.768	18372
863.9	18384
864.032	18342
864.164	18353
864.296	18448
864.428	18521
864.559	18384
864.691	18391
864.823	18380
864.954	18475
865.086	18311
865.217	18239
865.349	18247
865.48	18334
865.612	18323
865.743	18494
865.875	18254
866.006	18254
866.137	18292
866.269	18311
866.4	18292
866.531	18224
866.662	18216
866.793	18205
866.924	18300
867.055	18201
867.186	18220
867.317	18315
867.448	18190
867.579	18163
867.71	18190
867.841	18277
867.972	18289
868.103	18311
868.233	18224
868.364	18361
868.495	18323
868.625	18433
868.756	18623
868.886	18460
869.017	18418
869.147	18574
869.278	18566
869.408	18418
869.539	18429
869.669	18597
869.799	18536
869.929	18532
870.06	18490
870.19	18734
870.32	18722
870.45	18681
870.58	18856
870.71	18928
870.84	18913
870.97	18871
871.1	18833
871.23	19053
871.36	19069
871.489	18924
871.619	18993
871.749	19042
871.879	19171
872.008	19072
872.138	19012
872.267	19088
872.397	19004
872.526	18886
872.656	18821
872.785	18787
872.915	19152
873.044	19110
873.173	18993
873.303	19095
873.432	19107
873.561	19247
873.69	19114
873.819	19103
873.948	19187
874.077	19187
874.206	19008
874.335	19031
874.464	19209
874.593	19316
874.722	19346
874.851	19369
874.979	19422
875.108	19282
875.237	19285
875.365	19244
875.494	19293
875.623	19476
875.751	19221
875.88	19289
876.008	19502
876.136	19499
876.265	19818
876.393	19879
876.521	19879
876.65	19845
876.778	19845
876.906	19746
877.034	19696
877.162	19769
877.29	19658
877.418	19708
877.546	19742
877.674	19670
877.802	19704
877.93	19681
878.058	19689
878.185	19753
878.313	19700
878.441	19620
878.568	19616
878.696	19658
878.824	19727
878.951	19757
879.079	19932
879.206	20092
879.333	19944
879.461	19822
879.588	20020
879.715	19932
879.842	20008
879.97	19909
880.097	19727
880.224	19647
880.351	19624
880.478	19677
880.605	19594
880.732	19651
880.859	19708
880.986	19662
881.112	19635
881.239	19502
881.366	19362
881.493	19244
881.619	19270
881.746	19148
881.872	19190
881.999	19164
882.125	19175
882.252	19293
882.378	19202
882.505	19331
882.631	19069
882.757	18897
882.883	18947
883.01	19129
883.136	18878
883.262	18795
883.388	18760
883.514	19050
883.64	18947
883.766	18996
883.892	18753
884.018	18783
884.143	18897
884.269	19031
884.395	18886
884.52	18639
884.646	18817
884.772	18635
884.897	18494
885.023	18738
885.148	18795
885.274	18741
885.399	18741
885.524	18620
885.65	18642
885.775	18673
885.9	18620
886.025	18730
886.15	18711
886.275	18608
886.4	18486
886.525	18555
886.65	18464
886.775	18589
886.9	18829
887.025	18825
887.149	18639
887.274	18441
887.399	18403
887.523	18308
887.648	18216
887.773	18319
887.897	18471
888.021	18414
888.146	18403
888.27	18399
888.395	18479
888.519	18494
888.643	18456
888.767	18407
888.891	18281
889.015	18114
889.139	18273
889.263	18148
889.387	18232
889.511	18338
889.635	18224
889.759	18125
889.883	18235
890.006	18152
890.13	18369
890.254	18144
890.377	18117
890.501	17965
890.624	17950
890.748	18083
890.871	18011
890.995	17783
891.118	17653
891.241	17836
891.364	17901
891.488	17840
891.611	17771
891.734	17802
891.857	17882
891.98	17855
892.103	17870
892.226	17843
892.349	17775
892.471	17615
892.594	17680
892.717	17843
892.839	17813
892.962	17786
893.085	17874
893.207	17824
893.33	17581
893.452	17699
893.575	17809
893.697	17775
893.819	17942
893.941	17939
894.064	17889
894.186	17752
894.308	17684
894.43	17684
894.552	17965
894.674	17828
894.796	17623
894.918	17885
895.04	17729
895.161	17802
895.283	17790
895.405	17634
895.526	17775
895.648	17764
895.769	17790
895.891	17843
896.012	17954
896.134	17828
896.255	17893
896.376	17859
896.498	17866
896.619	17874
896.74	17878
896.861	17939
896.982	18285
897.103	18330
897.224	18213
897.345	18133
897.466	18068
897.587	18106
897.708	18190
897.828	18216
897.949	17893
898.07	17942
898.19	17996
898.311	18155
898.431	18060
898.552	18022
898.672	18064
898.792	18190
898.913	18060
899.033	18034
899.153	17908
899.273	17779
899.393	17821
899.513	17767
899.633	17901
899.753	17771
899.873	17916
899.993	17828
900.113	17828
900.232	17889
900.352	17817
900.472	17843
900.591	17703
900.711	17870
900.83	17703
900.95	17805
901.069	17866
901.189	17649
901.308	17414
901.427	17368
901.546	17239
901.665	17231
901.784	17284
901.904	17193
902.023	17048
902.141	16790
902.26	16911
902.379	16877
902.498	16812
902.617	16866
902.735	16923
902.854	16828
902.973	16706
903.091	16405
903.21	16466
903.328	16470
903.446	16394
903.565	16333
903.683	16333
903.801	16257
903.919	16261
904.038	16295
904.156	16207
904.274	16166
904.392	16112
904.51	16071
904.627	16101
904.745	16147
904.863	16143
904.981	15873
905.098	15770
905.216	15770
905.334	15739
905.451	15808
905.569	15709
905.686	15888
905.803	15728
905.921	15595
906.038	15652
906.155	15526
906.272	15534
906.389	15504
906.506	15249
906.623	15302
906.74	15275
906.857	15382
906.974	15188
907.091	15416
907.208	15405
907.324	15302
907.441	15287
907.557	15100
907.674	14990
907.79	14868
907.907	14979
908.023	15039
908.139	15047
908.256	14868
908.372	14796
908.488	14933
908.604	14811
908.72	14693
908.836	14781
908.952	14765
909.068	14640
909.184	14754
909.3	14686
909.415	14670
909.531	14648
909.647	14533
909.762	14503
909.878	14442
909.993	14473
910.108	14450
910.224	14415
910.339	14332
910.454	14336
910.57	14286
910.685	14290
910.8	14545
910.915	14377
911.03	14294
911.145	14043
911.259	14073
911.374	14005
911.489	13993
911.604	13906
911.718	13761
911.833	13879
911.947	13784
912.062	13597
912.176	13723
912.291	13746
912.405	13757
912.519	13989
912.633	13959
912.748	13841
912.862	13757
912.976	13620
913.09	13544
913.204	13636
913.318	13620
913.431	13712
913.545	13651
913.659	13670
913.772	13605
913.886	13480
914	13502
914.113	13540
914.226	13609
914.34	13521
914.453	13472
914.566	13563
914.68	13346
914.793	13312
914.906	13324
915.019	13152
915.132	13118
915.245	13175
915.358	13175
915.47	13206
915.583	13118
915.696	13103
915.809	13259
915.921	13320
916.034	13118
916.146	13046
916.259	12993
916.371	13202
916.483	13168
916.595	12989
916.708	12928
916.82	13000
916.932	12954
917.044	13050
917.156	13023
917.268	12798
917.38	12875
917.491	12837
917.603	12821
917.715	12973
917.826	13004
917.938	12779
918.049	12764
918.161	12814
918.272	12981
918.384	13015
918.495	12920
918.606	12608
918.717	12585
918.828	12703
918.939	12711
919.05	12563
919.161	12650
919.272	12429
919.383	12509
919.494	12658
919.604	12814
919.715	12684
919.826	12608
919.936	12578
920.047	12650
920.157	12669
920.267	12779
920.378	12620
920.488	12570
920.598	12768
920.708	12958
920.818	12654
920.928	12768
921.038	12852
921.148	12840
921.258	12650
921.368	12551
921.477	12372
921.587	12441
921.697	12296
921.806	12437
921.916	12273
922.025	12114
922.134	12159
922.244	12060
922.353	12117
922.462	11889
922.571	11859
922.68	11726
922.789	11699
922.898	11680
923.007	11695
923.116	11775
923.224	11741
923.333	11741
923.442	11592
923.55	11535
923.659	11535
923.767	11604
923.876	11554
923.984	11634
924.092	11535
924.201	11543
924.309	11570
924.417	11463
924.525	11516
924.633	11406
924.741	12197
924.849	11299
924.956	11433
925.064	11292
925.172	11250
925.279	11151
925.387	11265
925.494	11174
925.602	11337
925.709	11349
925.816	11128
925.924	11280
926.031	11277
926.138	11292
926.245	11269
926.352	11083
926.459	11322
926.566	11349
926.673	11170
926.779	10980
926.886	11086
926.993	10839
927.099	10881
927.206	10866
927.312	10858
927.419	10881
927.525	10824
927.631	10942
927.737	10778
927.843	10706
927.95	10649
928.056	10717
928.162	10752
928.267	10733
928.373	11292
928.479	10816
928.585	10535
928.69	10615
928.796	10744
928.901	10653
929.007	10455
929.112	10615
929.218	10550
929.323	10478
929.428	10390
929.533	10618
929.638	10405
929.743	10455
929.848	10508
929.953	10462
930.058	10303
930.163	10211
930.267	10207
930.372	10398
930.477	10192
930.581	10371
930.685	10276
930.79	10093
930.894	10135
930.998	10082
931.103	10188
931.207	9911
931.311	9808
931.415	9686
931.519	9561
931.623	9492
