Data from test_V78500241_684.txt Node
Date: Fri Mar 25 14:38:28 CST 2022
User: usil
Spectrometer: V785-0024
Trigger mode: 0
Integration Time (sec): 4.000000E-1
Scans to average: 1
Nonlinearity correction enabled: false
Boxcar width: 0
Storing dark spectrum: false
XAxis mode: Wavelengths
Number of Pixels in Spectrum: 1024
>>>>>Begin Spectral Data<<<<<
801.071	28291
801.214	28006
801.356	27781
801.499	27717
801.641	27633
801.783	27386
801.926	27424
802.068	27340
802.211	27401
802.353	27199
802.496	26979
802.638	27074
802.78	26956
802.923	26929
803.065	26883
803.208	26895
803.35	26880
803.492	27207
803.635	27127
803.777	27009
803.919	27268
804.061	27511
804.204	27192
804.346	27161
804.488	27214
804.63	27279
804.773	27093
804.915	27203
805.057	27500
805.199	27302
805.341	27660
805.483	27686
805.626	27743
805.768	27694
805.91	27724
806.052	28044
806.194	28097
806.336	28356
806.478	28535
806.62	28569
806.762	28942
806.904	29444
807.046	29946
807.188	30311
807.33	30665
807.472	31190
807.614	31879
807.756	32651
807.898	33892
808.04	35486
808.182	37213
808.324	40040
808.465	43084
808.607	46398
808.749	49403
808.891	51298
809.033	51427
809.174	49734
809.316	46812
809.458	43278
809.6	39762
809.741	36932
809.883	35033
810.025	33264
810.166	32336
810.308	31445
810.45	30882
810.591	30159
810.733	29783
810.875	29417
811.016	29162
811.158	28805
811.299	28877
811.441	28831
811.582	28519
811.724	28398
811.865	28196
812.007	28124
812.148	28044
812.29	27899
812.431	28074
812.573	28040
812.714	28223
812.855	28040
812.997	28211
813.138	28242
813.279	28067
813.421	27930
813.562	27892
813.703	27701
813.845	27564
813.986	27214
814.127	26929
814.268	26906
814.41	26891
814.551	26754
814.692	26861
814.833	26674
814.974	26689
815.115	26712
815.256	26587
815.397	26404
815.539	26362
815.68	26358
815.821	26218
815.962	26317
816.103	26176
816.244	26142
816.385	26058
816.526	25909
816.666	25723
816.807	25655
816.948	25765
817.089	25715
817.23	25639
817.371	25552
817.512	25518
817.653	25548
817.793	25457
817.934	25381
818.075	25578
818.216	25476
818.356	25460
818.497	25324
818.638	25240
818.778	25289
818.919	25312
819.06	25095
819.2	25327
819.341	25388
819.481	25343
819.622	25597
819.762	25586
819.903	25643
820.043	25575
820.184	25464
820.324	25468
820.465	25464
820.605	25377
820.746	25392
820.886	25228
821.026	25312
821.167	25198
821.307	25381
821.447	25240
821.588	25019
821.728	25004
821.868	24635
822.008	24654
822.149	24509
822.289	24528
822.429	24410
822.569	24254
822.709	24228
822.849	24106
822.99	24068
823.13	23965
823.27	23965
823.41	23794
823.55	23745
823.69	23954
823.83	23969
823.97	23745
824.11	23627
824.25	23726
824.389	23482
824.529	23687
824.669	23478
824.809	23661
824.949	23611
825.089	23661
825.228	23615
825.368	23448
825.508	23395
825.648	23551
825.787	23497
825.927	23463
826.067	23398
826.206	23269
826.346	23440
826.485	23337
826.625	23368
826.765	23433
826.904	23463
827.044	23254
827.183	23056
827.323	23022
827.462	23113
827.601	23033
827.741	23048
827.88	23117
828.02	22892
828.159	22938
828.298	23022
828.437	23048
828.577	23010
828.716	23147
828.855	22911
828.994	22626
829.134	22691
829.273	22736
829.412	22535
829.551	22664
829.69	22778
829.829	22672
829.968	22710
830.107	22656
830.246	22694
830.385	22550
830.524	22592
830.663	22470
830.802	22462
830.941	22322
831.08	22310
831.219	22398
831.357	22337
831.496	22611
831.635	22333
831.774	22105
831.913	22154
832.051	22139
832.19	22143
832.329	22249
832.467	22067
832.606	22158
832.744	22116
832.883	22272
833.022	22261
833.16	22375
833.299	22481
833.437	22618
833.576	22771
833.714	22839
833.852	23083
833.991	23280
834.129	23269
834.267	23414
834.406	23170
834.544	23170
834.682	23025
834.821	22885
834.959	22911
835.097	22637
835.235	22580
835.373	22382
835.511	22325
835.65	22181
835.788	22143
835.926	21979
836.064	21686
836.202	21865
836.34	21899
836.478	22002
836.615	21873
836.753	21846
836.891	21873
837.029	21781
837.167	21736
837.305	21694
837.443	21629
837.58	21618
837.718	21603
837.856	21587
837.993	21587
838.131	21595
838.269	21450
838.406	21564
838.544	21393
838.681	21241
838.819	21199
838.956	20960
839.094	21020
839.231	21089
839.369	21081
839.506	21321
839.643	21310
839.781	21043
839.918	20979
840.055	21047
840.193	21005
840.33	21013
840.467	20944
840.604	20982
840.742	21226
840.879	20849
841.016	20975
841.153	21005
841.29	21028
841.427	20910
841.564	20998
841.701	20960
841.838	21024
841.975	20960
842.112	21066
842.249	20887
842.385	20701
842.522	21096
842.659	20769
842.796	20804
842.933	20750
843.069	20872
843.206	20948
843.343	20994
843.479	20960
843.616	20956
843.752	20724
843.889	20842
844.025	20986
844.162	20921
844.298	21135
844.435	21348
844.571	21477
844.708	21819
844.844	22306
844.98	22622
845.117	23185
845.253	24285
845.389	26164
845.525	29748
845.661	35767
845.798	42741
845.934	47847
846.07	49639
846.206	48133
846.342	43331
846.478	36536
846.614	30505
846.75	26549
846.886	24361
847.022	22984
847.158	22021
847.294	21416
847.429	21214
847.565	20975
847.701	20914
847.837	20362
847.972	20195
848.108	20252
848.244	20210
848.379	19959
848.515	19875
848.65	19795
848.786	19795
848.921	19928
849.057	19803
849.192	19849
849.328	19780
849.463	19674
849.598	19601
849.734	19514
849.869	19544
850.004	19422
850.14	19464
850.275	19381
850.41	19221
850.545	19308
850.68	19354
850.815	19206
850.95	19324
851.085	19548
851.22	19445
851.355	19339
851.49	19365
851.625	19335
851.76	19403
851.895	19270
852.03	19304
852.165	19377
852.299	19487
852.434	19495
852.569	19578
852.703	19460
852.838	19468
852.973	19586
853.107	19540
853.242	19510
853.376	19346
853.511	19407
853.645	19483
853.78	19704
853.914	19510
854.048	19480
854.183	19582
854.317	19597
854.451	19761
854.585	19651
854.72	19521
854.854	19590
854.988	19476
855.122	19453
855.256	19228
855.39	19392
855.524	19403
855.658	19324
855.792	19251
855.926	19350
856.06	19346
856.194	19346
856.327	19175
856.461	19225
856.595	19126
856.729	19126
856.862	19316
856.996	19225
857.13	19194
857.263	19346
857.397	19156
857.53	19118
857.664	19114
857.797	19308
857.931	19247
858.064	19160
858.197	19160
858.331	19099
858.464	19023
858.597	18924
858.731	19110
858.864	18932
858.997	19031
859.13	19103
859.263	19000
859.396	19171
859.529	19012
859.662	18905
859.795	19072
859.928	19103
860.061	19156
860.194	19225
860.327	19046
860.46	19004
860.592	19046
860.725	19156
860.858	19141
860.99	19008
861.123	18840
861.256	18825
861.388	19008
861.521	19696
861.653	18817
861.786	18738
861.918	18840
862.05	18928
862.183	18901
862.315	18852
862.447	18905
862.58	18795
862.712	18760
862.844	18711
862.976	18673
863.108	18696
863.24	18920
863.372	18555
863.504	18585
863.636	18635
863.768	18631
863.9	18696
864.032	18585
864.164	18620
864.296	18597
864.428	18654
864.559	18650
864.691	18665
864.823	18623
864.954	18738
865.086	18696
865.217	18574
865.349	18452
865.48	18604
865.612	18555
865.743	18722
865.875	18525
866.006	18456
866.137	18509
866.269	18658
866.4	18589
866.531	18566
866.662	18464
866.793	18532
866.924	18532
867.055	18563
867.186	18502
867.317	18593
867.448	18486
867.579	18426
867.71	18445
867.841	18433
867.972	18604
868.103	18540
868.233	18551
868.364	18551
868.495	18650
868.625	18829
868.756	18833
868.886	18817
869.017	18825
869.147	18871
869.278	18932
869.408	18837
869.539	18852
869.669	18787
869.799	18817
869.929	18928
870.06	18878
870.19	19183
870.32	19076
870.45	19168
870.58	19217
870.71	19388
870.84	19373
870.97	19145
871.1	19312
871.23	19434
871.36	19407
871.489	19263
871.619	19575
871.749	19533
871.879	19620
872.008	19715
872.138	19441
872.267	19529
872.397	19460
872.526	19411
872.656	19396
872.785	19480
872.915	19666
873.044	19655
873.173	19696
873.303	19757
873.432	19753
873.561	19734
873.69	19765
873.819	19795
873.948	19875
874.077	19845
874.206	19944
874.335	19894
874.464	20107
874.593	20237
874.722	20229
874.851	20271
874.979	20237
875.108	20358
875.237	20423
875.365	20339
875.494	20385
875.623	20396
875.751	20492
875.88	20533
876.008	20617
876.136	20781
876.265	20967
876.393	21283
876.521	21207
876.65	21321
876.778	21222
876.906	21241
877.034	21367
877.162	21283
877.29	21496
877.418	21622
877.546	21686
877.674	21736
877.802	21975
877.93	22029
878.058	22169
878.185	22489
878.313	22748
878.441	23102
878.568	23258
878.696	24003
878.824	24817
878.951	25921
879.079	27420
879.206	29649
879.333	31666
879.461	33332
879.588	34417
879.715	34527
879.842	33774
879.97	31871
880.097	29577
880.224	28040
880.351	26845
880.478	25894
880.605	25217
880.732	24951
880.859	24897
880.986	24319
881.112	24258
881.239	24220
881.366	24022
881.493	23954
881.619	23927
881.746	23935
881.872	23961
881.999	23927
882.125	24026
882.252	24083
882.378	24182
882.505	24292
882.631	24053
882.757	23977
882.883	23999
883.01	23916
883.136	23893
883.262	23904
883.388	23737
883.514	23863
883.64	23939
883.766	23752
883.892	23699
884.018	23665
884.143	23912
884.269	23935
884.395	23668
884.52	23634
884.646	23695
884.772	23638
884.897	23512
885.023	23623
885.148	23748
885.274	23623
885.399	23566
885.524	23322
885.65	23299
885.775	23170
885.9	22927
886.025	22889
886.15	22771
886.275	22451
886.4	22314
886.525	22318
886.65	22063
886.775	22017
886.9	22029
887.025	22051
887.149	21800
887.274	21447
887.399	21370
887.523	21344
887.648	21005
887.773	21077
887.897	21081
888.021	20975
888.146	20853
888.27	20918
888.395	20967
888.519	20758
888.643	20705
888.767	20636
888.891	20507
889.015	20351
889.139	20328
889.263	20271
889.387	20377
889.511	20476
889.635	20225
889.759	20138
889.883	20142
890.006	20096
890.13	20134
890.254	19986
890.377	19906
890.501	19776
890.624	19655
890.748	19677
890.871	19544
890.995	19343
891.118	19343
891.241	19434
891.364	19453
891.488	19499
891.611	19285
891.734	19377
891.857	19255
891.98	19304
892.103	19232
892.226	19221
892.349	19168
892.471	18935
892.594	19061
892.717	19141
892.839	18878
892.962	18958
893.085	19012
893.207	18871
893.33	18681
893.452	18837
893.575	18760
893.697	18703
893.819	18943
893.941	18996
894.064	18878
894.186	18661
894.308	18540
894.43	18787
894.552	18806
894.674	18673
894.796	18467
894.918	18502
895.04	18582
895.161	18551
895.283	18639
895.405	18467
895.526	18395
895.648	18422
895.769	18456
895.891	18464
896.012	18506
896.134	18490
896.255	18422
896.376	18399
896.498	18547
896.619	18422
896.74	18388
896.861	18475
896.982	18791
897.103	18996
897.224	18681
897.345	18551
897.466	18540
897.587	18616
897.708	18654
897.828	18738
897.949	18407
898.07	18509
898.19	18536
898.311	18570
898.431	18506
898.552	18509
898.672	18665
898.792	18608
898.913	18620
899.033	18490
899.153	18251
899.273	18281
899.393	18407
899.513	18426
899.633	18247
899.753	18346
899.873	18300
899.993	18304
900.113	18448
900.232	18330
900.352	18239
900.472	18251
900.591	18125
900.711	18091
900.83	18072
900.95	18117
901.069	18228
901.189	18057
901.308	17737
901.427	17748
901.546	17691
901.665	17779
901.784	17634
901.904	17589
902.023	17497
902.141	17277
902.26	17254
902.379	17254
902.498	17003
902.617	17105
902.735	17102
902.854	17121
902.973	17117
903.091	16786
903.21	16889
903.328	16843
903.446	16824
903.565	16622
903.683	16554
903.801	16337
903.919	16535
904.038	16565
904.156	16341
904.274	16402
904.392	16295
904.51	16367
904.627	16238
904.745	16299
904.863	16268
904.981	16078
905.098	16051
905.216	15937
905.334	15934
905.451	15956
905.569	15937
905.686	16082
905.803	15884
905.921	15823
906.038	15857
906.155	15846
906.272	15675
906.389	15618
906.506	15591
906.623	15553
906.74	15526
906.857	15378
906.974	15420
907.091	15466
907.208	15713
907.324	15519
907.441	15500
907.557	15169
907.674	15154
907.79	15123
907.907	15112
908.023	15150
908.139	15188
908.256	15157
908.372	15077
908.488	15097
908.604	14819
908.72	14880
908.836	14906
908.952	14811
909.068	14921
909.184	15009
909.3	14921
909.415	14933
909.531	14826
909.647	14579
909.762	14648
909.878	14613
909.993	14655
910.108	14587
910.224	14583
910.339	14541
910.454	14545
910.57	14381
910.685	14301
910.8	14693
910.915	14613
911.03	14419
911.145	14210
911.259	14259
911.374	14202
911.489	14111
911.604	14145
911.718	14016
911.833	14027
911.947	13887
912.062	13890
912.176	13993
912.291	14035
912.405	13967
912.519	14111
912.633	14054
912.748	13989
912.862	13921
912.976	13890
913.09	13708
913.204	13826
913.318	13753
913.431	13822
913.545	13879
913.659	13967
913.772	13837
913.886	13658
914	13662
914.113	13677
914.226	13731
914.34	13856
914.453	13605
914.566	13685
914.68	13590
914.793	13590
914.906	13377
915.019	13384
915.132	13259
915.245	13388
915.358	13381
915.47	13445
915.583	13339
915.696	13377
915.809	13457
915.921	13472
916.034	13282
916.146	13244
916.259	13236
916.371	13441
916.483	13426
916.595	13327
916.708	13327
916.82	13343
916.932	13206
917.044	13320
917.156	13232
917.268	13164
917.38	13118
917.491	13065
917.603	13114
917.715	13198
917.826	13118
917.938	13015
918.049	12958
918.161	13034
918.272	13122
918.384	13126
918.495	13053
918.606	12863
918.717	12848
918.828	12821
918.939	12871
919.05	12677
919.161	12810
919.272	12559
919.383	12627
919.494	12840
919.604	13008
919.715	12814
919.826	12745
919.936	12738
920.047	12928
920.157	12798
920.267	12970
920.378	12852
920.488	12779
920.598	12932
920.708	13107
920.818	12958
920.928	12913
921.038	13164
921.148	13015
921.258	12745
921.368	12677
921.477	12597
921.587	12517
921.697	12448
921.806	12604
921.916	12418
922.025	12254
922.134	12175
922.244	12277
922.353	12232
922.462	12140
922.571	12030
922.68	11878
922.789	11874
922.898	11836
923.007	11779
923.116	11889
923.224	11893
923.333	11908
923.442	11710
923.55	11718
923.659	11817
923.767	11741
923.876	11646
923.984	11783
924.092	11642
924.201	11703
924.309	11615
924.417	11661
924.525	11585
924.633	11535
924.741	12540
924.849	11459
924.956	11497
925.064	11414
925.172	11280
925.279	11372
925.387	11398
925.494	11410
925.602	11501
925.709	11421
925.816	11326
925.924	11353
926.031	11482
926.138	11349
926.245	11402
926.352	11318
926.459	11349
926.566	11436
926.673	11235
926.779	11242
926.886	11197
926.993	11079
927.099	10972
927.206	11010
927.312	10976
927.419	11067
927.525	11041
927.631	10987
927.737	10900
927.843	10938
927.95	10831
928.056	10904
928.162	10816
928.267	10923
928.373	11368
928.479	10957
928.585	10752
928.69	10767
928.796	10873
928.901	10755
929.007	10546
929.112	10717
929.218	10694
929.323	10577
929.428	10546
929.533	10748
929.638	10618
929.743	10637
929.848	10546
929.953	10561
930.058	10542
930.163	10367
930.267	10367
930.372	10466
930.477	10261
930.581	10527
930.685	10417
930.79	10257
930.894	10337
930.998	10238
931.103	10314
931.207	10048
931.311	10097
931.415	9797
931.519	9660
931.623	9701
