Data from test_V78500241_2766.txt Node
Date: Fri Mar 25 14:52:58 CST 2022
User: usil
Spectrometer: V785-0024
Trigger mode: 0
Integration Time (sec): 4.000000E-1
Scans to average: 1
Nonlinearity correction enabled: false
Boxcar width: 0
Storing dark spectrum: false
XAxis mode: Wavelengths
Number of Pixels in Spectrum: 1024
>>>>>Begin Spectral Data<<<<<
801.071	21975
801.214	22006
801.356	21732
801.499	21652
801.641	21443
801.783	21454
801.926	21355
802.068	21336
802.211	21169
802.353	21211
802.496	20933
802.638	20849
802.78	20830
802.923	20781
803.065	20701
803.208	20819
803.35	20804
803.492	20823
803.635	20883
803.777	20727
803.919	20785
804.061	21119
804.204	20769
804.346	20648
804.488	20533
804.63	20705
804.773	20556
804.915	20556
805.057	20686
805.199	20571
805.341	20583
805.483	20769
805.626	20701
805.768	20434
805.91	20640
806.052	20697
806.194	20564
806.336	20819
806.478	20632
806.62	20571
806.762	20697
806.904	20864
807.046	21066
807.188	20941
807.33	20845
807.472	20990
807.614	20861
807.756	20982
807.898	20842
808.04	20735
808.182	20720
808.324	20556
808.465	20648
808.607	20800
808.749	21024
808.891	21195
809.033	21214
809.174	21039
809.316	20925
809.458	21001
809.6	20895
809.741	21176
809.883	20963
810.025	21154
810.166	21180
810.308	21116
810.45	21077
810.591	21066
810.733	20956
810.875	20697
811.016	20697
811.158	20602
811.299	20823
811.441	20994
811.582	20849
811.724	20872
811.865	20697
812.007	20727
812.148	20659
812.29	20701
812.431	20986
812.573	21036
812.714	21085
812.855	21294
812.997	21370
813.138	21507
813.279	21496
813.421	21237
813.562	21317
813.703	20967
813.845	20872
813.986	20648
814.127	20549
814.268	20396
814.41	20355
814.551	20271
814.692	20495
814.833	20161
814.974	20202
815.115	20343
815.256	20153
815.397	20202
815.539	20138
815.68	20069
815.821	19974
815.962	20119
816.103	20001
816.244	19826
816.385	19776
816.526	19769
816.666	19635
816.807	19460
816.948	19594
817.089	19502
817.23	19548
817.371	19377
817.512	19392
817.653	19400
817.793	19411
817.934	19320
818.075	19472
818.216	19457
818.356	19339
818.497	19301
818.638	19103
818.778	19148
818.919	19187
819.06	19137
819.2	19304
819.341	19308
819.481	19400
819.622	19441
819.762	19609
819.903	19518
820.043	19422
820.184	19438
820.324	19388
820.465	19529
820.605	19354
820.746	19403
820.886	19145
821.026	19289
821.167	19449
821.307	19472
821.447	19392
821.588	19126
821.728	19091
821.868	18909
822.008	18875
822.149	18840
822.289	18779
822.429	18692
822.569	18502
822.709	18509
822.849	18437
822.99	18262
823.13	18353
823.27	18289
823.41	18114
823.55	18034
823.69	18155
823.83	18117
823.97	18057
824.11	17893
824.25	17859
824.389	17958
824.529	17973
824.669	17885
824.809	17946
824.949	18053
825.089	17904
825.228	17893
825.368	17737
825.508	17684
825.648	17691
825.787	17627
825.927	17676
826.067	17623
826.206	17627
826.346	17642
826.485	17630
826.625	17661
826.765	17748
826.904	17646
827.044	17337
827.183	17535
827.323	17463
827.462	17547
827.601	17353
827.741	17448
827.88	17356
828.02	17185
828.159	17296
828.298	17372
828.437	17501
828.577	17395
828.716	17512
828.855	17353
828.994	17105
829.134	17109
829.273	17109
829.412	17151
829.551	17098
829.69	17136
829.829	17181
829.968	17174
830.107	17170
830.246	17246
830.385	17086
830.524	17029
830.663	16991
830.802	16820
830.941	16774
831.08	16763
831.219	16801
831.357	16843
831.496	17083
831.635	16774
831.774	16702
831.913	16717
832.051	16512
832.19	16558
832.329	16622
832.467	16481
832.606	16466
832.744	16447
832.883	16451
833.022	16443
833.16	16687
833.299	16550
833.437	16390
833.576	16588
833.714	16588
833.852	16531
833.991	16653
834.129	16679
834.267	16641
834.406	16531
834.544	16618
834.682	16500
834.821	16615
834.959	16702
835.097	16546
835.235	16778
835.373	16538
835.511	16603
835.65	16402
835.788	16329
835.926	16299
836.064	16257
836.202	16333
836.34	16459
836.478	16508
836.615	16451
836.753	16519
836.891	16481
837.029	16409
837.167	16398
837.305	16409
837.443	16337
837.58	16253
837.718	16344
837.856	16341
837.993	16280
838.131	16341
838.269	16310
838.406	16280
838.544	16257
838.681	16051
838.819	16010
838.956	15869
839.094	15899
839.231	15922
839.369	16010
839.506	16287
839.643	16082
839.781	15926
839.918	15800
840.055	15907
840.193	15865
840.33	15816
840.467	15857
840.604	15778
840.742	16185
840.879	15762
841.016	15720
841.153	15728
841.29	15930
841.427	15991
841.564	15888
841.701	15873
841.838	15766
841.975	15785
842.112	15762
842.249	15797
842.385	15690
842.522	15823
842.659	15732
842.796	15542
842.933	15641
843.069	15568
843.206	15641
843.343	15781
843.479	15618
843.616	15648
843.752	15500
843.889	15397
844.025	15553
844.162	15359
844.298	15447
844.435	15359
844.571	15340
844.708	15458
844.844	15614
844.98	15572
845.117	15515
845.253	15310
845.389	15233
845.525	15370
845.661	15294
845.798	15256
845.934	15272
846.07	15176
846.206	15226
846.342	15313
846.478	15165
846.614	15024
846.75	14941
846.886	14944
847.022	15089
847.158	15039
847.294	15058
847.429	15116
847.565	14986
847.701	15233
847.837	14861
847.972	14754
848.108	14769
848.244	14804
848.379	14644
848.515	14636
848.65	14636
848.786	14659
848.921	14549
849.057	14705
849.192	14701
849.328	14674
849.463	14602
849.598	14579
849.734	14507
849.869	14488
850.004	14286
850.14	14381
850.275	14396
850.41	14240
850.545	14290
850.68	14309
850.815	14419
850.95	14408
851.085	14473
851.22	14377
851.355	14423
851.49	14301
851.625	14366
851.76	14362
851.895	14168
852.03	14218
852.165	14427
852.299	14358
852.434	14370
852.569	14389
852.703	14332
852.838	14526
852.973	14568
853.107	14484
853.242	14339
853.376	14214
853.511	14065
853.645	14240
853.78	14362
853.914	14309
854.048	14199
854.183	14187
854.317	14218
854.451	14393
854.585	14317
854.72	14305
854.854	14240
854.988	14149
855.122	14233
855.256	14096
855.39	14172
855.524	14313
855.658	14320
855.792	14183
855.926	14221
856.06	14221
856.194	14301
856.327	14328
856.461	14168
856.595	14103
856.729	14237
856.862	14290
856.996	14286
857.13	14290
857.263	14298
857.397	14358
857.53	14206
857.664	14244
857.797	14339
857.931	14495
858.064	14248
858.197	14271
858.331	14191
858.464	14164
858.597	14134
858.731	14195
858.864	14229
858.997	14180
859.13	14225
859.263	14286
859.396	14301
859.529	14244
859.662	14195
859.795	14168
859.928	14259
860.061	14362
860.194	14450
860.327	14309
860.46	14240
860.592	14419
860.725	14358
860.858	14385
860.99	14172
861.123	14183
861.256	14218
861.388	14309
861.521	14880
861.653	14157
861.786	14043
861.918	14100
862.05	14138
862.183	14164
862.315	14237
862.447	14263
862.58	14123
862.712	14027
862.844	13955
862.976	14054
863.108	14043
863.24	14415
863.372	13959
863.504	13898
863.636	13967
863.768	14103
863.9	14005
864.032	14024
864.164	13970
864.296	13986
864.428	14259
864.559	14145
864.691	14126
864.823	14039
864.954	13936
865.086	14103
865.217	13947
865.349	13902
865.48	13974
865.612	14077
865.743	14126
865.875	14016
866.006	13909
866.137	14027
866.269	13951
866.4	14058
866.531	13932
866.662	13947
866.793	13986
866.924	14035
867.055	14043
867.186	13982
867.317	13974
867.448	13932
867.579	13894
867.71	13826
867.841	14008
867.972	13997
868.103	14016
868.233	14024
868.364	14069
868.495	14123
868.625	14263
868.756	14332
868.886	14126
869.017	14172
869.147	14366
869.278	14256
869.408	14271
869.539	14278
869.669	14233
869.799	14256
869.929	14415
870.06	14324
870.19	14560
870.32	14602
870.45	14583
870.58	14682
870.71	14739
870.84	14705
870.97	14583
871.1	14621
871.23	14883
871.36	14845
871.489	14693
871.619	14815
871.749	14800
871.879	14918
872.008	14918
872.138	14796
872.267	14773
872.397	14689
872.526	14629
872.656	14625
872.785	14640
872.915	14883
873.044	14899
873.173	14975
873.303	14872
873.432	14925
873.561	14925
873.69	14963
873.819	14838
873.948	15005
874.077	14914
874.206	14880
874.335	15009
874.464	14948
874.593	15154
874.722	15165
874.851	15294
874.979	15252
875.108	15321
875.237	15260
875.365	15131
875.494	15165
875.623	15214
875.751	15150
875.88	15241
876.008	15332
876.136	15428
876.265	15606
876.393	15713
876.521	15656
876.65	15591
876.778	15564
876.906	15454
877.034	15576
877.162	15568
877.29	15492
877.418	15553
877.546	15549
877.674	15591
877.802	15671
877.93	15557
878.058	15576
878.185	15454
878.313	15633
878.441	15614
878.568	15488
878.696	15606
878.824	15682
878.951	15793
879.079	15698
879.206	15922
879.333	15736
879.461	15679
879.588	15743
879.715	15778
879.842	15876
879.97	15564
880.097	15408
880.224	15408
880.351	15511
880.478	15416
880.605	15477
880.732	15443
880.859	15698
880.986	15485
881.112	15530
881.239	15332
881.366	15317
881.493	15135
881.619	15180
881.746	15180
881.872	15112
881.999	15093
882.125	15085
882.252	15146
882.378	15131
882.505	15222
882.631	15070
882.757	15039
882.883	15051
883.01	14941
883.136	14880
883.262	14815
883.388	14895
883.514	14956
883.64	15001
883.766	14883
883.892	14758
884.018	14842
884.143	14948
884.269	15028
884.395	14788
884.52	14674
884.646	14727
884.772	14602
884.897	14644
885.023	14720
885.148	14724
885.274	14838
885.399	14705
885.524	14621
885.65	14689
885.775	14750
885.9	14682
886.025	14739
886.15	14701
886.275	14636
886.4	14507
886.525	14629
886.65	14606
886.775	14625
886.9	14720
887.025	14925
887.149	14746
887.274	14571
887.399	14434
887.523	14507
887.648	14465
887.773	14339
887.897	14568
888.021	14583
888.146	14465
888.27	14533
888.395	14636
888.519	14590
888.643	14488
888.767	14583
888.891	14393
889.015	14240
889.139	14362
889.263	14240
889.387	14431
889.511	14503
889.635	14438
889.759	14294
889.883	14362
890.006	14389
890.13	14526
890.254	14328
890.377	14309
890.501	14180
890.624	14180
890.748	14256
890.871	14084
890.995	14027
891.118	13932
891.241	14050
891.364	14123
891.488	14221
891.611	13963
891.734	14077
891.857	13997
891.98	14008
892.103	14149
892.226	14058
892.349	14024
892.471	13875
892.594	14039
892.717	14008
892.839	14012
892.962	14073
893.085	14172
893.207	14092
893.33	13887
893.452	13974
893.575	14092
893.697	14043
893.819	14202
893.941	14206
894.064	14134
894.186	14054
894.308	13928
894.43	14214
894.552	14313
894.674	14218
894.796	13963
894.918	14123
895.04	14035
895.161	14149
895.283	14176
895.405	14134
895.526	14206
895.648	14191
895.769	14142
895.891	14252
896.012	14210
896.134	14210
896.255	14263
896.376	14153
896.498	14248
896.619	14271
896.74	14267
896.861	14244
896.982	14492
897.103	14697
897.224	14556
897.345	14431
897.466	14446
897.587	14469
897.708	14655
897.828	14537
897.949	14503
898.07	14389
898.19	14469
898.311	14701
898.431	14446
898.552	14484
898.672	14705
898.792	14674
898.913	14617
899.033	14598
899.153	14343
899.273	14317
899.393	14370
899.513	14465
899.633	14446
899.753	14396
899.873	14339
899.993	14465
900.113	14351
900.232	14362
900.352	14313
900.472	14218
900.591	14187
900.711	14290
900.83	14259
900.95	14313
901.069	14400
901.189	14221
901.308	13936
901.427	14005
901.546	14016
901.665	14016
901.784	13978
901.904	13879
902.023	13784
902.141	13559
902.26	13605
902.379	13628
902.498	13540
902.617	13582
902.735	13605
902.854	13502
902.973	13407
903.091	13304
903.21	13301
903.328	13206
903.446	13217
903.565	13110
903.683	13206
903.801	12954
903.919	13061
904.038	13129
904.156	12970
904.274	12996
904.392	12909
904.51	12875
904.627	12863
904.745	12977
904.863	12935
904.981	12730
905.098	12608
905.216	12719
905.334	12601
905.451	12582
905.569	12593
905.686	12749
905.803	12585
905.921	12315
906.038	12483
906.155	12460
906.272	12407
906.389	12353
906.506	12175
906.623	12216
906.74	12235
906.857	12060
906.974	12152
907.091	12216
907.208	12410
907.324	12311
907.441	12194
907.557	11939
907.674	11946
907.79	11927
907.907	11988
908.023	11977
908.139	11996
908.256	11904
908.372	11961
908.488	11809
908.604	11764
908.72	11627
908.836	11771
908.952	11707
909.068	11745
909.184	11897
909.3	11688
909.415	11798
909.531	11695
909.647	11482
909.762	11638
909.878	11452
909.993	11516
910.108	11455
910.224	11417
910.339	11452
910.454	11444
910.57	11387
910.685	11273
910.8	11452
910.915	11474
911.03	11440
911.145	11151
911.259	11155
911.374	11193
911.489	11025
911.604	11041
911.718	10965
911.833	10980
911.947	10869
912.062	10809
912.176	10919
912.291	10946
912.405	10885
912.519	11037
912.633	11204
912.748	10995
912.862	10934
912.976	10809
913.09	10668
913.204	10759
913.318	10786
913.431	10934
913.545	10934
913.659	10900
913.772	10733
913.886	10702
914	10710
914.113	10805
914.226	10828
914.34	10831
914.453	10656
914.566	10790
914.68	10672
914.793	10626
914.906	10470
915.019	10462
915.132	10409
915.245	10462
915.358	10462
915.47	10451
915.583	10466
915.696	10470
915.809	10607
915.921	10588
916.034	10512
916.146	10375
916.259	10436
916.371	10516
916.483	10424
916.595	10337
916.708	10382
916.82	10333
916.932	10375
917.044	10402
917.156	10341
917.268	10261
917.38	10276
917.491	10249
917.603	10352
917.715	10242
917.826	10360
917.938	10249
918.049	10128
918.161	10257
918.272	10440
918.384	10405
918.495	10341
918.606	10207
918.717	10093
918.828	10227
918.939	10207
919.05	10147
919.161	10128
919.272	10025
919.383	10036
919.494	10188
919.604	10341
919.715	10204
919.826	10128
919.936	10139
920.047	10253
920.157	10204
920.267	10360
920.378	10280
920.488	10188
920.598	10386
920.708	10535
920.818	10287
920.928	10459
921.038	10577
921.148	10573
921.258	10162
921.368	10185
921.477	10029
921.587	9934
921.697	9895
921.806	10120
921.916	9983
922.025	9804
922.134	9728
922.244	9679
922.353	9819
922.462	9641
922.571	9584
922.68	9408
922.789	9443
922.898	9424
923.007	9496
923.116	9382
923.224	9389
923.333	9401
923.442	9260
923.55	9279
923.659	9355
923.767	9450
923.876	9253
923.984	9389
924.092	9241
924.201	9325
924.309	9294
924.417	9332
924.525	9203
924.633	9230
924.741	10013
924.849	9055
924.956	9233
925.064	8994
925.172	9013
925.279	9051
925.387	9074
925.494	9100
925.602	9230
925.709	9169
925.816	8937
925.924	9051
926.031	9203
926.138	9123
926.245	9142
926.352	9036
926.459	9074
926.566	9199
926.673	9032
926.779	8944
926.886	9020
926.993	8807
927.099	8769
927.206	8773
927.312	8766
927.419	8853
927.525	8754
927.631	8830
927.737	8785
927.843	8678
927.95	8610
928.056	8693
928.162	8663
928.267	8743
928.373	9321
928.479	8845
928.585	8549
928.69	8644
928.796	8686
928.901	8670
929.007	8469
929.112	8560
929.218	8590
929.323	8522
929.428	8480
929.533	8621
929.638	8465
929.743	8492
929.848	8587
929.953	8522
930.058	8381
930.163	8286
930.267	8339
930.372	8438
930.477	8305
930.581	8579
930.685	8419
930.79	8195
930.894	8385
930.998	8168
931.103	8385
931.207	8016
931.311	8001
931.415	7936
931.519	7734
931.623	7769
