Data from test_V78500241_1337.txt Node
Date: Fri Mar 25 14:43:01 CST 2022
User: usil
Spectrometer: V785-0024
Trigger mode: 0
Integration Time (sec): 4.000000E-1
Scans to average: 1
Nonlinearity correction enabled: false
Boxcar width: 0
Storing dark spectrum: false
XAxis mode: Wavelengths
Number of Pixels in Spectrum: 1024
>>>>>Begin Spectral Data<<<<<
801.071	22371
801.214	22386
801.356	22154
801.499	21945
801.641	21789
801.783	21629
801.926	21755
802.068	21663
802.211	21614
802.353	21523
802.496	21496
802.638	21283
802.78	21192
802.923	21184
803.065	21081
803.208	21036
803.35	21116
803.492	21112
803.635	21268
803.777	21176
803.919	21287
804.061	21359
804.204	21150
804.346	21135
804.488	20982
804.63	20998
804.773	20960
804.915	21036
805.057	21176
805.199	21070
805.341	21013
805.483	21127
805.626	21089
805.768	20990
805.91	21005
806.052	21017
806.194	20902
806.336	21283
806.478	21047
806.62	20967
806.762	21093
806.904	21154
807.046	21439
807.188	21386
807.33	21443
807.472	21447
807.614	21370
807.756	21389
807.898	21275
808.04	21104
808.182	21241
808.324	21230
808.465	21256
808.607	21519
808.749	21641
808.891	21686
809.033	21800
809.174	21694
809.316	21663
809.458	21511
809.6	21386
809.741	21530
809.883	21568
810.025	21732
810.166	21568
810.308	21618
810.45	21553
810.591	21473
810.733	21420
810.875	21119
811.016	21184
811.158	21245
811.299	21264
811.441	21428
811.582	21386
811.724	21260
811.865	20986
812.007	21279
812.148	21222
812.29	21157
812.431	21458
812.573	21606
812.714	21599
812.855	21682
812.997	21835
813.138	22078
813.279	21732
813.421	21644
813.562	21671
813.703	21637
813.845	21359
813.986	21043
814.127	20849
814.268	20883
814.41	20864
814.551	20842
814.692	20891
814.833	20701
814.974	20625
815.115	20811
815.256	20629
815.397	20613
815.539	20625
815.68	20564
815.821	20522
815.962	20457
816.103	20473
816.244	20419
816.385	20183
816.526	20172
816.666	20039
816.807	19963
816.948	19989
817.089	20024
817.23	20058
817.371	19909
817.512	19974
817.653	19909
817.793	19791
817.934	19875
818.075	20058
818.216	19887
818.356	19811
818.497	19700
818.638	19563
818.778	19594
818.919	19556
819.06	19643
819.2	19677
819.341	19830
819.481	19727
819.622	19864
819.762	20191
819.903	19974
820.043	20031
820.184	19906
820.324	19868
820.465	20012
820.605	19849
820.746	19902
820.886	19685
821.026	19894
821.167	19875
821.307	19936
821.447	19864
821.588	19742
821.728	19700
821.868	19540
822.008	19297
822.149	19377
822.289	19282
822.429	19027
822.569	18935
822.709	18962
822.849	18825
822.99	18810
823.13	18833
823.27	18627
823.41	18707
823.55	18479
823.69	18673
823.83	18608
823.97	18471
824.11	18350
824.25	18448
824.389	18395
824.529	18494
824.669	18311
824.809	18410
824.949	18521
825.089	18467
825.228	18376
825.368	18254
825.508	18201
825.648	18228
825.787	18186
825.927	18213
826.067	18121
826.206	18148
826.346	18045
826.485	18140
826.625	18171
826.765	18182
826.904	18197
827.044	17901
827.183	17908
827.323	17809
827.462	17893
827.601	17851
827.741	17748
827.88	17756
828.02	17836
828.159	17832
828.298	17901
828.437	17942
828.577	17855
828.716	17950
828.855	17859
828.994	17623
829.134	17623
829.273	17687
829.412	17566
829.551	17512
829.69	17600
829.829	17562
829.968	17752
830.107	17733
830.246	17634
830.385	17463
830.524	17474
830.663	17376
830.802	17273
830.941	17288
831.08	17261
831.219	17368
831.357	17398
831.496	17524
831.635	17223
831.774	17132
831.913	17136
832.051	16976
832.19	17018
832.329	16999
832.467	16915
832.606	16900
832.744	16911
832.883	16850
833.022	16843
833.16	16850
833.299	16934
833.437	16984
833.576	17025
833.714	16991
833.852	17052
833.991	16934
834.129	17155
834.267	17033
834.406	17052
834.544	16854
834.682	17090
834.821	16900
834.959	17132
835.097	16961
835.235	17033
835.373	17022
835.511	16972
835.65	16873
835.788	16908
835.926	16862
836.064	16569
836.202	16812
836.34	16991
836.478	16946
836.615	16869
836.753	16828
836.891	16892
837.029	16961
837.167	16812
837.305	16835
837.443	16767
837.58	16698
837.718	16831
837.856	16759
837.993	16755
838.131	16786
838.269	16668
838.406	16683
838.544	16664
838.681	16413
838.819	16440
838.956	16329
839.094	16375
839.231	16284
839.369	16417
839.506	16660
839.643	16485
839.781	16234
839.918	16169
840.055	16230
840.193	16207
840.33	16284
840.467	16284
840.604	16325
840.742	16535
840.879	16276
841.016	16188
841.153	16238
841.29	16375
841.427	16318
841.564	16363
841.701	16230
841.838	16200
841.975	16215
842.112	16188
842.249	16036
842.385	16090
842.522	16204
842.659	16112
842.796	16059
842.933	16124
843.069	16078
843.206	15987
843.343	16097
843.479	15998
843.616	16131
843.752	15823
843.889	15880
844.025	15975
844.162	15831
844.298	16002
844.435	15968
844.571	15842
844.708	15979
844.844	16017
844.98	16036
845.117	16002
845.253	15854
845.389	15816
845.525	15880
845.661	15854
845.798	15911
845.934	15926
846.07	15812
846.206	16063
846.342	16109
846.478	15816
846.614	15641
846.75	15447
846.886	15412
847.022	15538
847.158	15481
847.294	15443
847.429	15431
847.565	15416
847.701	15641
847.837	15218
847.972	15203
848.108	15199
848.244	15256
848.379	15108
848.515	15028
848.65	14960
848.786	14986
848.921	15039
849.057	15047
849.192	15093
849.328	15070
849.463	15036
849.598	14986
849.734	15005
849.869	14815
850.004	14823
850.14	14925
850.275	14823
850.41	14697
850.545	14735
850.68	14746
850.815	14845
850.95	14655
851.085	14982
851.22	14792
851.355	14853
851.49	14727
851.625	14716
851.76	14785
851.895	14750
852.03	14693
852.165	14693
852.299	14929
852.434	14868
852.569	14792
852.703	14826
852.838	14788
852.973	14929
853.107	14933
853.242	14655
853.376	14667
853.511	14606
853.645	14575
853.78	14735
853.914	14682
854.048	14598
854.183	14594
854.317	14716
854.451	14807
854.585	14785
854.72	14667
854.854	14716
854.988	14552
855.122	14651
855.256	14526
855.39	14598
855.524	14678
855.658	14682
855.792	14682
855.926	14636
856.06	14697
856.194	14754
856.327	14560
856.461	14568
856.595	14648
856.729	14629
856.862	14705
856.996	14663
857.13	14708
857.263	14746
857.397	14773
857.53	14663
857.664	14781
857.797	14765
857.931	14716
858.064	14655
858.197	14670
858.331	14705
858.464	14762
858.597	14480
858.731	14708
858.864	14564
858.997	14564
859.13	14712
859.263	14724
859.396	14727
859.529	14667
859.662	14518
859.795	14522
859.928	14655
860.061	14762
860.194	14864
860.327	14712
860.46	14598
860.592	14765
860.725	14864
860.858	14743
860.99	14674
861.123	14602
861.256	14579
861.388	14724
861.521	15344
861.653	14431
861.786	14480
861.918	14492
862.05	14610
862.183	14522
862.315	14648
862.447	14617
862.58	14655
862.712	14446
862.844	14358
862.976	14526
863.108	14526
863.24	14994
863.372	14298
863.504	14377
863.636	14446
863.768	14530
863.9	14457
864.032	14396
864.164	14400
864.296	14495
864.428	14575
864.559	14507
864.691	14617
864.823	14408
864.954	14454
865.086	14499
865.217	14431
865.349	14351
865.48	14347
865.612	14358
865.743	14533
865.875	14461
866.006	14317
866.137	14389
866.269	14374
866.4	14374
866.531	14362
866.662	14267
866.793	14313
866.924	14366
867.055	14427
867.186	14328
867.317	14412
867.448	14271
867.579	14442
867.71	14286
867.841	14377
867.972	14370
868.103	14355
868.233	14404
868.364	14442
868.495	14476
868.625	14587
868.756	14712
868.886	14537
869.017	14552
869.147	14804
869.278	14743
869.408	14613
869.539	14781
869.669	14739
869.799	14705
869.929	14807
870.06	14804
870.19	14975
870.32	14925
870.45	14902
870.58	14979
870.71	15195
870.84	15233
870.97	15028
871.1	15017
871.23	15252
871.36	15241
871.489	15161
871.619	15233
871.749	15283
871.879	15359
872.008	15351
872.138	15298
872.267	15135
872.397	15066
872.526	15070
872.656	15108
872.785	15150
872.915	15222
873.044	15359
873.173	15203
873.303	15348
873.432	15310
873.561	15279
873.69	15287
873.819	15260
873.948	15344
874.077	15310
874.206	15313
874.335	15374
874.464	15443
874.593	15587
874.722	15435
874.851	15629
874.979	15576
875.108	15648
875.237	15542
875.365	15447
875.494	15561
875.623	15564
875.751	15519
875.88	15637
876.008	15770
876.136	15873
876.265	16112
876.393	16234
876.521	16109
876.65	16162
876.778	16086
876.906	15991
877.034	15987
877.162	15956
877.29	16006
877.418	15903
877.546	15998
877.674	16040
877.802	16055
877.93	16048
878.058	16006
878.185	15930
878.313	16036
878.441	16010
878.568	15907
878.696	16025
878.824	16032
878.951	16135
879.079	16287
879.206	16367
879.333	16295
879.461	16310
879.588	16284
879.715	16314
879.842	16470
879.97	16177
880.097	16006
880.224	15899
880.351	16021
880.478	15960
880.605	15907
880.732	15880
880.859	16120
880.986	15915
881.112	15915
881.239	15903
881.366	15698
881.493	15568
881.619	15515
881.746	15625
881.872	15515
881.999	15561
882.125	15572
882.252	15591
882.378	15603
882.505	15766
882.631	15485
882.757	15389
882.883	15435
883.01	15393
883.136	15397
883.262	15252
883.388	15226
883.514	15306
883.64	15473
883.766	15287
883.892	15104
884.018	15241
884.143	15431
884.269	15363
884.395	15085
884.52	15142
884.646	15093
884.772	15001
884.897	15036
885.023	15108
885.148	15157
885.274	15264
885.399	15165
885.524	15058
885.65	15165
885.775	15108
885.9	15108
886.025	15218
886.15	15214
886.275	14998
886.4	14948
886.525	15058
886.65	14952
886.775	14902
886.9	15100
887.025	15355
887.149	15074
887.274	14872
887.399	14750
887.523	14952
887.648	14880
887.773	14880
887.897	15024
888.021	14895
888.146	14777
888.27	14994
888.395	15039
888.519	15005
888.643	14933
888.767	14921
888.891	14864
889.015	14735
889.139	14807
889.263	14705
889.387	14876
889.511	14952
889.635	14880
889.759	14819
889.883	14708
890.006	14796
890.13	14895
890.254	14648
890.377	14708
890.501	14613
890.624	14610
890.748	14648
890.871	14492
890.995	14374
891.118	14400
891.241	14454
891.364	14484
891.488	14549
891.611	14473
891.734	14427
891.857	14530
891.98	14488
892.103	14541
892.226	14503
892.349	14438
892.471	14271
892.594	14377
892.717	14480
892.839	14332
892.962	14541
893.085	14476
893.207	14511
893.33	14377
893.452	14419
893.575	14507
893.697	14423
893.819	14568
893.941	14712
894.064	14575
894.186	14461
894.308	14385
894.43	14533
894.552	14621
894.674	14575
894.796	14396
894.918	14438
895.04	14473
895.161	14640
895.283	14575
895.405	14434
895.526	14480
895.648	14533
895.769	14583
895.891	14518
896.012	14648
896.134	14594
896.255	14530
896.376	14590
896.498	14629
896.619	14598
896.74	14613
896.861	14644
896.982	14937
897.103	15024
897.224	14982
897.345	14815
897.466	14739
897.587	14758
897.708	14929
897.828	14967
897.949	14891
898.07	14720
898.19	14800
898.311	14971
898.431	14933
898.552	14937
898.672	14948
898.792	14956
898.913	14895
899.033	14849
899.153	14750
899.273	14735
899.393	14762
899.513	14823
899.633	14864
899.753	14823
899.873	14746
899.993	14826
900.113	14834
900.232	14754
900.352	14769
900.472	14598
900.591	14636
900.711	14682
900.83	14648
900.95	14724
901.069	14785
901.189	14526
901.308	14366
901.427	14298
901.546	14301
901.665	14309
901.784	14271
901.904	14199
902.023	14046
902.141	13932
902.26	13791
902.379	13936
902.498	13814
902.617	13814
902.735	13860
902.854	13830
902.973	13746
903.091	13563
903.21	13605
903.328	13620
903.446	13476
903.565	13529
903.683	13449
903.801	13441
903.919	13362
904.038	13491
904.156	13209
904.274	13244
904.392	13228
904.51	13228
904.627	13247
904.745	13369
904.863	13304
904.981	13084
905.098	12882
905.216	12935
905.334	12920
905.451	13000
905.569	12916
905.686	13008
905.803	13012
905.921	12719
906.038	12890
906.155	12711
906.272	12665
906.389	12745
906.506	12502
906.623	12494
906.74	12509
906.857	12365
906.974	12422
907.091	12612
907.208	12722
907.324	12490
907.441	12536
907.557	12194
907.674	12281
907.79	12205
907.907	12270
908.023	12277
908.139	12327
908.256	12148
908.372	12148
908.488	12205
908.604	11973
908.72	12072
908.836	12038
908.952	11954
909.068	12083
909.184	12175
909.3	11973
909.415	12064
909.531	11992
909.647	11855
909.762	11794
909.878	11714
909.993	11779
910.108	11786
910.224	11802
910.339	11836
910.454	11722
910.57	11699
910.685	11509
910.8	11889
910.915	11771
911.03	11653
911.145	11455
911.259	11532
911.374	11512
911.489	11410
911.604	11406
911.718	11288
911.833	11265
911.947	11079
912.062	11117
912.176	11231
912.291	11269
912.405	11242
912.519	11406
912.633	11368
912.748	11311
912.862	11250
912.976	11159
913.09	10980
913.204	11071
913.318	11140
913.431	11269
913.545	11254
913.659	11166
913.772	11041
913.886	10987
914	10938
914.113	11071
914.226	11113
914.34	11105
914.453	10877
914.566	11037
914.68	10972
914.793	10877
914.906	10755
915.019	10744
915.132	10637
915.245	10736
915.358	10744
915.47	10664
915.583	10744
915.696	10763
915.809	10847
915.921	10828
916.034	10748
916.146	10721
916.259	10679
916.371	10725
916.483	10774
916.595	10622
916.708	10653
916.82	10584
916.932	10668
917.044	10752
917.156	10603
917.268	10504
917.38	10504
917.491	10558
917.603	10519
917.715	10641
917.826	10694
917.938	10466
918.049	10470
918.161	10592
918.272	10660
918.384	10687
918.495	10649
918.606	10428
918.717	10417
918.828	10299
918.939	10440
919.05	10371
919.161	10436
919.272	10238
919.383	10360
919.494	10443
919.604	10649
919.715	10405
919.826	10390
919.936	10440
920.047	10459
920.157	10516
920.267	10660
920.378	10443
920.488	10367
920.598	10580
920.708	10805
920.818	10626
920.928	10618
921.038	10824
921.148	10721
921.258	10497
921.368	10333
921.477	10386
921.587	10295
921.697	10166
921.806	10284
921.916	10177
922.025	10040
922.134	10040
922.244	9945
922.353	9964
922.462	9876
922.571	9857
922.68	9743
922.789	9637
922.898	9713
923.007	9599
923.116	9793
923.224	9728
923.333	9633
923.442	9584
923.55	9530
923.659	9576
923.767	9660
923.876	9485
923.984	9564
924.092	9428
924.201	9473
924.309	9595
924.417	9568
924.525	9485
924.633	9553
924.741	10390
924.849	9260
924.956	9519
925.064	9348
925.172	9310
925.279	9313
925.387	9355
925.494	9344
925.602	9462
925.709	9363
925.816	9192
925.924	9332
926.031	9359
926.138	9332
926.245	9473
926.352	9260
926.459	9439
926.566	9401
926.673	9264
926.779	9184
926.886	9104
926.993	9081
927.099	9070
927.206	9051
927.312	8948
927.419	9119
927.525	9077
927.631	9051
927.737	8967
927.843	8899
927.95	8834
928.056	8861
928.162	8941
928.267	8937
928.373	9515
928.479	9017
928.585	8788
928.69	8948
928.796	8960
928.901	8826
929.007	8720
929.112	8868
929.218	8727
929.323	8724
929.428	8754
929.533	8944
929.638	8727
929.743	8731
929.848	8735
929.953	8663
930.058	8621
930.163	8454
930.267	8446
930.372	8667
930.477	8549
930.581	8796
930.685	8587
930.79	8404
930.894	8522
930.998	8389
931.103	8583
931.207	8202
931.311	8191
931.415	8096
931.519	7963
931.623	7913
