Data from test_V78500241_853.txt Node
Date: Fri Mar 25 14:39:39 CST 2022
User: usil
Spectrometer: V785-0024
Trigger mode: 0
Integration Time (sec): 4.000000E-1
Scans to average: 1
Nonlinearity correction enabled: false
Boxcar width: 0
Storing dark spectrum: false
XAxis mode: Wavelengths
Number of Pixels in Spectrum: 1024
>>>>>Begin Spectral Data<<<<<
801.071	25902
801.214	25742
801.356	25487
801.499	25472
801.641	25141
801.783	25274
801.926	25171
802.068	25095
802.211	25126
802.353	24875
802.496	24722
802.638	24661
802.78	24620
802.923	24700
803.065	24631
803.208	24502
803.35	24639
803.492	24673
803.635	24776
803.777	24505
803.919	24798
804.061	25019
804.204	24817
804.346	24665
804.488	24635
804.63	24627
804.773	24665
804.915	24642
805.057	24916
805.199	24738
805.341	25031
805.483	24973
805.626	25076
805.768	24985
805.91	25050
806.052	25137
806.194	25061
806.336	25301
806.478	25457
806.62	25430
806.762	25689
806.904	25864
807.046	26419
807.188	26423
807.33	26613
807.472	26975
807.614	27287
807.756	27622
807.898	28120
808.04	28927
808.182	29893
808.324	31343
808.465	32845
808.607	34615
808.749	36026
808.891	36863
809.033	36871
809.174	35980
809.316	34588
809.458	32792
809.6	31076
809.741	29771
809.883	28588
810.025	27975
810.166	27488
810.308	27043
810.45	26655
810.591	26476
810.733	26073
810.875	25837
811.016	25639
811.158	25556
811.299	25677
811.441	25514
811.582	25533
811.724	25419
811.865	25209
812.007	25164
812.148	25133
812.29	25027
812.431	25369
812.573	25441
812.714	25495
812.855	25575
812.997	25651
813.138	25757
813.279	25578
813.421	25506
813.562	25240
813.703	25282
813.845	25065
813.986	24825
814.127	24570
814.268	24365
814.41	24437
814.551	24399
814.692	24513
814.833	24311
814.974	24426
815.115	24395
815.256	24186
815.397	24117
815.539	24163
815.68	24163
815.821	23946
815.962	24106
816.103	24102
816.244	23882
816.385	23668
816.526	23589
816.666	23512
816.807	23452
816.948	23429
817.089	23539
817.23	23482
817.371	23398
817.512	23391
817.653	23258
817.793	23239
817.934	23292
818.075	23292
818.216	23383
818.356	23284
818.497	23140
818.638	22927
818.778	23060
818.919	23121
819.06	22987
819.2	23166
819.341	23242
819.481	23239
819.622	23372
819.762	23436
819.903	23512
820.043	23269
820.184	23231
820.324	23337
820.465	23421
820.605	23254
820.746	23166
820.886	23086
821.026	23212
821.167	23250
821.307	23315
821.447	23174
821.588	23067
821.728	22839
821.868	22790
822.008	22493
822.149	22561
822.289	22508
822.429	22325
822.569	22154
822.709	22257
822.849	21937
822.99	21941
823.13	21934
823.27	21907
823.41	21838
823.55	21728
823.69	21739
823.83	21838
823.97	21755
824.11	21583
824.25	21553
824.389	21595
824.529	21633
824.669	21473
824.809	21644
824.949	21675
825.089	21656
825.228	21515
825.368	21549
825.508	21416
825.648	21348
825.787	21348
825.927	21428
826.067	21264
826.206	21321
826.346	21237
826.485	21272
826.625	21260
826.765	21389
826.904	21332
827.044	21108
827.183	21089
827.323	20872
827.462	21116
827.601	20990
827.741	20868
827.88	21032
828.02	20815
828.159	20986
828.298	20944
828.437	21036
828.577	20899
828.716	21214
828.855	20834
828.994	20617
829.134	20788
829.273	20754
829.412	20674
829.551	20621
829.69	20571
829.829	20613
829.968	20701
830.107	20678
830.246	20648
830.385	20609
830.524	20564
830.663	20400
830.802	20374
830.941	20271
831.08	20240
831.219	20244
831.357	20298
831.496	20473
831.635	20187
831.774	20168
831.913	20320
832.051	20183
832.19	20096
832.329	20199
832.467	20183
832.606	19989
832.744	20046
832.883	20077
833.022	20100
833.16	20096
833.299	20244
833.437	20252
833.576	20446
833.714	20366
833.852	20465
833.991	20655
834.129	20693
834.267	20648
834.406	20545
834.544	20609
834.682	20579
834.821	20465
834.959	20423
835.097	20336
835.235	20248
835.373	20210
835.511	20043
835.65	19986
835.788	19925
835.926	19715
836.064	19655
836.202	19723
836.34	19818
836.478	19879
836.615	19765
836.753	19883
836.891	19860
837.029	19864
837.167	19704
837.305	19765
837.443	19788
837.58	19537
837.718	19620
837.856	19658
837.993	19540
838.131	19578
838.269	19480
838.406	19540
838.544	19441
838.681	19236
838.819	19278
838.956	19038
839.094	19031
839.231	19145
839.369	19213
839.506	19548
839.643	19362
839.781	19114
839.918	19126
840.055	19065
840.193	19137
840.33	19015
840.467	19023
840.604	19050
840.742	19320
840.879	18848
841.016	18939
841.153	18954
841.29	19042
841.427	19012
841.564	18947
841.701	19080
841.838	19023
841.975	18886
842.112	18905
842.249	18806
842.385	18806
842.522	19069
842.659	18890
842.796	18825
842.933	18817
843.069	18802
843.206	18829
843.343	18776
843.479	18882
843.616	19008
843.752	18753
843.889	18741
844.025	18852
844.162	18863
844.298	18996
844.435	18886
844.571	19012
844.708	19065
844.844	19426
844.98	19616
845.117	19997
845.253	20366
845.389	20986
845.525	22767
845.661	25438
845.798	28809
845.934	31666
846.07	32701
846.206	32240
846.342	30076
846.478	26636
846.614	23604
846.75	21500
846.886	20180
847.022	19727
847.158	19126
847.294	18985
847.429	18677
847.565	18521
847.701	18703
847.837	18121
847.972	18045
848.108	18091
848.244	18019
848.379	17977
848.515	17805
848.65	17767
848.786	17745
848.921	17832
849.057	17840
849.192	17805
849.328	17756
849.463	17687
849.598	17745
849.734	17649
849.869	17623
850.004	17440
850.14	17524
850.275	17524
850.41	17398
850.545	17493
850.68	17353
850.815	17436
850.95	17436
851.085	17505
851.22	17520
851.355	17467
851.49	17368
851.625	17345
851.76	17444
851.895	17425
852.03	17220
852.165	17368
852.299	17463
852.434	17520
852.569	17566
852.703	17497
852.838	17551
852.973	17646
853.107	17657
853.242	17497
853.376	17406
853.511	17105
853.645	17349
853.78	17471
853.914	17433
854.048	17566
854.183	17440
854.317	17524
854.451	17604
854.585	17528
854.72	17509
854.854	17467
854.988	17246
855.122	17345
855.256	17185
855.39	17334
855.524	17459
855.658	17360
855.792	17444
855.926	17376
856.06	17303
856.194	17311
856.327	17258
856.461	17254
856.595	17303
856.729	17189
856.862	17353
856.996	17414
857.13	17433
857.263	17315
857.397	17345
857.53	17269
857.664	17307
857.797	17326
857.931	17417
858.064	17311
858.197	17337
858.331	17223
858.464	17242
858.597	17075
858.731	17174
858.864	17216
858.997	17181
859.13	17204
859.263	17204
859.396	17288
859.529	17155
859.662	17029
859.795	17086
859.928	17311
860.061	17383
860.194	17341
860.327	17227
860.46	17174
860.592	17330
860.725	17280
860.858	17246
860.99	17292
861.123	17166
861.256	17136
861.388	17258
861.521	17783
861.653	17075
861.786	16915
861.918	17033
862.05	17143
862.183	17174
862.315	17212
862.447	17250
862.58	17174
862.712	16972
862.844	16953
862.976	17037
863.108	16889
863.24	17216
863.372	16881
863.504	16843
863.636	16801
863.768	16843
863.9	16896
864.032	16736
864.164	16892
864.296	16927
864.428	17067
864.559	17029
864.691	16919
864.823	16957
864.954	16904
865.086	16908
865.217	16843
865.349	16645
865.48	16828
865.612	16809
865.743	16938
865.875	16919
866.006	16820
866.137	16892
866.269	16820
866.4	16759
866.531	16786
866.662	16656
866.793	16721
866.924	16710
867.055	16881
867.186	16831
867.317	16771
867.448	16672
867.579	16702
867.71	16710
867.841	16664
867.972	16816
868.103	16824
868.233	16854
868.364	16809
868.495	16801
868.625	16999
868.756	17239
868.886	16949
869.017	16980
869.147	17117
869.278	17113
869.408	17098
869.539	17124
869.669	17212
869.799	17143
869.929	17174
870.06	17265
870.19	17372
870.32	17231
870.45	17486
870.58	17478
870.71	17558
870.84	17543
870.97	17379
871.1	17478
871.23	17619
871.36	17615
871.489	17619
871.619	17668
871.749	17672
871.879	17843
872.008	17802
872.138	17687
872.267	17733
872.397	17581
872.526	17528
872.656	17573
872.785	17611
872.915	17767
873.044	17824
873.173	17859
873.303	17866
873.432	17863
873.561	17828
873.69	17855
873.819	17901
873.948	18007
874.077	17840
874.206	17863
874.335	17965
874.464	18110
874.593	18117
874.722	18148
874.851	18182
874.979	18243
875.108	18311
875.237	18220
875.365	18277
875.494	18338
875.623	18509
875.751	18319
875.88	18479
876.008	18593
876.136	18673
876.265	18840
876.393	19107
876.521	19015
876.65	18993
876.778	19015
876.906	18901
877.034	18947
877.162	19145
877.29	19069
877.418	19095
877.546	19206
877.674	19259
877.802	19285
877.93	19327
878.058	19343
878.185	19400
878.313	19647
878.441	19868
878.568	19807
878.696	20157
878.824	20670
878.951	21325
879.079	22166
879.206	23178
879.333	24300
879.461	25031
879.588	25632
879.715	25772
879.842	25240
879.97	24194
880.097	22961
880.224	22109
880.351	21481
880.478	21112
880.605	20705
880.732	20754
880.859	20796
880.986	20488
881.112	20298
881.239	20313
881.366	20020
881.493	20077
881.619	19917
881.746	20081
881.872	19963
881.999	19932
882.125	19963
882.252	20058
882.378	20027
882.505	20168
882.631	20027
882.757	19883
882.883	19906
883.01	19947
883.136	19791
883.262	19746
883.388	19677
883.514	19868
883.64	19772
883.766	19734
883.892	19582
884.018	19674
884.143	19811
884.269	19868
884.395	19624
884.52	19677
884.646	19609
884.772	19578
884.897	19533
885.023	19643
885.148	19567
885.274	19696
885.399	19647
885.524	19457
885.65	19502
885.775	19373
885.9	19232
886.025	19339
886.15	19263
886.275	18932
886.4	18920
886.525	18882
886.65	18779
886.775	18776
886.9	18829
887.025	18939
887.149	18627
887.274	18475
887.399	18532
887.523	18334
887.648	18190
887.773	18213
887.897	18323
888.021	18285
888.146	17996
888.27	18209
888.395	18254
888.519	18117
888.643	18174
888.767	18114
888.891	18007
889.015	17798
889.139	17885
889.263	17771
889.387	17794
889.511	18003
889.635	17912
889.759	17623
889.883	17634
890.006	17691
890.13	17737
890.254	17638
890.377	17573
890.501	17478
890.624	17478
890.748	17520
890.871	17292
890.995	17235
891.118	17178
891.241	17235
891.364	17178
891.488	17315
891.611	17155
891.734	17128
891.857	17265
891.98	17094
892.103	17151
892.226	17193
892.349	17014
892.471	16866
892.594	17064
892.717	17006
892.839	17003
892.962	16949
893.085	16972
893.207	17090
893.33	16900
893.452	16873
893.575	16911
893.697	16889
893.819	17064
893.941	17075
894.064	16942
894.186	16812
894.308	16687
894.43	16999
894.552	17003
894.674	16873
894.796	16691
894.918	16850
895.04	16744
895.161	16892
895.283	16866
895.405	16580
895.526	16858
895.648	16820
895.769	16820
895.891	16828
896.012	16869
896.134	16866
896.255	16934
896.376	16755
896.498	16801
896.619	16824
896.74	16767
896.861	16877
896.982	17208
897.103	17311
897.224	16995
897.345	17079
897.466	16881
897.587	17010
897.708	17208
897.828	17102
897.949	16968
898.07	16877
898.19	16930
898.311	17121
898.431	17132
898.552	17075
898.672	17132
898.792	17193
898.913	17155
899.033	16892
899.153	16942
899.273	16805
899.393	16904
899.513	16866
899.633	16896
899.753	16919
899.873	16850
899.993	16858
900.113	16858
900.232	16965
900.352	16793
900.472	16835
900.591	16710
900.711	16782
900.83	16793
900.95	16683
901.069	16839
901.189	16694
901.308	16394
901.427	16306
901.546	16447
901.665	16379
901.784	16405
901.904	16131
902.023	16101
902.141	15934
902.26	15918
902.379	15949
902.498	15846
902.617	15850
902.735	15781
902.854	15827
902.973	15755
903.091	15515
903.21	15542
903.328	15549
903.446	15485
903.565	15393
903.683	15340
903.801	15173
903.919	15264
904.038	15188
904.156	15176
904.274	15142
904.392	15047
904.51	15028
904.627	15009
904.745	15074
904.863	15062
904.981	15001
905.098	14769
905.216	14769
905.334	14769
905.451	14811
905.569	14735
905.686	14720
905.803	14667
905.921	14556
906.038	14610
906.155	14465
906.272	14465
906.389	14355
906.506	14259
906.623	14339
906.74	14267
906.857	14240
906.974	14214
907.091	14237
907.208	14309
907.324	14275
907.441	14225
907.557	14031
907.674	14005
907.79	13921
907.907	13849
908.023	14039
908.139	13989
908.256	13944
908.372	13856
908.488	13852
908.604	13731
908.72	13738
908.836	13704
908.952	13666
909.068	13696
909.184	13826
909.3	13677
909.415	13757
909.531	13704
909.647	13514
909.762	13468
909.878	13411
909.993	13457
910.108	13407
910.224	13453
910.339	13388
910.454	13350
910.57	13259
910.685	13209
910.8	13426
910.915	13396
911.03	13251
911.145	13072
911.259	13088
911.374	13168
911.489	12973
911.604	13023
911.718	12806
911.833	12894
911.947	12662
912.062	12684
912.176	12791
912.291	12859
912.405	12783
912.519	12966
912.633	13091
912.748	12886
912.862	12760
912.976	12677
913.09	12669
913.204	12646
913.318	12787
913.431	12833
913.545	12783
913.659	12760
913.772	12738
913.886	12612
914	12536
914.113	12665
914.226	12665
914.34	12544
914.453	12502
914.566	12589
914.68	12452
914.793	12471
914.906	12353
915.019	12251
915.132	12235
915.245	12201
915.358	12300
915.47	12205
915.583	12334
915.696	12327
915.809	12452
915.921	12448
916.034	12330
916.146	12209
916.259	12163
916.371	12304
916.483	12304
916.595	12095
916.708	12209
916.82	12190
916.932	12102
917.044	12083
917.156	12091
917.268	12019
917.38	12076
917.491	11863
917.603	11992
917.715	12098
917.826	12155
917.938	11999
918.049	11851
918.161	11908
918.272	12060
918.384	12110
918.495	11973
918.606	11771
918.717	11733
918.828	11821
918.939	11832
919.05	11745
919.161	11809
919.272	11589
919.383	11634
919.494	11893
919.604	12015
919.715	11779
919.826	11718
919.936	11767
920.047	11832
920.157	11828
920.267	12003
920.378	11756
920.488	11798
920.598	11954
920.708	12125
920.818	11984
920.928	12011
921.038	12190
921.148	12003
921.258	11813
921.368	11699
921.477	11596
921.587	11657
921.697	11463
921.806	11634
921.916	11406
922.025	11288
922.134	11288
922.244	11227
922.353	11318
922.462	11185
922.571	11071
922.68	11041
922.789	10968
922.898	10946
923.007	10972
923.116	11014
923.224	10938
923.333	10915
923.442	10847
923.55	10824
923.659	10858
923.767	10896
923.876	10744
923.984	10828
924.092	10771
924.201	10729
924.309	10786
924.417	10733
924.525	10653
924.633	10729
924.741	11600
924.849	10546
924.956	10630
925.064	10554
925.172	10478
925.279	10550
925.387	10550
925.494	10474
925.602	10599
925.709	10615
925.816	10440
925.924	10516
926.031	10615
926.138	10470
926.245	10580
926.352	10451
926.459	10599
926.566	10573
926.673	10421
926.779	10360
926.886	10268
926.993	10169
927.099	10185
927.206	10166
927.312	10131
927.419	10257
927.525	10272
927.631	10207
927.737	10082
927.843	10032
927.95	9972
928.056	10051
928.162	10036
928.267	10040
928.373	10740
928.479	10086
928.585	9941
928.69	10010
928.796	10055
928.901	9941
929.007	9819
929.112	9922
929.218	9854
929.323	9850
929.428	9804
929.533	9975
929.638	9800
929.743	9854
929.848	9838
929.953	9838
930.058	9717
930.163	9564
930.267	9629
930.372	9698
930.477	9545
930.581	9785
930.685	9679
930.79	9523
930.894	9507
930.998	9523
931.103	9587
931.207	9222
931.311	9237
931.415	9138
931.519	8960
931.623	8967
