Data from test_V78500241_776.txt Node
Date: Fri Mar 25 14:39:07 CST 2022
User: usil
Spectrometer: V785-0024
Trigger mode: 0
Integration Time (sec): 4.000000E-1
Scans to average: 1
Nonlinearity correction enabled: false
Boxcar width: 0
Storing dark spectrum: false
XAxis mode: Wavelengths
Number of Pixels in Spectrum: 1024
>>>>>Begin Spectral Data<<<<<
801.071	26712
801.214	26819
801.356	26549
801.499	26229
801.641	26153
801.783	26153
801.926	26164
802.068	26012
802.211	25974
802.353	25761
802.496	25635
802.638	25655
802.78	25681
802.923	25628
803.065	25578
803.208	25479
803.35	25620
803.492	25670
803.635	25689
803.777	25655
803.919	25734
804.061	25986
804.204	25849
804.346	25704
804.488	25807
804.63	25791
804.773	25685
804.915	25909
805.057	26012
805.199	25997
805.341	26122
805.483	26324
805.626	26153
805.768	26164
805.91	26400
806.052	26621
806.194	26476
806.336	27123
806.478	27032
806.62	27127
806.762	27374
806.904	27774
807.046	28318
807.188	28618
807.33	28953
807.472	29482
807.614	30095
807.756	30867
807.898	31887
808.04	33523
808.182	35269
808.324	37742
808.465	40656
808.607	43689
808.749	46249
808.891	47802
809.033	48285
809.174	46535
809.316	43955
809.458	40649
809.6	37365
809.741	34957
809.883	32849
810.025	31460
810.166	30623
810.308	29585
810.45	29041
810.591	28611
810.733	28131
810.875	27675
811.016	27485
811.158	27207
811.299	27142
811.441	27116
811.582	26982
811.724	26777
811.865	26545
812.007	26522
812.148	26324
812.29	26518
812.431	26670
812.573	26606
812.714	26670
812.855	26735
812.997	26693
813.138	26708
813.279	26727
813.421	26655
813.562	26301
813.703	26233
813.845	26202
813.986	25681
814.127	25548
814.268	25426
814.41	25438
814.551	25282
814.692	25407
814.833	25217
814.974	25042
815.115	25274
815.256	24973
815.397	24989
815.539	25015
815.68	24939
815.821	24817
815.962	25023
816.103	24825
816.244	24806
816.385	24464
816.526	24547
816.666	24239
816.807	24213
816.948	24285
817.089	24372
817.23	24224
817.371	24140
817.512	24182
817.653	24174
817.793	24003
817.934	24121
818.075	24022
818.216	24038
818.356	24053
818.497	24064
818.638	23676
818.778	23703
818.919	23821
819.06	23950
819.2	23893
819.341	24076
819.481	23969
819.622	24167
819.762	24224
819.903	24117
820.043	24155
820.184	23901
820.324	23996
820.465	23996
820.605	24072
820.746	23912
820.886	23764
821.026	23855
821.167	23859
821.307	23783
821.447	23752
821.588	23733
821.728	23547
821.868	23376
822.008	23231
822.149	23326
822.289	23239
822.429	22889
822.569	22831
822.709	22820
822.849	22649
822.99	22706
823.13	22603
823.27	22584
823.41	22462
823.55	22329
823.69	22493
823.83	22436
823.97	22314
824.11	22246
824.25	22314
824.389	22215
824.529	22261
824.669	22268
824.809	22310
824.949	22234
825.089	22249
825.228	22284
825.368	22074
825.508	22006
825.648	22040
825.787	21991
825.927	22055
826.067	22067
826.206	21922
826.346	21983
826.485	22002
826.625	21880
826.765	22086
826.904	21842
827.044	21724
827.183	21789
827.323	21652
827.462	21720
827.601	21583
827.741	21595
827.88	21682
828.02	21564
828.159	21450
828.298	21663
828.437	21675
828.577	21656
828.716	21698
828.855	21492
828.994	21302
829.134	21310
829.273	21287
829.412	21351
829.551	21260
829.69	21431
829.829	21291
829.968	21401
830.107	21310
830.246	21264
830.385	21367
830.524	21233
830.663	21146
830.802	21077
830.941	20826
831.08	20872
831.219	21077
831.357	20971
831.496	21173
831.635	21013
831.774	20796
831.913	20952
832.051	20769
832.19	20773
832.329	20834
832.467	20594
832.606	20708
832.744	20701
832.883	20887
833.022	20933
833.16	20979
833.299	21138
833.437	21169
833.576	21412
833.714	21511
833.852	21679
833.991	21694
834.129	21793
834.267	21835
834.406	21694
834.544	21644
834.682	21713
834.821	21344
834.959	21412
835.097	21226
835.235	21142
835.373	20982
835.511	20979
835.65	20849
835.788	20648
835.926	20522
836.064	20522
836.202	20400
836.34	20693
836.478	20651
836.615	20454
836.753	20488
836.891	20480
837.029	20552
837.167	20419
837.305	20328
837.443	20370
837.58	20244
837.718	20263
837.856	20317
837.993	20244
838.131	20305
838.269	20172
838.406	20119
838.544	20020
838.681	20073
838.819	19864
838.956	19750
839.094	19791
839.231	19784
839.369	19928
839.506	20096
839.643	19856
839.781	19689
839.918	19643
840.055	19826
840.193	19666
840.33	19715
840.467	19666
840.604	19639
840.742	19993
840.879	19666
841.016	19647
841.153	19594
841.29	19742
841.427	19677
841.564	19723
841.701	19742
841.838	19616
841.975	19590
842.112	19624
842.249	19632
842.385	19491
842.522	19677
842.659	19476
842.796	19411
842.933	19635
843.069	19480
843.206	19491
843.343	19651
843.479	19662
843.616	19712
843.752	19537
843.889	19533
844.025	19746
844.162	19658
844.298	19845
844.435	19803
844.571	19974
844.708	20339
844.844	20769
844.98	21146
845.117	21732
845.253	22569
845.389	24262
845.525	27633
845.661	33093
845.798	39378
845.934	44077
846.07	45991
846.206	44735
846.342	40230
846.478	33876
846.614	28504
846.75	24970
846.886	22683
847.022	21553
847.158	20648
847.294	20240
847.429	19879
847.565	19693
847.701	19620
847.837	19015
847.972	18894
848.108	19004
848.244	18829
848.379	18684
848.515	18654
848.65	18547
848.786	18612
848.921	18517
849.057	18502
849.192	18544
849.328	18528
849.463	18555
849.598	18395
849.734	18380
849.869	18213
850.004	18243
850.14	18163
850.275	18174
850.41	18083
850.545	18117
850.68	18072
850.815	18133
850.95	18022
851.085	18281
851.22	18235
851.355	18213
851.49	18167
851.625	18098
851.76	18117
851.895	18045
852.03	18022
852.165	18178
852.299	18186
852.434	18296
852.569	18235
852.703	18178
852.838	18194
852.973	18369
853.107	18346
853.242	18197
853.376	18072
853.511	18117
853.645	18194
853.78	18369
853.914	18403
854.048	18243
854.183	18429
854.317	18414
854.451	18525
854.585	18357
854.72	18308
854.854	18346
854.988	18209
855.122	18232
855.256	18057
855.39	18251
855.524	18277
855.658	18205
855.792	18117
855.926	18186
856.06	18148
856.194	18167
856.327	18003
856.461	18026
856.595	17984
856.729	17935
856.862	18076
856.996	17961
857.13	17984
857.263	18038
857.397	18019
857.53	17866
857.664	17961
857.797	18019
857.931	18102
858.064	17916
858.197	18102
858.331	17798
858.464	17802
858.597	17798
858.731	17863
858.864	17855
858.997	17843
859.13	17813
859.263	17840
859.396	17847
859.529	17752
859.662	17847
859.795	17707
859.928	17790
860.061	17912
860.194	18011
860.327	17885
860.46	17775
860.592	17821
860.725	17973
860.858	17824
860.99	17790
861.123	17786
861.256	17771
861.388	17748
861.521	18338
861.653	17585
861.786	17520
861.918	17687
862.05	17745
862.183	17847
862.315	17779
862.447	17817
862.58	17798
862.712	17501
862.844	17505
862.976	17668
863.108	17539
863.24	17946
863.372	17417
863.504	17436
863.636	17486
863.768	17528
863.9	17570
864.032	17376
864.164	17482
864.296	17414
864.428	17535
864.559	17543
864.691	17611
864.823	17467
864.954	17551
865.086	17547
865.217	17379
865.349	17376
865.48	17330
865.612	17379
865.743	17482
865.875	17406
866.006	17337
866.137	17425
866.269	17467
866.4	17337
866.531	17402
866.662	17387
866.793	17337
866.924	17368
867.055	17429
867.186	17337
867.317	17368
867.448	17292
867.579	17303
867.71	17231
867.841	17246
867.972	17402
868.103	17337
868.233	17277
868.364	17326
868.495	17486
868.625	17611
868.756	17764
868.886	17638
869.017	17585
869.147	17668
869.278	17794
869.408	17680
869.539	17623
869.669	17710
869.799	17646
869.929	17726
870.06	17752
870.19	18038
870.32	17988
870.45	17958
870.58	18022
870.71	18140
870.84	18258
870.97	18114
871.1	18026
871.23	18232
871.36	18224
871.489	18300
871.619	18311
871.749	18232
871.879	18399
872.008	18369
872.138	18338
872.267	18369
872.397	18277
872.526	18247
872.656	18292
872.785	18350
872.915	18509
873.044	18486
873.173	18540
873.303	18612
873.432	18532
873.561	18627
873.69	18559
873.819	18627
873.948	18642
874.077	18673
874.206	18650
874.335	18677
874.464	18856
874.593	19015
874.722	19019
874.851	19061
874.979	19175
875.108	19213
875.237	19069
875.365	19004
875.494	19179
875.623	19384
875.751	19327
875.88	19449
876.008	19563
876.136	19594
876.265	19875
876.393	20119
876.521	20008
876.65	20077
876.778	20058
876.906	20107
877.034	20183
877.162	20081
877.29	20324
877.418	20290
877.546	20347
877.674	20552
877.802	20564
877.93	20773
878.058	20979
878.185	21013
878.313	21359
878.441	21766
878.568	21804
878.696	22523
878.824	23334
878.951	24456
879.079	25887
879.206	27831
879.333	29691
879.461	31232
879.588	32275
879.715	32377
879.842	31445
879.97	29794
880.097	27671
880.224	26092
880.351	25107
880.478	24315
880.605	23718
880.732	23330
880.859	23307
880.986	22942
881.112	22850
881.239	22584
881.366	22592
881.493	22512
881.619	22447
881.746	22508
881.872	22436
881.999	22356
882.125	22379
882.252	22630
882.378	22626
882.505	22721
882.631	22622
882.757	22561
882.883	22523
883.01	22580
883.136	22390
883.262	22276
883.388	22363
883.514	22424
883.64	22394
883.766	22451
883.892	22200
884.018	22284
884.143	22462
884.269	22550
884.395	22230
884.52	22223
884.646	22139
884.772	22261
884.897	22048
885.023	22029
885.148	22177
885.274	22318
885.399	22086
885.524	21937
885.65	21854
885.775	21637
885.9	21530
886.025	21526
886.15	21367
886.275	21249
886.4	20979
886.525	20895
886.65	20773
886.775	20674
886.9	20724
887.025	20598
887.149	20358
887.274	20187
887.399	20016
887.523	19967
887.648	19913
887.773	19757
887.897	19875
888.021	19818
888.146	19537
888.27	19635
888.395	19757
888.519	19533
888.643	19434
888.767	19438
888.891	19190
889.015	19061
889.139	19103
889.263	19141
889.387	19118
889.511	19255
889.635	19057
889.759	18958
889.883	18901
890.006	18901
890.13	18829
890.254	18825
890.377	18658
890.501	18582
890.624	18665
890.748	18578
890.871	18292
890.995	18273
891.118	18205
891.241	18319
891.364	18304
891.488	18277
891.611	18121
891.734	18140
891.857	18201
891.98	18155
892.103	18254
892.226	18136
892.349	17999
892.471	17893
892.594	18022
892.717	17927
892.839	17809
892.962	17859
893.085	17980
893.207	17859
893.33	17760
893.452	17691
893.575	17779
893.697	17604
893.819	17901
893.941	17821
894.064	17790
894.186	17627
894.308	17668
894.43	17680
894.552	17737
894.674	17619
894.796	17573
894.918	17581
895.04	17436
895.161	17581
895.283	17600
895.405	17414
895.526	17524
895.648	17577
895.769	17509
895.891	17490
896.012	17512
896.134	17486
896.255	17429
896.376	17436
896.498	17501
896.619	17539
896.74	17417
896.861	17482
896.982	17771
897.103	17893
897.224	17600
897.345	17532
897.466	17596
897.587	17646
897.708	17722
897.828	17600
897.949	17611
898.07	17478
898.19	17516
898.311	17684
898.431	17570
898.552	17665
898.672	17653
898.792	17657
898.913	17592
899.033	17455
899.153	17421
899.273	17326
899.393	17429
899.513	17429
899.633	17376
899.753	17501
899.873	17345
899.993	17444
900.113	17364
900.232	17379
900.352	17356
900.472	17322
900.591	17090
900.711	17379
900.83	17193
900.95	17406
901.069	17486
901.189	17189
901.308	16904
901.427	16744
901.546	16801
901.665	16816
901.784	16755
901.904	16611
902.023	16596
902.141	16325
902.26	16348
902.379	16447
902.498	16215
902.617	16261
902.735	16242
902.854	16112
902.973	16166
903.091	16002
903.21	15945
903.328	15994
903.446	15831
903.565	15751
903.683	15709
903.801	15564
903.919	15625
904.038	15648
904.156	15538
904.274	15603
904.392	15447
904.51	15435
904.627	15507
904.745	15439
904.863	15549
904.981	15199
905.098	15104
905.216	15085
905.334	15161
905.451	15119
905.569	15074
905.686	15150
905.803	15127
905.921	14864
906.038	14967
906.155	14971
906.272	14708
906.389	14845
906.506	14670
906.623	14743
906.74	14606
906.857	14564
906.974	14533
907.091	14606
907.208	14758
907.324	14674
907.441	14636
907.557	14457
907.674	14450
907.79	14267
907.907	14286
908.023	14381
908.139	14229
908.256	14320
908.372	14244
908.488	14195
908.604	14054
908.72	13928
908.836	14119
908.952	14103
909.068	14134
909.184	14145
909.3	14123
909.415	14130
909.531	14119
909.647	13871
909.762	13772
909.878	13731
909.993	13822
910.108	13795
910.224	13811
910.339	13818
910.454	13772
910.57	13791
910.685	13632
910.8	13868
910.915	13776
911.03	13582
911.145	13510
911.259	13460
911.374	13453
911.489	13365
911.604	13362
911.718	13240
911.833	13285
911.947	13080
912.062	13088
912.176	13228
912.291	13168
912.405	13209
912.519	13304
912.633	13381
912.748	13259
912.862	13301
912.976	13053
913.09	13023
913.204	12996
913.318	13069
913.431	13278
913.545	13084
913.659	13183
913.772	13000
913.886	12951
914	12856
914.113	13015
914.226	13046
914.34	13042
914.453	12703
914.566	13023
914.68	12825
914.793	12783
914.906	12654
915.019	12623
915.132	12498
915.245	12658
915.358	12650
915.47	12608
915.583	12700
915.696	12677
915.809	12776
915.921	12867
916.034	12551
916.146	12513
916.259	12574
916.371	12669
916.483	12570
916.595	12551
916.708	12646
916.82	12578
916.932	12578
917.044	12604
917.156	12445
917.268	12509
917.38	12544
917.491	12369
917.603	12437
917.715	12437
917.826	12471
917.938	12327
918.049	12239
918.161	12403
918.272	12506
918.384	12410
918.495	12232
918.606	12209
918.717	12129
918.828	12144
918.939	12209
919.05	12064
919.161	12102
919.272	11885
919.383	11980
919.494	12209
919.604	12232
919.715	12144
919.826	12064
919.936	12152
920.047	12262
920.157	12201
920.267	12311
920.378	12106
920.488	12091
920.598	12281
920.708	12521
920.818	12361
920.928	12285
921.038	12426
921.148	12429
921.258	12159
921.368	11980
921.477	11836
921.587	11954
921.697	11843
921.806	11908
921.916	11855
922.025	11672
922.134	11585
922.244	11520
922.353	11737
922.462	11425
922.571	11356
922.68	11212
922.789	11296
922.898	11398
923.007	11174
923.116	11189
923.224	11254
923.333	11239
923.442	11075
923.55	11159
923.659	11090
923.767	11143
923.876	11067
923.984	11064
924.092	10999
924.201	11060
924.309	11060
924.417	11067
924.525	10972
924.633	10946
924.741	11794
924.849	10801
924.956	10984
925.064	10831
925.172	10729
925.279	10793
925.387	10771
925.494	10748
925.602	10934
925.709	10911
925.816	10721
925.924	10797
926.031	10854
926.138	10744
926.245	10911
926.352	10744
926.459	10748
926.566	10873
926.673	10714
926.779	10618
926.886	10672
926.993	10516
927.099	10390
927.206	10474
927.312	10382
927.419	10512
927.525	10451
927.631	10481
927.737	10344
927.843	10344
927.95	10261
928.056	10295
928.162	10310
928.267	10375
928.373	10949
928.479	10405
928.585	10124
928.69	10219
928.796	10329
928.901	10131
929.007	10029
929.112	10249
929.218	10215
929.323	10055
929.428	10048
929.533	10227
929.638	9994
929.743	10025
929.848	10105
929.953	10013
930.058	9964
930.163	9778
930.267	9895
930.372	9907
930.477	9804
930.581	10093
930.685	9880
930.79	9747
930.894	9774
930.998	9690
931.103	9842
931.207	9538
931.311	9488
931.415	9416
931.519	9169
931.623	9188
