Data from test_V78500241_2923.txt Node
Date: Fri Mar 25 14:54:04 CST 2022
User: usil
Spectrometer: V785-0024
Trigger mode: 0
Integration Time (sec): 4.000000E-1
Scans to average: 1
Nonlinearity correction enabled: false
Boxcar width: 0
Storing dark spectrum: false
XAxis mode: Wavelengths
Number of Pixels in Spectrum: 1024
>>>>>Begin Spectral Data<<<<<
801.071	22059
801.214	21994
801.356	21713
801.499	21644
801.641	21583
801.783	21492
801.926	21450
802.068	21488
802.211	21230
802.353	21332
802.496	20990
802.638	20956
802.78	20807
802.923	20838
803.065	20667
803.208	20727
803.35	20746
803.492	20857
803.635	20899
803.777	20720
803.919	20777
804.061	21070
804.204	20868
804.346	20655
804.488	20617
804.63	20773
804.773	20693
804.915	20674
805.057	20731
805.199	20670
805.341	20651
805.483	20792
805.626	20804
805.768	20678
805.91	20655
806.052	20663
806.194	20606
806.336	20785
806.478	20720
806.62	20594
806.762	20785
806.904	20853
807.046	21173
807.188	21036
807.33	21024
807.472	21108
807.614	20891
807.756	20834
807.898	20853
808.04	20739
808.182	20785
808.324	20781
808.465	20735
808.607	20948
808.749	21146
808.891	21062
809.033	21249
809.174	21135
809.316	21055
809.458	21020
809.6	20967
809.741	21138
809.883	21055
810.025	21252
810.166	21241
810.308	21203
810.45	21093
810.591	21173
810.733	20895
810.875	20819
811.016	20777
811.158	20670
811.299	20872
811.441	20921
811.582	20914
811.724	20773
811.865	20777
812.007	20834
812.148	20754
812.29	20815
812.431	21001
812.573	21161
812.714	21222
812.855	21291
812.997	21294
813.138	21564
813.279	21405
813.421	21416
813.562	21226
813.703	21211
813.845	20986
813.986	20663
814.127	20412
814.268	20419
814.41	20503
814.551	20389
814.692	20530
814.833	20389
814.974	20339
815.115	20343
815.256	20107
815.397	20294
815.539	20206
815.68	20298
815.821	20046
815.962	20031
816.103	20088
816.244	20012
816.385	19841
816.526	19795
816.666	19681
816.807	19556
816.948	19651
817.089	19689
817.23	19556
817.371	19403
817.512	19499
817.653	19457
817.793	19354
817.934	19502
818.075	19495
818.216	19510
818.356	19578
818.497	19324
818.638	19270
818.778	19213
818.919	19301
819.06	19247
819.2	19419
819.341	19373
819.481	19384
819.622	19495
819.762	19708
819.903	19742
820.043	19552
820.184	19624
820.324	19609
820.465	19586
820.605	19510
820.746	19495
820.886	19369
821.026	19441
821.167	19476
821.307	19487
821.447	19403
821.588	19320
821.728	19194
821.868	19091
822.008	18935
822.149	18878
822.289	18825
822.429	18677
822.569	18616
822.709	18540
822.849	18334
822.99	18365
823.13	18342
823.27	18338
823.41	18205
823.55	18114
823.69	18102
823.83	18235
823.97	18064
824.11	18079
824.25	17870
824.389	17870
824.529	18045
824.669	17923
824.809	17912
824.949	18019
825.089	17885
825.228	17977
825.368	17805
825.508	17668
825.648	17604
825.787	17737
825.927	17729
826.067	17741
826.206	17630
826.346	17710
826.485	17737
826.625	17661
826.765	17805
826.904	17733
827.044	17543
827.183	17509
827.323	17425
827.462	17562
827.601	17452
827.741	17303
827.88	17425
828.02	17356
828.159	17337
828.298	17490
828.437	17452
828.577	17395
828.716	17661
828.855	17433
828.994	17223
829.134	17265
829.273	17170
829.412	17105
829.551	17132
829.69	17166
829.829	17178
829.968	17193
830.107	17261
830.246	17212
830.385	17166
830.524	17010
830.663	16999
830.802	16805
830.941	16869
831.08	16733
831.219	16942
831.357	16858
831.496	16987
831.635	16694
831.774	16672
831.913	16622
832.051	16599
832.19	16550
832.329	16577
832.467	16481
832.606	16504
832.744	16497
832.883	16394
833.022	16417
833.16	16451
833.299	16481
833.437	16512
833.576	16546
833.714	16436
833.852	16565
833.991	16493
834.129	16443
834.267	16474
834.406	16459
834.544	16474
834.682	16447
834.821	16565
834.959	16664
835.097	16394
835.235	16592
835.373	16607
835.511	16470
835.65	16295
835.788	16481
835.926	16230
836.064	16261
836.202	16192
836.34	16516
836.478	16485
836.615	16322
836.753	16405
836.891	16443
837.029	16409
837.167	16341
837.305	16337
837.443	16215
837.58	16291
837.718	16371
837.856	16295
837.993	16226
838.131	16329
838.269	16223
838.406	16329
838.544	16067
838.681	15941
838.819	15926
838.956	15865
839.094	15850
839.231	15869
839.369	15869
839.506	16223
839.643	16063
839.781	15884
839.918	15774
840.055	15994
840.193	15759
840.33	15808
840.467	15884
840.604	15915
840.742	16063
840.879	15713
841.016	15732
841.153	15766
841.29	15979
841.427	15854
841.564	15793
841.701	15793
841.838	15774
841.975	15785
842.112	15705
842.249	15530
842.385	15542
842.522	15713
842.659	15633
842.796	15576
842.933	15622
843.069	15618
843.206	15523
843.343	15652
843.479	15633
843.616	15648
843.752	15321
843.889	15389
844.025	15523
844.162	15340
844.298	15416
844.435	15428
844.571	15313
844.708	15485
844.844	15545
844.98	15603
845.117	15530
845.253	15439
845.389	15241
845.525	15233
845.661	15313
845.798	15222
845.934	15245
846.07	15138
846.206	15199
846.342	15348
846.478	15157
846.614	15039
846.75	14967
846.886	14895
847.022	14948
847.158	14952
847.294	15036
847.429	15066
847.565	14883
847.701	15272
847.837	14674
847.972	14663
848.108	14788
848.244	14746
848.379	14613
848.515	14530
848.65	14480
848.786	14556
848.921	14564
849.057	14587
849.192	14678
849.328	14655
849.463	14552
849.598	14545
849.734	14526
849.869	14492
850.004	14313
850.14	14434
850.275	14343
850.41	14210
850.545	14313
850.68	14320
850.815	14309
850.95	14263
851.085	14480
851.22	14389
851.355	14374
851.49	14324
851.625	14248
851.76	14233
851.895	14210
852.03	14187
852.165	14385
852.299	14298
852.434	14385
852.569	14381
852.703	14267
852.838	14469
852.973	14419
853.107	14450
853.242	14233
853.376	14126
853.511	14035
853.645	14107
853.78	14271
853.914	14172
854.048	14157
854.183	14218
854.317	14199
854.451	14317
854.585	14172
854.72	14153
854.854	14176
854.988	14081
855.122	14183
855.256	14012
855.39	14081
855.524	14278
855.658	14218
855.792	14187
855.926	14172
856.06	14153
856.194	14286
856.327	14145
856.461	14145
856.595	14176
856.729	14149
856.862	14320
856.996	14218
857.13	14225
857.263	14343
857.397	14210
857.53	14161
857.664	14199
857.797	14248
857.931	14351
858.064	14278
858.197	14206
858.331	14195
858.464	14107
858.597	14027
858.731	14195
858.864	14123
858.997	14081
859.13	14145
859.263	14195
859.396	14221
859.529	14240
859.662	14191
859.795	14221
859.928	14218
860.061	14431
860.194	14358
860.327	14191
860.46	14111
860.592	14168
860.725	14298
860.858	14298
860.99	14199
861.123	14050
861.256	14088
861.388	14221
861.521	14918
861.653	14054
861.786	14084
861.918	14077
862.05	14046
862.183	14202
862.315	14259
862.447	14275
862.58	14210
862.712	13898
862.844	13928
862.976	13955
863.108	14001
863.24	14339
863.372	13814
863.504	13986
863.636	14077
863.768	14031
863.9	13989
864.032	13932
864.164	13868
864.296	13974
864.428	14050
864.559	14050
864.691	14103
864.823	14050
864.954	13997
865.086	14043
865.217	14008
865.349	13837
865.48	13913
865.612	13978
865.743	14130
865.875	14008
866.006	13993
866.137	13963
866.269	13951
866.4	13944
866.531	13906
866.662	13852
866.793	14020
866.924	13928
867.055	13913
867.186	13932
867.317	13936
867.448	13856
867.579	14012
867.71	13864
867.841	13811
867.972	13913
868.103	13970
868.233	13989
868.364	13875
868.495	14065
868.625	14206
868.756	14278
868.886	14092
869.017	14225
869.147	14252
869.278	14317
869.408	14218
869.539	14145
869.669	14233
869.799	14240
869.929	14252
870.06	14298
870.19	14450
870.32	14545
870.45	14537
870.58	14606
870.71	14796
870.84	14739
870.97	14564
871.1	14651
871.23	14804
871.36	14853
871.489	14655
871.619	14701
871.749	14838
871.879	14762
872.008	14872
872.138	14849
872.267	14765
872.397	14720
872.526	14648
872.656	14625
872.785	14636
872.915	14845
873.044	14948
873.173	14868
873.303	14857
873.432	14887
873.561	14933
873.69	14849
873.819	14925
873.948	14929
874.077	14918
874.206	14746
874.335	14845
874.464	15138
874.593	15123
874.722	15062
874.851	15150
874.979	15298
875.108	15226
875.237	15165
875.365	15070
875.494	15135
875.623	15180
875.751	15142
875.88	15184
876.008	15325
876.136	15363
876.265	15591
876.393	15694
876.521	15736
876.65	15625
876.778	15591
876.906	15504
877.034	15572
877.162	15523
877.29	15515
877.418	15584
877.546	15504
877.674	15538
877.802	15576
877.93	15637
878.058	15584
878.185	15466
878.313	15576
878.441	15542
878.568	15405
878.696	15511
878.824	15526
878.951	15667
879.079	15686
879.206	15857
879.333	15747
879.461	15648
879.588	15682
879.715	15823
879.842	15789
879.97	15663
880.097	15500
880.224	15363
880.351	15424
880.478	15408
880.605	15420
880.732	15393
880.859	15584
880.986	15568
881.112	15454
881.239	15302
881.366	15211
881.493	15070
881.619	15051
881.746	15135
881.872	15066
881.999	15085
882.125	15001
882.252	15074
882.378	15028
882.505	15294
882.631	15005
882.757	14933
882.883	15032
883.01	15009
883.136	14963
883.262	14796
883.388	14693
883.514	14899
883.64	14952
883.766	14830
883.892	14750
884.018	14807
884.143	15001
884.269	14906
884.395	14667
884.52	14537
884.646	14617
884.772	14522
884.897	14594
885.023	14659
885.148	14697
885.274	14708
885.399	14708
885.524	14545
885.65	14606
885.775	14697
885.9	14640
886.025	14750
886.15	14644
886.275	14625
886.4	14454
886.525	14549
886.65	14648
886.775	14560
886.9	14746
887.025	14849
887.149	14556
887.274	14473
887.399	14358
887.523	14461
887.648	14328
887.773	14362
887.897	14579
888.021	14503
888.146	14347
888.27	14606
888.395	14533
888.519	14476
888.643	14602
888.767	14431
888.891	14313
889.015	14256
889.139	14370
889.263	14317
889.387	14347
889.511	14533
889.635	14522
889.759	14305
889.883	14298
890.006	14393
890.13	14343
890.254	14240
890.377	14210
890.501	14199
890.624	14130
890.748	14202
890.871	14027
890.995	14001
891.118	13894
891.241	13894
891.364	13974
891.488	14210
891.611	14214
891.734	14016
891.857	14008
891.98	14088
892.103	14153
892.226	14107
892.349	14020
892.471	13837
892.594	14020
892.717	14065
892.839	13967
892.962	14008
893.085	14077
893.207	13944
893.33	13871
893.452	13967
893.575	14088
893.697	13967
893.819	14172
893.941	14275
894.064	14073
894.186	13947
894.308	13978
894.43	14172
894.552	14271
894.674	14214
894.796	13864
894.918	13917
895.04	14100
895.161	14168
895.283	14221
895.405	13989
895.526	14153
895.648	14115
895.769	14210
895.891	14290
896.012	14252
896.134	14218
896.255	14149
896.376	14187
896.498	14267
896.619	14183
896.74	14119
896.861	14214
896.982	14396
897.103	14788
897.224	14484
897.345	14473
897.466	14370
897.587	14450
897.708	14575
897.828	14507
897.949	14412
898.07	14278
898.19	14309
898.311	14625
898.431	14499
898.552	14549
898.672	14617
898.792	14621
898.913	14526
899.033	14480
899.153	14400
899.273	14328
899.393	14412
899.513	14370
899.633	14434
899.753	14347
899.873	14480
899.993	14488
900.113	14347
900.232	14476
900.352	14457
900.472	14408
900.591	14153
900.711	14351
900.83	14324
900.95	14427
901.069	14427
901.189	14252
901.308	13955
901.427	13921
901.546	14005
901.665	13944
901.784	14050
901.904	13761
902.023	13700
902.141	13537
902.26	13514
902.379	13643
902.498	13514
902.617	13480
902.735	13487
902.854	13453
902.973	13434
903.091	13228
903.21	13183
903.328	13145
903.446	13156
903.565	13179
903.683	13107
903.801	12970
903.919	13072
904.038	13110
904.156	12894
904.274	13031
904.392	12916
904.51	12856
904.627	12932
904.745	12935
904.863	13015
904.981	12703
905.098	12585
905.216	12540
905.334	12589
905.451	12654
905.569	12646
905.686	12623
905.803	12582
905.921	12403
906.038	12528
906.155	12399
906.272	12308
906.389	12353
906.506	12182
906.623	12235
906.74	12121
906.857	12045
906.974	12087
907.091	12213
907.208	12330
907.324	12251
907.441	12220
907.557	11920
907.674	11965
907.79	11882
907.907	11977
908.023	11969
908.139	11958
908.256	11882
908.372	11847
908.488	11870
908.604	11775
908.72	11733
908.836	11653
908.952	11634
909.068	11661
909.184	11752
909.3	11668
909.415	11771
909.531	11703
909.647	11490
909.762	11471
909.878	11402
909.993	11471
910.108	11440
910.224	11372
910.339	11433
910.454	11402
910.57	11265
910.685	11269
910.8	11592
910.915	11452
911.03	11349
911.145	11143
911.259	11128
911.374	11181
911.489	11128
911.604	11086
911.718	10915
911.833	10930
911.947	10835
912.062	10767
912.176	10949
912.291	10946
912.405	10911
912.519	11143
912.633	11136
912.748	11052
912.862	10915
912.976	10778
913.09	10698
913.204	10797
913.318	10748
913.431	10885
913.545	10885
913.659	10831
913.772	10820
913.886	10675
914	10694
914.113	10835
914.226	10721
914.34	10843
914.453	10584
914.566	10843
914.68	10675
914.793	10588
914.906	10485
915.019	10375
915.132	10329
915.245	10466
915.358	10455
915.47	10417
915.583	10478
915.696	10497
915.809	10637
915.921	10569
916.034	10382
916.146	10352
916.259	10371
916.371	10504
916.483	10405
916.595	10413
916.708	10459
916.82	10356
916.932	10402
917.044	10352
917.156	10356
917.268	10211
917.38	10318
917.491	10272
917.603	10295
917.715	10409
917.826	10386
917.938	10272
918.049	10147
918.161	10268
918.272	10413
918.384	10402
918.495	10246
918.606	10139
918.717	10040
918.828	10147
918.939	10219
919.05	10105
919.161	10147
919.272	9953
919.383	10048
919.494	10234
919.604	10386
919.715	10181
919.826	10063
919.936	10181
920.047	10291
920.157	10131
920.267	10379
920.378	10154
920.488	10173
920.598	10402
920.708	10523
920.818	10440
920.928	10310
921.038	10531
921.148	10504
921.258	10181
921.368	10135
921.477	10074
921.587	9987
921.697	9964
921.806	10055
921.916	9926
922.025	9781
922.134	9717
922.244	9709
922.353	9819
922.462	9629
922.571	9481
922.68	9431
922.789	9382
922.898	9401
923.007	9382
923.116	9466
923.224	9450
923.333	9450
923.442	9264
923.55	9329
923.659	9321
923.767	9370
923.876	9272
923.984	9355
924.092	9233
924.201	9313
924.309	9253
924.417	9287
924.525	9237
924.633	9313
924.741	10188
924.849	9047
924.956	9256
925.064	9058
925.172	8960
925.279	9001
925.387	9123
925.494	9020
925.602	9195
925.709	9150
925.816	9013
925.924	9070
926.031	9195
926.138	9066
926.245	9085
926.352	8975
926.459	9104
926.566	9195
926.673	9009
926.779	8933
926.886	8963
926.993	8842
927.099	8792
927.206	8769
927.312	8735
927.419	8899
927.525	8781
927.631	8910
927.737	8720
927.843	8750
927.95	8530
928.056	8659
928.162	8731
928.267	8754
928.373	9386
928.479	8727
928.585	8571
928.69	8689
928.796	8720
928.901	8613
929.007	8473
929.112	8579
929.218	8598
929.323	8541
929.428	8526
929.533	8598
929.638	8488
929.743	8454
929.848	8556
929.953	8476
930.058	8404
930.163	8275
930.267	8286
930.372	8396
930.477	8237
930.581	8503
930.685	8366
930.79	8229
930.894	8339
930.998	8195
931.103	8351
931.207	8069
931.311	7986
931.415	7830
931.519	7704
931.623	7658
