Data from test_V78500241_1435.txt Node
Date: Fri Mar 25 14:43:42 CST 2022
User: usil
Spectrometer: V785-0024
Trigger mode: 0
Integration Time (sec): 4.000000E-1
Scans to average: 1
Nonlinearity correction enabled: false
Boxcar width: 0
Storing dark spectrum: false
XAxis mode: Wavelengths
Number of Pixels in Spectrum: 1024
>>>>>Begin Spectral Data<<<<<
801.071	22443
801.214	22409
801.356	22074
801.499	21991
801.641	21819
801.783	21755
801.926	21835
802.068	21694
802.211	21629
802.353	21637
802.496	21382
802.638	21355
802.78	21321
802.923	21192
803.065	21169
803.208	21138
803.35	21074
803.492	21256
803.635	21230
803.777	21039
803.919	21233
804.061	21538
804.204	21146
804.346	21051
804.488	21047
804.63	21146
804.773	21058
804.915	21135
805.057	21142
805.199	21051
805.341	21230
805.483	21211
805.626	21157
805.768	21020
805.91	21013
806.052	21055
806.194	21047
806.336	21226
806.478	21176
806.62	20998
806.762	21188
806.904	21192
807.046	21492
807.188	21500
807.33	21485
807.472	21428
807.614	21401
807.756	21431
807.898	21321
808.04	21192
808.182	21207
808.324	21279
808.465	21424
808.607	21519
808.749	21739
808.891	21804
809.033	21880
809.174	21781
809.316	21656
809.458	21606
809.6	21542
809.741	21629
809.883	21564
810.025	21774
810.166	21686
810.308	21572
810.45	21587
810.591	21496
810.733	21370
810.875	21291
811.016	21161
811.158	21203
811.299	21268
811.441	21359
811.582	21397
811.724	21283
811.865	21203
812.007	21199
812.148	21199
812.29	21237
812.431	21473
812.573	21625
812.714	21610
812.855	21743
812.997	21732
813.138	21888
813.279	21732
813.421	21743
813.562	21766
813.703	21488
813.845	21412
813.986	21093
814.127	20990
814.268	20864
814.41	20788
814.551	20823
814.692	20785
814.833	20625
814.974	20754
815.115	20724
815.256	20663
815.397	20724
815.539	20670
815.68	20507
815.821	20355
815.962	20427
816.103	20537
816.244	20313
816.385	20278
816.526	20122
816.666	20119
816.807	19974
816.948	20073
817.089	20050
817.23	20035
817.371	19940
817.512	19982
817.653	19925
817.793	20001
817.934	20054
818.075	20027
818.216	19959
818.356	19925
818.497	19704
818.638	19655
818.778	19685
818.919	19674
819.06	19670
819.2	19723
819.341	19757
819.481	19837
819.622	19947
819.762	20012
819.903	20142
820.043	20046
820.184	19974
820.324	19898
820.465	19944
820.605	19940
820.746	20031
820.886	19864
821.026	19811
821.167	19883
821.307	19856
821.447	19913
821.588	19681
821.728	19586
821.868	19438
822.008	19289
822.149	19244
822.289	19320
822.429	19061
822.569	19110
822.709	19012
822.849	18905
822.99	18806
823.13	18779
823.27	18829
823.41	18650
823.55	18601
823.69	18646
823.83	18627
823.97	18547
824.11	18441
824.25	18391
824.389	18380
824.529	18464
824.669	18471
824.809	18422
824.949	18460
825.089	18441
825.228	18498
825.368	18220
825.508	18174
825.648	18129
825.787	18232
825.927	18121
826.067	18155
826.206	18121
826.346	18068
826.485	18167
826.625	18155
826.765	18262
826.904	18209
827.044	17927
827.183	17866
827.323	17824
827.462	17863
827.601	17851
827.741	17729
827.88	17805
828.02	17805
828.159	17840
828.298	17840
828.437	17984
828.577	17726
828.716	17961
828.855	17790
828.994	17623
829.134	17573
829.273	17665
829.412	17570
829.551	17566
829.69	17520
829.829	17638
829.968	17767
830.107	17608
830.246	17608
830.385	17459
830.524	17463
830.663	17474
830.802	17261
830.941	17284
831.08	17220
831.219	17349
831.357	17193
831.496	17425
831.635	17170
831.774	17178
831.913	17159
832.051	16984
832.19	17033
832.329	17075
832.467	16949
832.606	16866
832.744	16858
832.883	16900
833.022	16976
833.16	16866
833.299	16877
833.437	16953
833.576	17025
833.714	16999
833.852	16927
833.991	16957
834.129	17029
834.267	17029
834.406	16957
834.544	17056
834.682	16862
834.821	17022
834.959	17083
835.097	16858
835.235	16946
835.373	16949
835.511	17010
835.65	16839
835.788	16889
835.926	16721
836.064	16599
836.202	16668
836.34	16889
836.478	16961
836.615	16869
836.753	16793
836.891	16915
837.029	16881
837.167	16881
837.305	16717
837.443	16759
837.58	16656
837.718	16801
837.856	16763
837.993	16725
838.131	16698
838.269	16626
838.406	16546
838.544	16531
838.681	16432
838.819	16405
838.956	16173
839.094	16276
839.231	16291
839.369	16481
839.506	16664
839.643	16459
839.781	16272
839.918	16219
840.055	16246
840.193	16325
840.33	16215
840.467	16219
840.604	16344
840.742	16474
840.879	16086
841.016	16185
841.153	16128
841.29	16337
841.427	16200
841.564	16284
841.701	16333
841.838	16181
841.975	16234
842.112	16223
842.249	16090
842.385	15975
842.522	16246
842.659	16040
842.796	16025
842.933	15937
843.069	15945
843.206	15991
843.343	16044
843.479	16036
843.616	16105
843.752	15724
843.889	15876
844.025	15956
844.162	15816
844.298	15846
844.435	15812
844.571	15778
844.708	15838
844.844	16071
844.98	15850
845.117	15922
845.253	15785
845.389	15698
845.525	15793
845.661	15899
845.798	15797
845.934	15930
846.07	15880
846.206	15953
846.342	16021
846.478	15739
846.614	15530
846.75	15412
846.886	15412
847.022	15488
847.158	15500
847.294	15424
847.429	15485
847.565	15310
847.701	15694
847.837	15104
847.972	15154
848.108	15195
848.244	15116
848.379	15013
848.515	14914
848.65	14902
848.786	14937
848.921	15036
849.057	15127
849.192	15051
849.328	15062
849.463	15104
849.598	14952
849.734	14952
849.869	14857
850.004	14853
850.14	14857
850.275	14804
850.41	14670
850.545	14697
850.68	14674
850.815	14750
850.95	14670
851.085	14830
851.22	14792
851.355	14849
851.49	14678
851.625	14651
851.76	14682
851.895	14651
852.03	14613
852.165	14716
852.299	14788
852.434	14807
852.569	14731
852.703	14739
852.838	14834
852.973	14845
853.107	14834
853.242	14727
853.376	14594
853.511	14560
853.645	14651
853.78	14659
853.914	14648
854.048	14602
854.183	14712
854.317	14659
854.451	14796
854.585	14552
854.72	14526
854.854	14613
854.988	14526
855.122	14537
855.256	14488
855.39	14590
855.524	14648
855.658	14701
855.792	14552
855.926	14610
856.06	14632
856.194	14716
856.327	14651
856.461	14587
856.595	14476
856.729	14583
856.862	14708
856.996	14629
857.13	14720
857.263	14746
857.397	14731
857.53	14610
857.664	14754
857.797	14720
857.931	14682
858.064	14655
858.197	14762
858.331	14564
858.464	14571
858.597	14560
858.731	14511
858.864	14579
858.997	14571
859.13	14617
859.263	14606
859.396	14670
859.529	14526
859.662	14590
859.795	14526
859.928	14648
860.061	14785
860.194	14899
860.327	14655
860.46	14594
860.592	14670
860.725	14701
860.858	14727
860.99	14575
861.123	14499
861.256	14545
861.388	14602
861.521	15195
861.653	14423
861.786	14465
861.918	14541
862.05	14549
862.183	14644
862.315	14511
862.447	14651
862.58	14545
862.712	14305
862.844	14358
862.976	14366
863.108	14423
863.24	14826
863.372	14317
863.504	14324
863.636	14358
863.768	14427
863.9	14358
864.032	14267
864.164	14396
864.296	14457
864.428	14438
864.559	14457
864.691	14412
864.823	14393
864.954	14442
865.086	14385
865.217	14317
865.349	14377
865.48	14362
865.612	14347
865.743	14530
865.875	14415
866.006	14275
866.137	14332
866.269	14412
866.4	14309
866.531	14290
866.662	14351
866.793	14309
866.924	14389
867.055	14366
867.186	14415
867.317	14256
867.448	14317
867.579	14191
867.71	14271
867.841	14240
867.972	14313
868.103	14343
868.233	14351
868.364	14290
868.495	14511
868.625	14587
868.756	14583
868.886	14549
869.017	14617
869.147	14663
869.278	14708
869.408	14606
869.539	14629
869.669	14701
869.799	14659
869.929	14864
870.06	14674
870.19	14815
870.32	14914
870.45	15009
870.58	14933
870.71	15039
870.84	15104
870.97	14994
871.1	15013
871.23	15127
871.36	15260
871.489	15142
871.619	15154
871.749	15184
871.879	15245
872.008	15355
872.138	15245
872.267	15127
872.397	15100
872.526	15024
872.656	15009
872.785	14982
872.915	15264
873.044	15313
873.173	15340
873.303	15393
873.432	15252
873.561	15428
873.69	15268
873.819	15222
873.948	15260
874.077	15264
874.206	15252
874.335	15294
874.464	15374
874.593	15359
874.722	15496
874.851	15587
874.979	15629
875.108	15629
875.237	15519
875.365	15431
875.494	15587
875.623	15644
875.751	15591
875.88	15599
876.008	15747
876.136	15770
876.265	16055
876.393	16101
876.521	16097
876.65	16044
876.778	15998
876.906	15941
877.034	15937
877.162	15983
877.29	15899
877.418	15911
877.546	15987
877.674	16048
877.802	16116
877.93	15998
878.058	15918
878.185	15899
878.313	16055
878.441	15994
878.568	15869
878.696	15953
878.824	16044
878.951	16166
879.079	16143
879.206	16390
879.333	16318
879.461	16147
879.588	16219
879.715	16234
879.842	16287
879.97	16109
880.097	15842
880.224	15911
880.351	15941
880.478	15869
880.605	15838
880.732	15804
880.859	16021
880.986	15880
881.112	15884
881.239	15717
881.366	15564
881.493	15587
881.619	15450
881.746	15431
881.872	15485
881.999	15500
882.125	15530
882.252	15519
882.378	15534
882.505	15660
882.631	15466
882.757	15382
882.883	15386
883.01	15355
883.136	15317
883.262	15233
883.388	15108
883.514	15408
883.64	15393
883.766	15287
883.892	15146
884.018	15165
884.143	15363
884.269	15313
884.395	15123
884.52	14960
884.646	15032
884.772	15020
884.897	14899
885.023	15036
885.148	15199
885.274	15230
885.399	15097
885.524	15001
885.65	15043
885.775	15024
885.9	15032
886.025	15093
886.15	15104
886.275	15032
886.4	14910
886.525	15066
886.65	14933
886.775	14998
886.9	15093
887.025	15199
887.149	15017
887.274	14933
887.399	14792
887.523	14796
887.648	14727
887.773	14864
887.897	14948
888.021	14861
888.146	14815
888.27	14891
888.395	15039
888.519	14830
888.643	14868
888.767	14902
888.891	14727
889.015	14701
889.139	14743
889.263	14735
889.387	14674
889.511	14937
889.635	14815
889.759	14697
889.883	14712
890.006	14750
890.13	14796
890.254	14617
890.377	14708
890.501	14450
890.624	14541
890.748	14587
890.871	14408
890.995	14347
891.118	14328
891.241	14370
891.364	14423
891.488	14454
891.611	14385
891.734	14454
891.857	14415
891.98	14396
892.103	14419
892.226	14370
892.349	14434
892.471	14240
892.594	14393
892.717	14351
892.839	14298
892.962	14461
893.085	14465
893.207	14377
893.33	14339
893.452	14237
893.575	14503
893.697	14450
893.819	14442
893.941	14621
894.064	14533
894.186	14309
894.308	14374
894.43	14389
894.552	14571
894.674	14480
894.796	14355
894.918	14465
895.04	14404
895.161	14492
895.283	14503
895.405	14473
895.526	14480
895.648	14507
895.769	14507
895.891	14514
896.012	14629
896.134	14552
896.255	14492
896.376	14556
896.498	14533
896.619	14552
896.74	14583
896.861	14613
896.982	14918
897.103	15032
897.224	14929
897.345	14807
897.466	14762
897.587	14739
897.708	14986
897.828	14948
897.949	14762
898.07	14648
898.19	14788
898.311	14971
898.431	14769
898.552	14948
898.672	15081
898.792	14956
898.913	14906
899.033	14819
899.153	14720
899.273	14674
899.393	14743
899.513	14746
899.633	14686
899.753	14686
899.873	14754
899.993	14781
900.113	14716
900.232	14705
900.352	14659
900.472	14648
900.591	14594
900.711	14545
900.83	14659
900.95	14735
901.069	14708
901.189	14579
901.308	14328
901.427	14263
901.546	14343
901.665	14259
901.784	14374
901.904	14134
902.023	14084
902.141	13951
902.26	13845
902.379	13837
902.498	13841
902.617	13822
902.735	13887
902.854	13795
902.973	13757
903.091	13655
903.21	13533
903.328	13533
903.446	13525
903.565	13434
903.683	13365
903.801	13369
903.919	13358
904.038	13373
904.156	13152
904.274	13266
904.392	13209
904.51	13099
904.627	13228
904.745	13297
904.863	13255
904.981	13034
905.098	12837
905.216	12924
905.334	12905
905.451	12863
905.569	12947
905.686	13034
905.803	12890
905.921	12669
906.038	12779
906.155	12692
906.272	12608
906.389	12665
906.506	12426
906.623	12475
906.74	12479
906.857	12437
906.974	12323
907.091	12585
907.208	12654
907.324	12593
907.441	12327
907.557	12224
907.674	12247
907.79	12144
907.907	12186
908.023	12308
908.139	12304
908.256	12175
908.372	12167
908.488	12129
908.604	12041
908.72	11927
908.836	12041
908.952	11954
909.068	11969
909.184	12038
909.3	11992
909.415	12026
909.531	12064
909.647	11775
909.762	11790
909.878	11775
909.993	11752
910.108	11691
910.224	11672
910.339	11737
910.454	11619
910.57	11581
910.685	11490
910.8	11828
910.915	11729
911.03	11543
911.145	11410
911.259	11501
911.374	11512
911.489	11368
911.604	11395
911.718	11208
911.833	11258
911.947	11060
912.062	11045
912.176	11292
912.291	11227
912.405	11204
912.519	11356
912.633	11425
912.748	11235
912.862	11223
912.976	11117
913.09	10984
913.204	10972
913.318	11041
913.431	11140
913.545	11128
913.659	11174
913.772	11018
913.886	10930
914	10919
914.113	11060
914.226	11079
914.34	11010
914.453	10896
914.566	11094
914.68	10987
914.793	10915
914.906	10763
915.019	10618
915.132	10622
915.245	10725
915.358	10694
915.47	10698
915.583	10721
915.696	10744
915.809	10809
915.921	10824
916.034	10664
916.146	10672
916.259	10558
916.371	10763
916.483	10744
916.595	10626
916.708	10641
916.82	10577
916.932	10577
917.044	10622
917.156	10641
917.268	10542
917.38	10504
917.491	10504
917.603	10497
917.715	10527
917.826	10554
917.938	10516
918.049	10379
918.161	10546
918.272	10656
918.384	10725
918.495	10550
918.606	10402
918.717	10322
918.828	10386
918.939	10382
919.05	10280
919.161	10421
919.272	10242
919.383	10261
919.494	10462
919.604	10596
919.715	10474
919.826	10325
919.936	10390
920.047	10512
920.157	10485
920.267	10573
920.378	10455
920.488	10386
920.598	10649
920.708	10721
920.818	10489
920.928	10599
921.038	10782
921.148	10736
921.258	10500
921.368	10348
921.477	10188
921.587	10242
921.697	10120
921.806	10177
921.916	10162
922.025	9972
922.134	9968
922.244	9884
922.353	10002
922.462	9903
922.571	9838
922.68	9675
922.789	9656
922.898	9614
923.007	9641
923.116	9736
923.224	9682
923.333	9660
923.442	9553
923.55	9568
923.659	9584
923.767	9584
923.876	9485
923.984	9584
924.092	9462
924.201	9431
924.309	9504
924.417	9561
924.525	9466
924.633	9443
924.741	10394
924.849	9302
924.956	9458
925.064	9291
925.172	9268
925.279	9264
925.387	9325
925.494	9245
925.602	9401
925.709	9370
925.816	9222
925.924	9283
926.031	9351
926.138	9245
926.245	9397
926.352	9165
926.459	9332
926.566	9332
926.673	9321
926.779	9173
926.886	9161
926.993	9066
927.099	9066
927.206	8998
927.312	8925
927.419	9043
927.525	8952
927.631	9043
927.737	8853
927.843	8864
927.95	8746
928.056	8830
928.162	8883
928.267	8902
928.373	9641
928.479	9024
928.585	8785
928.69	8899
928.796	8941
928.901	8876
929.007	8674
929.112	8811
929.218	8830
929.323	8674
929.428	8670
929.533	8773
929.638	8705
929.743	8735
929.848	8686
929.953	8712
930.058	8625
930.163	8507
930.267	8473
930.372	8655
930.477	8393
930.581	8693
930.685	8533
930.79	8381
930.894	8480
930.998	8355
931.103	8537
931.207	8252
931.311	8130
931.415	8145
931.519	7902
931.623	7814
