Data from test_V78500241_1296.txt Node
Date: Fri Mar 25 14:42:44 CST 2022
User: usil
Spectrometer: V785-0024
Trigger mode: 0
Integration Time (sec): 4.000000E-1
Scans to average: 1
Nonlinearity correction enabled: false
Boxcar width: 0
Storing dark spectrum: false
XAxis mode: Wavelengths
Number of Pixels in Spectrum: 1024
>>>>>Begin Spectral Data<<<<<
801.071	22398
801.214	22352
801.356	21941
801.499	21937
801.641	21907
801.783	21644
801.926	21728
802.068	21755
802.211	21564
802.353	21488
802.496	21245
802.638	21176
802.78	21298
802.923	21165
803.065	21013
803.208	21066
803.35	21142
803.492	21192
803.635	21264
803.777	21055
803.919	21161
804.061	21420
804.204	21188
804.346	21062
804.488	20948
804.63	21017
804.773	20891
804.915	21077
805.057	21146
805.199	21020
805.341	21096
805.483	21108
805.626	21085
805.768	21017
805.91	20971
806.052	21123
806.194	21017
806.336	21150
806.478	20998
806.62	21047
806.762	21085
806.904	21188
807.046	21405
807.188	21412
807.33	21378
807.472	21447
807.614	21264
807.756	21351
807.898	21260
808.04	21165
808.182	21112
808.324	21260
808.465	21241
808.607	21515
808.749	21564
808.891	21583
809.033	21724
809.174	21663
809.316	21538
809.458	21500
809.6	21397
809.741	21485
809.883	21511
810.025	21671
810.166	21507
810.308	21530
810.45	21450
810.591	21504
810.733	21249
810.875	21294
811.016	21146
811.158	20990
811.299	21233
811.441	21367
811.582	21325
811.724	21169
811.865	21214
812.007	21222
812.148	21043
812.29	21199
812.431	21306
812.573	21504
812.714	21538
812.855	21618
812.997	21766
813.138	21759
813.279	21892
813.421	21652
813.562	21599
813.703	21454
813.845	21310
813.986	21135
814.127	20876
814.268	20769
814.41	20804
814.551	20659
814.692	20891
814.833	20625
814.974	20663
815.115	20689
815.256	20514
815.397	20621
815.539	20587
815.68	20393
815.821	20427
815.962	20446
816.103	20370
816.244	20320
816.385	20172
816.526	20240
816.666	20058
816.807	19890
816.948	20016
817.089	19997
817.23	19921
817.371	19917
817.512	19868
817.653	19826
817.793	19803
817.934	19902
818.075	19849
818.216	19898
818.356	19723
818.497	19712
818.638	19563
818.778	19624
818.919	19476
819.06	19647
819.2	19731
819.341	19738
819.481	19734
819.622	19772
819.762	20126
819.903	20069
820.043	19852
820.184	19898
820.324	19860
820.465	19951
820.605	19868
820.746	19860
820.886	19696
821.026	19841
821.167	19917
821.307	19864
821.447	19708
821.588	19655
821.728	19616
821.868	19567
822.008	19232
822.149	19251
822.289	19175
822.429	19027
822.569	19042
822.709	18916
822.849	18817
822.99	18688
823.13	18749
823.27	18707
823.41	18536
823.55	18464
823.69	18688
823.83	18623
823.97	18456
824.11	18319
824.25	18232
824.389	18323
824.529	18460
824.669	18330
824.809	18456
824.949	18403
825.089	18418
825.228	18429
825.368	18270
825.508	18201
825.648	18171
825.787	18201
825.927	18186
826.067	18060
826.206	18087
826.346	18235
826.485	18155
826.625	18019
826.765	18292
826.904	18167
827.044	17897
827.183	17798
827.323	17821
827.462	17878
827.601	17813
827.741	17752
827.88	17798
828.02	17687
828.159	17828
828.298	17809
828.437	17920
828.577	17726
828.716	17988
828.855	17733
828.994	17638
829.134	17505
829.273	17668
829.412	17592
829.551	17490
829.69	17474
829.829	17611
829.968	17790
830.107	17562
830.246	17558
830.385	17665
830.524	17402
830.663	17372
830.802	17318
830.941	17216
831.08	17273
831.219	17292
831.357	17223
831.496	17402
831.635	17178
831.774	17151
831.913	17064
832.051	16938
832.19	16980
832.329	17079
832.467	17064
832.606	16835
832.744	16911
832.883	16968
833.022	16908
833.16	16965
833.299	16984
833.437	16949
833.576	17003
833.714	16987
833.852	16961
833.991	17041
834.129	17029
834.267	17067
834.406	16999
834.544	16953
834.682	17048
834.821	16995
834.959	17166
835.097	17056
835.235	16987
835.373	16949
835.511	17124
835.65	16885
835.788	16877
835.926	16816
836.064	16626
836.202	16763
836.34	16896
836.478	16919
836.615	16752
836.753	16930
836.891	16938
837.029	16919
837.167	16824
837.305	16774
837.443	16862
837.58	16664
837.718	16767
837.856	16744
837.993	16793
838.131	16717
838.269	16706
838.406	16687
838.544	16577
838.681	16421
838.819	16481
838.956	16249
839.094	16246
839.231	16249
839.369	16424
839.506	16717
839.643	16607
839.781	16352
839.918	16337
840.055	16246
840.193	16192
840.33	16234
840.467	16200
840.604	16253
840.742	16527
840.879	16135
841.016	16333
841.153	16230
841.29	16341
841.427	16325
841.564	16363
841.701	16280
841.838	16200
841.975	16131
842.112	16135
842.249	15979
842.385	16021
842.522	16207
842.659	16078
842.796	16067
842.933	16063
843.069	16013
843.206	16055
843.343	16135
843.479	16128
843.616	16120
843.752	15816
843.889	15850
844.025	15987
844.162	15842
844.298	16002
844.435	15717
844.571	15789
844.708	15960
844.844	15987
844.98	15994
845.117	15937
845.253	15800
845.389	15800
845.525	15755
845.661	15918
845.798	15808
845.934	15873
846.07	15850
846.206	15892
846.342	15812
846.478	15648
846.614	15530
846.75	15454
846.886	15340
847.022	15466
847.158	15370
847.294	15420
847.429	15405
847.565	15332
847.701	15530
847.837	15176
847.972	14967
848.108	15211
848.244	15249
848.379	15074
848.515	14933
848.65	14937
848.786	14971
848.921	14937
849.057	15100
849.192	15138
849.328	15032
849.463	15089
849.598	14956
849.734	15009
849.869	15020
850.004	14758
850.14	14895
850.275	14864
850.41	14743
850.545	14785
850.68	14762
850.815	14777
850.95	14754
851.085	14952
851.22	14807
851.355	14739
851.49	14758
851.625	14750
851.76	14712
851.895	14598
852.03	14636
852.165	14815
852.299	14781
852.434	14796
852.569	14842
852.703	14895
852.838	14864
852.973	14910
853.107	14864
853.242	14800
853.376	14697
853.511	14556
853.645	14526
853.78	14823
853.914	14549
854.048	14670
854.183	14625
854.317	14560
854.451	14899
854.585	14617
854.72	14590
854.854	14678
854.988	14480
855.122	14644
855.256	14484
855.39	14632
855.524	14750
855.658	14773
855.792	14636
855.926	14682
856.06	14785
856.194	14781
856.327	14610
856.461	14556
856.595	14632
856.729	14648
856.862	14716
856.996	14648
857.13	14655
857.263	14807
857.397	14754
857.53	14602
857.664	14758
857.797	14804
857.931	14731
858.064	14678
858.197	14781
858.331	14610
858.464	14602
858.597	14412
858.731	14648
858.864	14598
858.997	14636
859.13	14682
859.263	14708
859.396	14727
859.529	14659
859.662	14560
859.795	14537
859.928	14712
860.061	14670
860.194	14899
860.327	14598
860.46	14667
860.592	14716
860.725	14746
860.858	14792
860.99	14648
861.123	14568
861.256	14590
861.388	14617
861.521	15272
861.653	14579
861.786	14457
861.918	14484
862.05	14503
862.183	14636
862.315	14670
862.447	14670
862.58	14571
862.712	14454
862.844	14305
862.976	14412
863.108	14450
863.24	14811
863.372	14244
863.504	14328
863.636	14423
863.768	14495
863.9	14446
864.032	14309
864.164	14324
864.296	14370
864.428	14511
864.559	14556
864.691	14526
864.823	14469
864.954	14374
865.086	14533
865.217	14339
865.349	14275
865.48	14377
865.612	14488
865.743	14465
865.875	14374
866.006	14377
866.137	14438
866.269	14438
866.4	14434
866.531	14362
866.662	14229
866.793	14317
866.924	14362
867.055	14370
867.186	14393
867.317	14317
867.448	14237
867.579	14309
867.71	14305
867.841	14271
867.972	14423
868.103	14351
868.233	14431
868.364	14351
868.495	14404
868.625	14568
868.756	14712
868.886	14571
869.017	14590
869.147	14712
869.278	14804
869.408	14632
869.539	14617
869.669	14796
869.799	14610
869.929	14769
870.06	14739
870.19	14921
870.32	15001
870.45	14906
870.58	15001
870.71	15150
870.84	15077
870.97	15058
871.1	14918
871.23	15192
871.36	15226
871.489	15081
871.619	15142
871.749	15207
871.879	15336
872.008	15363
872.138	15203
872.267	15211
872.397	15089
872.526	15081
872.656	15070
872.785	15001
872.915	15306
873.044	15275
873.173	15203
873.303	15306
873.432	15272
873.561	15408
873.69	15233
873.819	15279
873.948	15241
874.077	15211
874.206	15192
874.335	15310
874.464	15408
874.593	15595
874.722	15603
874.851	15625
874.979	15625
875.108	15667
875.237	15553
875.365	15500
875.494	15648
875.623	15682
875.751	15557
875.88	15591
876.008	15762
876.136	15911
876.265	15972
876.393	16162
876.521	16097
876.65	16147
876.778	16006
876.906	15991
877.034	16048
877.162	16025
877.29	15983
877.418	15937
877.546	15934
877.674	16021
877.802	16040
877.93	15994
878.058	16025
878.185	15873
878.313	15998
878.441	16051
878.568	15895
878.696	15937
878.824	16116
878.951	16139
879.079	16280
879.206	16379
879.333	16253
879.461	16204
879.588	16261
879.715	16409
879.842	16504
879.97	16261
880.097	15888
880.224	15869
880.351	15964
880.478	15937
880.605	15953
880.732	15907
880.859	16211
880.986	15922
881.112	16021
881.239	15785
881.366	15644
881.493	15530
881.619	15595
881.746	15545
881.872	15682
881.999	15485
882.125	15553
882.252	15610
882.378	15568
882.505	15751
882.631	15504
882.757	15397
882.883	15462
883.01	15466
883.136	15230
883.262	15272
883.388	15279
883.514	15397
883.64	15370
883.766	15389
883.892	15192
884.018	15157
884.143	15370
884.269	15534
884.395	15066
884.52	15116
884.646	15043
884.772	15005
884.897	14963
885.023	15085
885.148	15192
885.274	15207
885.399	15195
885.524	15097
885.65	15146
885.775	15062
885.9	15085
886.025	15241
886.15	15211
886.275	15062
886.4	15017
886.525	14952
886.65	15013
886.775	14998
886.9	15233
887.025	15313
887.149	14963
887.274	14963
887.399	14781
887.523	14963
887.648	14834
887.773	14823
887.897	15020
888.021	15013
888.146	14887
888.27	14963
888.395	14994
888.519	14902
888.643	14941
888.767	15043
888.891	14819
889.015	14754
889.139	14785
889.263	14750
889.387	14902
889.511	14880
889.635	14899
889.759	14701
889.883	14727
890.006	14712
890.13	14868
890.254	14667
890.377	14731
890.501	14545
890.624	14571
890.748	14659
890.871	14541
890.995	14393
891.118	14370
891.241	14427
891.364	14389
891.488	14552
891.611	14385
891.734	14541
891.857	14473
891.98	14461
892.103	14442
892.226	14552
892.349	14484
892.471	14320
892.594	14343
892.717	14488
892.839	14473
892.962	14427
893.085	14431
893.207	14385
893.33	14263
893.452	14400
893.575	14549
893.697	14442
893.819	14594
893.941	14629
894.064	14670
894.186	14415
894.308	14431
894.43	14507
894.552	14606
894.674	14541
894.796	14415
894.918	14396
895.04	14507
895.161	14602
895.283	14499
895.405	14438
895.526	14530
895.648	14480
895.769	14564
895.891	14564
896.012	14655
896.134	14564
896.255	14701
896.376	14533
896.498	14587
896.619	14648
896.74	14625
896.861	14629
896.982	14838
897.103	15020
897.224	14952
897.345	14868
897.466	14781
897.587	14781
897.708	14952
897.828	14929
897.949	14834
898.07	14659
898.19	14861
898.311	14956
898.431	14838
898.552	14861
898.672	14994
898.792	14948
898.913	14967
899.033	14899
899.153	14689
899.273	14678
899.393	14758
899.513	14819
899.633	14739
899.753	14883
899.873	14625
899.993	14823
900.113	14655
900.232	14777
900.352	14712
900.472	14746
900.591	14644
900.711	14682
900.83	14552
900.95	14727
901.069	14663
901.189	14613
901.308	14362
901.427	14362
901.546	14358
901.665	14355
901.784	14377
901.904	14191
902.023	14050
902.141	13913
902.26	13826
902.379	13887
902.498	13818
902.617	13772
902.735	13883
902.854	13898
902.973	13864
903.091	13632
903.21	13575
903.328	13639
903.446	13510
903.565	13514
903.683	13457
903.801	13327
903.919	13464
904.038	13365
904.156	13190
904.274	13369
904.392	13278
904.51	13301
904.627	13202
904.745	13289
904.863	13369
904.981	13050
905.098	12981
905.216	12970
905.334	13019
905.451	12939
905.569	12852
905.686	12977
905.803	13027
905.921	12696
906.038	12802
906.155	12779
906.272	12620
906.389	12639
906.506	12536
906.623	12563
906.74	12403
906.857	12445
906.974	12540
907.091	12662
907.208	12604
907.324	12612
907.441	12429
907.557	12327
907.674	12311
907.79	12232
907.907	12243
908.023	12296
908.139	12243
908.256	12232
908.372	12175
908.488	12197
908.604	12079
908.72	11999
908.836	12057
908.952	11942
909.068	12072
909.184	12148
909.3	11977
909.415	12136
909.531	12049
909.647	11824
909.762	11840
909.878	11798
909.993	11745
910.108	11843
910.224	11745
910.339	11832
910.454	11771
910.57	11619
910.685	11577
910.8	11855
910.915	11779
911.03	11642
911.145	11433
911.259	11528
911.374	11497
911.489	11425
911.604	11307
911.718	11334
911.833	11345
911.947	11242
912.062	11105
912.176	11258
912.291	11254
912.405	11250
912.519	11391
912.633	11421
912.748	11383
912.862	11265
912.976	11159
913.09	10968
913.204	11064
913.318	11239
913.431	11231
913.545	11223
913.659	11220
913.772	11155
913.886	10961
914	10995
914.113	11090
914.226	11147
914.34	11022
914.453	10885
914.566	11056
914.68	10980
914.793	10961
914.906	10759
915.019	10641
915.132	10649
915.245	10710
915.358	10790
915.47	10778
915.583	10786
915.696	10778
915.809	10805
915.921	10869
916.034	10736
916.146	10622
916.259	10656
916.371	10733
916.483	10687
916.595	10596
916.708	10694
916.82	10717
916.932	10607
917.044	10653
917.156	10611
917.268	10565
917.38	10550
917.491	10512
917.603	10554
917.715	10626
917.826	10634
917.938	10493
918.049	10466
918.161	10497
918.272	10729
918.384	10626
918.495	10527
918.606	10417
918.717	10287
918.828	10402
918.939	10512
919.05	10379
919.161	10451
919.272	10257
919.383	10382
919.494	10466
919.604	10698
919.715	10440
919.826	10325
919.936	10432
920.047	10478
920.157	10474
920.267	10683
920.378	10474
920.488	10443
920.598	10691
920.708	10790
920.818	10573
920.928	10615
921.038	10847
921.148	10809
921.258	10462
921.368	10371
921.477	10318
921.587	10280
921.697	10234
921.806	10284
921.916	10177
922.025	10036
922.134	10055
922.244	9972
922.353	10097
922.462	9854
922.571	9804
922.68	9637
922.789	9618
922.898	9682
923.007	9652
923.116	9713
923.224	9713
923.333	9701
923.442	9576
923.55	9538
923.659	9618
923.767	9599
923.876	9485
923.984	9717
924.092	9549
924.201	9519
924.309	9526
924.417	9542
924.525	9530
924.633	9492
924.741	10318
924.849	9336
924.956	9462
925.064	9279
925.172	9233
925.279	9329
925.387	9363
925.494	9325
925.602	9462
925.709	9450
925.816	9230
925.924	9279
926.031	9431
926.138	9313
926.245	9355
926.352	9260
926.459	9397
926.566	9401
926.673	9321
926.779	9161
926.886	9173
926.993	9104
927.099	9009
927.206	9020
927.312	8963
927.419	9058
927.525	9039
927.631	9051
927.737	9085
927.843	8887
927.95	8838
928.056	8906
928.162	8929
928.267	8944
928.373	9530
928.479	8994
928.585	8785
928.69	8883
928.796	8880
928.901	8834
929.007	8655
929.112	8883
929.218	8819
929.323	8777
929.428	8724
929.533	8830
929.638	8644
929.743	8766
929.848	8777
929.953	8762
930.058	8583
930.163	8499
930.267	8526
930.372	8594
930.477	8503
930.581	8724
930.685	8602
930.79	8396
930.894	8526
930.998	8446
931.103	8598
931.207	8275
931.311	8187
931.415	8103
931.519	7963
931.623	7883
