Data from test_V78500241_1944.txt Node
Date: Fri Mar 25 14:47:14 CST 2022
User: usil
Spectrometer: V785-0024
Trigger mode: 0
Integration Time (sec): 4.000000E-1
Scans to average: 1
Nonlinearity correction enabled: false
Boxcar width: 0
Storing dark spectrum: false
XAxis mode: Wavelengths
Number of Pixels in Spectrum: 1024
>>>>>Begin Spectral Data<<<<<
801.071	22185
801.214	21930
801.356	21682
801.499	21663
801.641	21496
801.783	21405
801.926	21492
802.068	21359
802.211	21188
802.353	21150
802.496	21085
802.638	20975
802.78	20963
802.923	20910
803.065	20708
803.208	20735
803.35	20823
803.492	20819
803.635	20941
803.777	20765
803.919	20872
804.061	21165
804.204	20876
804.346	20777
804.488	20705
804.63	20750
804.773	20556
804.915	20792
805.057	20830
805.199	20651
805.341	20708
805.483	20838
805.626	20758
805.768	20769
805.91	20765
806.052	20811
806.194	20697
806.336	20887
806.478	20762
806.62	20632
806.762	20807
806.904	20853
807.046	21142
807.188	21020
807.33	21104
807.472	20986
807.614	20918
807.756	20895
807.898	20743
808.04	20769
808.182	20746
808.324	20838
808.465	20796
808.607	20929
808.749	21093
808.891	21173
809.033	21298
809.174	21256
809.316	21135
809.458	21112
809.6	20998
809.741	21249
809.883	21146
810.025	21184
810.166	21233
810.308	21249
810.45	21237
810.591	21066
810.733	20906
810.875	20883
811.016	20693
811.158	20632
811.299	20838
811.441	21005
811.582	21055
811.724	20910
811.865	20804
812.007	20842
812.148	20853
812.29	20838
812.431	21058
812.573	21157
812.714	21264
812.855	21359
812.997	21443
813.138	21583
813.279	21564
813.421	21389
813.562	21245
813.703	21165
813.845	20982
813.986	20750
814.127	20537
814.268	20419
814.41	20404
814.551	20427
814.692	20431
814.833	20320
814.974	20370
815.115	20412
815.256	20301
815.397	20263
815.539	20278
815.68	20024
815.821	19997
815.962	20096
816.103	20134
816.244	19989
816.385	19887
816.526	19864
816.666	19685
816.807	19434
816.948	19643
817.089	19601
817.23	19544
817.371	19502
817.512	19559
817.653	19556
817.793	19506
817.934	19464
818.075	19651
818.216	19480
818.356	19499
818.497	19339
818.638	19228
818.778	19289
818.919	19255
819.06	19190
819.2	19369
819.341	19396
819.481	19419
819.622	19552
819.762	19746
819.903	19628
820.043	19548
820.184	19502
820.324	19540
820.465	19632
820.605	19624
820.746	19563
820.886	19411
821.026	19537
821.167	19369
821.307	19651
821.447	19480
821.588	19358
821.728	19183
821.868	19103
822.008	18943
822.149	18993
822.289	18897
822.429	18627
822.569	18658
822.709	18620
822.849	18441
822.99	18369
823.13	18342
823.27	18407
823.41	18243
823.55	18292
823.69	18216
823.83	18220
823.97	18026
824.11	18007
824.25	17988
824.389	17912
824.529	18053
824.669	18030
824.809	18167
824.949	17980
825.089	17927
825.228	17923
825.368	17737
825.508	17874
825.648	17805
825.787	17824
825.927	17809
826.067	17699
826.206	17729
826.346	17821
826.485	17729
826.625	17771
826.765	17779
826.904	17722
827.044	17604
827.183	17509
827.323	17410
827.462	17551
827.601	17452
827.741	17387
827.88	17486
828.02	17433
828.159	17478
828.298	17554
828.437	17528
828.577	17455
828.716	17467
828.855	17376
828.994	17212
829.134	17273
829.273	17280
829.412	17223
829.551	17197
829.69	17242
829.829	17318
829.968	17315
830.107	17349
830.246	17265
830.385	17178
830.524	17189
830.663	16987
830.802	16995
830.941	16934
831.08	16839
831.219	16984
831.357	16858
831.496	17014
831.635	16793
831.774	16702
831.913	16797
832.051	16565
832.19	16588
832.329	16656
832.467	16440
832.606	16527
832.744	16561
832.883	16516
833.022	16451
833.16	16618
833.299	16561
833.437	16630
833.576	16554
833.714	16573
833.852	16653
833.991	16626
834.129	16672
834.267	16706
834.406	16675
834.544	16736
834.682	16577
834.821	16588
834.959	16691
835.097	16580
835.235	16687
835.373	16672
835.511	16649
835.65	16485
835.788	16550
835.926	16341
836.064	16333
836.202	16344
836.34	16558
836.478	16645
836.615	16512
836.753	16558
836.891	16580
837.029	16588
837.167	16558
837.305	16371
837.443	16371
837.58	16261
837.718	16447
837.856	16489
837.993	16421
838.131	16371
838.269	16280
838.406	16390
838.544	16200
838.681	16086
838.819	16124
838.956	15915
839.094	15915
839.231	15956
839.369	16097
839.506	16375
839.643	16211
839.781	16071
839.918	15842
840.055	15903
840.193	15911
840.33	15869
840.467	15934
840.604	15968
840.742	16147
840.879	15892
841.016	15884
841.153	15793
841.29	16036
841.427	15941
841.564	15987
841.701	15975
841.838	15838
841.975	15880
842.112	15857
842.249	15781
842.385	15671
842.522	15876
842.659	15663
842.796	15717
842.933	15724
843.069	15675
843.206	15686
843.343	15808
843.479	15778
843.616	15736
843.752	15564
843.889	15606
844.025	15663
844.162	15462
844.298	15614
844.435	15488
844.571	15526
844.708	15561
844.844	15709
844.98	15690
845.117	15599
845.253	15447
845.389	15348
845.525	15496
845.661	15420
845.798	15389
845.934	15447
846.07	15283
846.206	15393
846.342	15545
846.478	15332
846.614	15165
846.75	15028
846.886	15093
847.022	15154
847.158	15077
847.294	15093
847.429	15173
847.565	15089
847.701	15412
847.837	14800
847.972	14861
848.108	14921
848.244	14857
848.379	14712
848.515	14648
848.65	14659
848.786	14590
848.921	14701
849.057	14750
849.192	14777
849.328	14777
849.463	14674
849.598	14701
849.734	14606
849.869	14617
850.004	14465
850.14	14499
850.275	14393
850.41	14381
850.545	14434
850.68	14400
850.815	14476
850.95	14476
851.085	14606
851.22	14507
851.355	14469
851.49	14385
851.625	14336
851.76	14446
851.895	14442
852.03	14229
852.165	14362
852.299	14545
852.434	14499
852.569	14488
852.703	14454
852.838	14625
852.973	14613
853.107	14579
853.242	14366
853.376	14347
853.511	14237
853.645	14271
853.78	14530
853.914	14339
854.048	14286
854.183	14351
854.317	14298
854.451	14568
854.585	14290
854.72	14278
854.854	14396
854.988	14309
855.122	14187
855.256	14100
855.39	14267
855.524	14389
855.658	14423
855.792	14324
855.926	14374
856.06	14507
856.194	14385
856.327	14248
856.461	14225
856.595	14233
856.729	14244
856.862	14339
856.996	14355
857.13	14358
857.263	14385
857.397	14450
857.53	14275
857.664	14431
857.797	14450
857.931	14396
858.064	14320
858.197	14396
858.331	14278
858.464	14294
858.597	14199
858.731	14404
858.864	14290
858.997	14370
859.13	14309
859.263	14336
859.396	14514
859.529	14275
859.662	14267
859.795	14263
859.928	14389
860.061	14533
860.194	14476
860.327	14290
860.46	14317
860.592	14400
860.725	14370
860.858	14404
860.99	14290
861.123	14278
861.256	14248
861.388	14358
861.521	15119
861.653	14275
861.786	14221
861.918	14267
862.05	14267
862.183	14317
862.315	14305
862.447	14332
862.58	14294
862.712	14111
862.844	14031
862.976	14096
863.108	14202
863.24	14507
863.372	14035
863.504	14130
863.636	14062
863.768	14168
863.9	14107
864.032	14050
864.164	14069
864.296	14134
864.428	14161
864.559	14298
864.691	14206
864.823	14218
864.954	14176
865.086	14176
865.217	14065
865.349	14008
865.48	14145
865.612	14149
865.743	14221
865.875	14069
866.006	14050
866.137	14077
866.269	14142
866.4	14111
866.531	14054
866.662	14050
866.793	14115
866.924	14043
867.055	14008
867.186	14100
867.317	14027
867.448	14035
867.579	14107
867.71	14043
867.841	14077
867.972	14111
868.103	14130
868.233	14145
868.364	14081
868.495	14161
868.625	14301
868.756	14381
868.886	14214
869.017	14294
869.147	14476
869.278	14530
869.408	14328
869.539	14282
869.669	14454
869.799	14473
869.929	14473
870.06	14461
870.19	14621
870.32	14670
870.45	14689
870.58	14712
870.71	14861
870.84	14819
870.97	14678
871.1	14750
871.23	14891
871.36	15009
871.489	14819
871.619	14906
871.749	15036
871.879	14921
872.008	15024
872.138	14990
872.267	14899
872.397	14838
872.526	14864
872.656	14735
872.785	14773
872.915	14937
873.044	14986
873.173	14975
873.303	15093
873.432	14994
873.561	15039
873.69	14986
873.819	14952
873.948	15032
874.077	14960
874.206	14914
874.335	14902
874.464	15097
874.593	15230
874.722	15279
874.851	15329
874.979	15241
875.108	15313
875.237	15173
875.365	15222
875.494	15291
875.623	15340
875.751	15310
875.88	15401
876.008	15428
876.136	15504
876.265	15724
876.393	15720
876.521	15724
876.65	15823
876.778	15827
876.906	15739
877.034	15603
877.162	15667
877.29	15633
877.418	15732
877.546	15747
877.674	15709
877.802	15762
877.93	15789
878.058	15610
878.185	15610
878.313	15698
878.441	15709
878.568	15530
878.696	15675
878.824	15739
878.951	15785
879.079	15884
879.206	15953
879.333	15835
879.461	15823
879.588	15876
879.715	15884
879.842	16006
879.97	15850
880.097	15568
880.224	15534
880.351	15633
880.478	15580
880.605	15542
880.732	15603
880.859	15774
880.986	15603
881.112	15584
881.239	15496
881.366	15332
881.493	15226
881.619	15199
881.746	15241
881.872	15173
881.999	15192
882.125	15146
882.252	15268
882.378	15245
882.505	15412
882.631	15131
882.757	15100
882.883	15028
883.01	15066
883.136	14975
883.262	14887
883.388	14834
883.514	15116
883.64	15039
883.766	14937
883.892	14830
884.018	14845
884.143	15093
884.269	15074
884.395	14819
884.52	14857
884.646	14861
884.772	14678
884.897	14686
885.023	14750
885.148	14807
885.274	14933
885.399	14868
885.524	14785
885.65	14708
885.775	14769
885.9	14693
886.025	14876
886.15	14758
886.275	14716
886.4	14606
886.525	14712
886.65	14655
886.775	14670
886.9	14815
887.025	14975
887.149	14785
887.274	14602
887.399	14606
887.523	14442
887.648	14423
887.773	14484
887.897	14575
888.021	14514
888.146	14560
888.27	14587
888.395	14765
888.519	14526
888.643	14701
888.767	14629
888.891	14511
889.015	14358
889.139	14347
889.263	14412
889.387	14522
889.511	14594
889.635	14495
889.759	14431
889.883	14454
890.006	14526
890.13	14575
890.254	14362
890.377	14427
890.501	14225
890.624	14187
890.748	14263
890.871	14168
890.995	14123
891.118	14119
891.241	14275
891.364	14081
891.488	14214
891.611	14081
891.734	14191
891.857	14130
891.98	14202
892.103	14149
892.226	14233
892.349	14088
892.471	13993
892.594	14046
892.717	14199
892.839	14145
892.962	14153
893.085	14187
893.207	14088
893.33	14043
893.452	14054
893.575	14278
893.697	14187
893.819	14339
893.941	14328
894.064	14183
894.186	14134
894.308	14126
894.43	14339
894.552	14366
894.674	14313
894.796	14153
894.918	14183
895.04	14176
895.161	14275
895.283	14259
895.405	14138
895.526	14256
895.648	14237
895.769	14332
895.891	14294
896.012	14324
896.134	14309
896.255	14366
896.376	14324
896.498	14210
896.619	14385
896.74	14370
896.861	14320
896.982	14720
897.103	14735
897.224	14606
897.345	14537
897.466	14469
897.587	14632
897.708	14701
897.828	14655
897.949	14552
898.07	14495
898.19	14556
898.311	14716
898.431	14598
898.552	14629
898.672	14758
898.792	14754
898.913	14670
899.033	14670
899.153	14617
899.273	14366
899.393	14511
899.513	14526
899.633	14454
899.753	14484
899.873	14343
899.993	14560
900.113	14473
900.232	14461
900.352	14526
900.472	14434
900.591	14271
900.711	14351
900.83	14290
900.95	14408
901.069	14488
901.189	14290
901.308	14138
901.427	14008
901.546	13997
901.665	13989
901.784	14039
901.904	13951
902.023	13803
902.141	13677
902.26	13643
902.379	13761
902.498	13636
902.617	13499
902.735	13578
902.854	13693
902.973	13556
903.091	13217
903.21	13293
903.328	13278
903.446	13320
903.565	13194
903.683	13236
903.801	13061
903.919	13122
904.038	13175
904.156	12981
904.274	13019
904.392	12905
904.51	12962
904.627	12939
904.745	13050
904.863	13126
904.981	12760
905.098	12715
905.216	12646
905.334	12722
905.451	12700
905.569	12635
905.686	12726
905.803	12673
905.921	12513
906.038	12570
906.155	12601
906.272	12426
906.389	12452
906.506	12330
906.623	12296
906.74	12292
906.857	12136
906.974	12159
907.091	12334
907.208	12426
907.324	12334
907.441	12167
907.557	12011
907.674	11961
907.79	11946
907.907	11939
908.023	12064
908.139	12030
908.256	12057
908.372	12038
908.488	11996
908.604	11843
908.72	11748
908.836	11843
908.952	11760
909.068	11855
909.184	11901
909.3	11760
909.415	11775
909.531	11745
909.647	11532
909.762	11566
909.878	11539
909.993	11611
910.108	11528
910.224	11509
910.339	11528
910.454	11395
910.57	11402
910.685	11330
910.8	11703
910.915	11520
911.03	11452
911.145	11280
911.259	11303
911.374	11185
911.489	11136
911.604	11083
911.718	11029
911.833	10900
911.947	10949
912.062	10847
912.176	11022
912.291	11048
912.405	11029
912.519	11181
912.633	11261
912.748	11056
912.862	10987
912.976	10850
913.09	10812
913.204	10839
913.318	10908
913.431	11022
913.545	11029
913.659	11048
913.772	10900
913.886	10828
914	10725
914.113	10889
914.226	10824
914.34	10919
914.453	10729
914.566	10839
914.68	10744
914.793	10683
914.906	10580
915.019	10497
915.132	10402
915.245	10424
915.358	10512
915.47	10504
915.583	10546
915.696	10497
915.809	10611
915.921	10683
916.034	10489
916.146	10481
916.259	10451
916.371	10512
916.483	10546
916.595	10519
916.708	10485
916.82	10440
916.932	10440
917.044	10394
917.156	10363
917.268	10413
917.38	10398
917.491	10287
917.603	10356
917.715	10489
917.826	10481
917.938	10295
918.049	10166
918.161	10318
918.272	10443
918.384	10451
918.495	10409
918.606	10181
918.717	10147
918.828	10265
918.939	10246
919.05	10101
919.161	10204
919.272	10097
919.383	10185
919.494	10318
919.604	10398
919.715	10169
919.826	10135
919.936	10265
920.047	10318
920.157	10211
920.267	10402
920.378	10276
920.488	10234
920.598	10424
920.708	10656
920.818	10440
920.928	10500
921.038	10649
921.148	10554
921.258	10257
921.368	10204
921.477	10086
921.587	10097
921.697	10006
921.806	10150
921.916	9979
922.025	9842
922.134	9785
922.244	9797
922.353	9869
922.462	9709
922.571	9663
922.68	9485
922.789	9428
922.898	9473
923.007	9473
923.116	9564
923.224	9416
923.333	9420
923.442	9450
923.55	9401
923.659	9481
923.767	9374
923.876	9287
923.984	9492
924.092	9313
924.201	9355
924.309	9325
924.417	9367
924.525	9256
924.633	9332
924.741	10257
924.849	9119
924.956	9367
925.064	9135
925.172	9074
925.279	9062
925.387	9123
925.494	9108
925.602	9203
925.709	9237
925.816	9047
925.924	9116
926.031	9214
926.138	9116
926.245	9207
926.352	9116
926.459	9207
926.566	9233
926.673	9077
926.779	8921
926.886	9036
926.993	8914
927.099	8899
927.206	8731
927.312	8785
927.419	8929
927.525	8807
927.631	8925
927.737	8811
927.843	8739
927.95	8674
928.056	8727
928.162	8746
928.267	8864
928.373	9496
928.479	8826
928.585	8644
928.69	8739
928.796	8724
928.901	8686
929.007	8568
929.112	8636
929.218	8613
929.323	8560
929.428	8522
929.533	8746
929.638	8457
929.743	8568
929.848	8655
929.953	8564
930.058	8450
930.163	8324
930.267	8362
930.372	8469
930.477	8347
930.581	8526
930.685	8434
930.79	8305
930.894	8370
930.998	8248
931.103	8469
931.207	8088
931.311	8020
931.415	8012
931.519	7753
931.623	7833
