Data from test_V78500241_804.txt Node
Date: Fri Mar 25 14:39:19 CST 2022
User: usil
Spectrometer: V785-0024
Trigger mode: 0
Integration Time (sec): 4.000000E-1
Scans to average: 1
Nonlinearity correction enabled: false
Boxcar width: 0
Storing dark spectrum: false
XAxis mode: Wavelengths
Number of Pixels in Spectrum: 1024
>>>>>Begin Spectral Data<<<<<
801.071	26385
801.214	26309
801.356	25982
801.499	25856
801.641	25712
801.783	25696
801.926	25609
802.068	25578
802.211	25567
802.353	25483
802.496	25316
802.638	25285
802.78	25232
802.923	25217
803.065	25038
803.208	25084
803.35	25206
803.492	25251
803.635	25381
803.777	25304
803.919	25483
804.061	25704
804.204	25365
804.346	25381
804.488	25381
804.63	25297
804.773	25331
804.915	25540
805.057	25559
805.199	25533
805.341	25696
805.483	25791
805.626	25795
805.768	25696
805.91	25997
806.052	26145
806.194	26043
806.336	26355
806.478	26488
806.62	26522
806.762	26792
806.904	27123
807.046	27648
807.188	27857
807.33	28063
807.472	28584
807.614	29147
807.756	29733
807.898	30616
808.04	31860
808.182	33393
808.324	35554
808.465	37727
808.607	40333
808.749	42642
808.891	43985
809.033	44145
809.174	42795
809.316	40508
809.458	37944
809.6	35162
809.741	33150
809.883	31365
810.025	30228
810.166	29436
810.308	28835
810.45	28242
810.591	27789
810.733	27481
810.875	27112
811.016	26674
811.158	26438
811.299	26606
811.441	26545
811.582	26446
811.724	26180
811.865	26111
812.007	26092
812.148	25799
812.29	25947
812.431	26012
812.573	26206
812.714	26149
812.855	26035
812.997	26278
813.138	26324
813.279	26244
813.421	26187
813.562	26065
813.703	25871
813.845	25571
813.986	25240
814.127	25225
814.268	25050
814.41	25019
814.551	24992
814.692	25023
814.833	24932
814.974	24890
815.115	24920
815.256	24639
815.397	24677
815.539	24669
815.68	24677
815.821	24612
815.962	24589
816.103	24456
816.244	24407
816.385	24235
816.526	24163
816.666	24079
816.807	23897
816.948	23999
817.089	24034
817.23	23885
817.371	23767
817.512	23878
817.653	23824
817.793	23775
817.934	23718
818.075	23832
818.216	23809
818.356	23859
818.497	23752
818.638	23501
818.778	23543
818.919	23391
819.06	23452
819.2	23646
819.341	23737
819.481	23672
819.622	23805
819.762	23931
819.903	23912
820.043	23809
820.184	23710
820.324	23729
820.465	23790
820.605	23764
820.746	23623
820.886	23531
821.026	23634
821.167	23630
821.307	23630
821.447	23474
821.588	23315
821.728	23254
821.868	23048
822.008	22987
822.149	22923
822.289	23025
822.429	22630
822.569	22557
822.709	22641
822.849	22367
822.99	22352
823.13	22333
823.27	22284
823.41	22238
823.55	22082
823.69	22135
823.83	22226
823.97	22150
824.11	22040
824.25	22006
824.389	21895
824.529	22002
824.669	22021
824.809	22040
824.949	22070
825.089	21991
825.228	21922
825.368	21724
825.508	21816
825.648	21838
825.787	21816
825.927	21846
826.067	21709
826.206	21709
826.346	21728
826.485	21743
826.625	21686
826.765	21743
826.904	21823
827.044	21454
827.183	21378
827.323	21386
827.462	21530
827.601	21416
827.741	21287
827.88	21534
828.02	21260
828.159	21325
828.298	21332
828.437	21466
828.577	21207
828.716	21443
828.855	21310
828.994	21176
829.134	21017
829.273	21188
829.412	20944
829.551	20937
829.69	21043
829.829	21249
829.968	21157
830.107	21176
830.246	21017
830.385	20994
830.524	20785
830.663	20769
830.802	20868
830.941	20655
831.08	20701
831.219	20708
831.357	20587
831.496	20857
831.635	20739
831.774	20655
831.913	20682
832.051	20480
832.19	20438
832.329	20556
832.467	20476
832.606	20495
832.744	20450
832.883	20598
833.022	20537
833.16	20727
833.299	20739
833.437	20807
833.576	21020
833.714	21116
833.852	21207
833.991	21260
834.129	21329
834.267	21226
834.406	21367
834.544	21256
834.682	21146
834.821	21108
834.959	21024
835.097	20883
835.235	20838
835.373	20845
835.511	20636
835.65	20400
835.788	20385
835.926	20313
836.064	20206
836.202	20142
836.34	20355
836.478	20336
836.615	20263
836.753	20313
836.891	20324
837.029	20225
837.167	20088
837.305	20187
837.443	20100
837.58	19936
837.718	20161
837.856	20012
837.993	20054
838.131	20046
838.269	19879
838.406	19925
838.544	19883
838.681	19704
838.819	19658
838.956	19575
839.094	19354
839.231	19487
839.369	19525
839.506	19791
839.643	19784
839.781	19365
839.918	19339
840.055	19472
840.193	19400
840.33	19346
840.467	19460
840.604	19476
840.742	19616
840.879	19392
841.016	19350
841.153	19282
841.29	19499
841.427	19396
841.564	19518
841.701	19457
841.838	19499
841.975	19335
842.112	19339
842.249	19335
842.385	19236
842.522	19304
842.659	19343
842.796	19225
842.933	19320
843.069	19354
843.206	19358
843.343	19377
843.479	19441
843.616	19419
843.752	19187
843.889	19152
844.025	19453
844.162	19316
844.298	19597
844.435	19605
844.571	19757
844.708	19833
844.844	20233
844.98	20659
845.117	21043
845.253	21804
845.389	23193
845.525	25902
845.661	30346
845.798	35581
845.934	39762
846.07	41353
846.206	40284
846.342	36787
846.478	31571
846.614	26929
846.75	23843
846.886	21884
847.022	20883
847.158	20107
847.294	19662
847.429	19438
847.565	19289
847.701	19320
847.837	18639
847.972	18544
848.108	18665
848.244	18544
848.379	18410
848.515	18304
848.65	18110
848.786	18277
848.921	18163
849.057	18285
849.192	18277
849.328	18350
849.463	18182
849.598	18087
849.734	18106
849.869	18030
850.004	17824
850.14	17813
850.275	17950
850.41	17840
850.545	17760
850.68	17878
850.815	17824
850.95	17805
851.085	17961
851.22	17935
851.355	17885
851.49	17893
851.625	17802
851.76	17794
851.895	17821
852.03	17680
852.165	17912
852.299	17832
852.434	18030
852.569	17965
852.703	17927
852.838	17992
852.973	18011
853.107	18163
853.242	17946
853.376	17821
853.511	17741
853.645	17893
853.78	17992
853.914	17939
854.048	17954
854.183	18034
854.317	18057
854.451	18216
854.585	18045
854.72	18041
854.854	18022
854.988	17840
855.122	17824
855.256	17729
855.39	17813
855.524	17847
855.658	17878
855.792	17878
855.926	17836
856.06	17775
856.194	17832
856.327	17737
856.461	17627
856.595	17684
856.729	17684
856.862	17809
856.996	17767
857.13	17764
857.263	17847
857.397	17733
857.53	17657
857.664	17863
857.797	17733
857.931	17764
858.064	17695
858.197	17661
858.331	17745
858.464	17532
858.597	17611
858.731	17649
858.864	17577
858.997	17554
859.13	17570
859.263	17646
859.396	17646
859.529	17570
859.662	17463
859.795	17490
859.928	17558
860.061	17695
860.194	17779
860.327	17665
860.46	17543
860.592	17691
860.725	17703
860.858	17718
860.99	17486
861.123	17570
861.256	17524
861.388	17657
861.521	18091
861.653	17452
861.786	17318
861.918	17433
862.05	17433
862.183	17509
862.315	17509
862.447	17459
862.58	17471
862.712	17353
862.844	17277
862.976	17315
863.108	17429
863.24	17741
863.372	17197
863.504	17204
863.636	17265
863.768	17307
863.9	17269
864.032	17208
864.164	17261
864.296	17200
864.428	17269
864.559	17379
864.691	17372
864.823	17349
864.954	17261
865.086	17341
865.217	17265
865.349	17071
865.48	17181
865.612	17261
865.743	17288
865.875	17128
866.006	17117
866.137	17242
866.269	17166
866.4	17181
866.531	17174
866.662	17079
866.793	17128
866.924	17162
867.055	17151
867.186	17121
867.317	17102
867.448	17010
867.579	17102
867.71	17064
867.841	17060
867.972	17166
868.103	17136
868.233	17151
868.364	17204
868.495	17200
868.625	17410
868.756	17570
868.886	17288
869.017	17360
869.147	17532
869.278	17505
869.408	17387
869.539	17459
869.669	17433
869.799	17471
869.929	17497
870.06	17539
870.19	17684
870.32	17756
870.45	17756
870.58	17847
870.71	17950
870.84	17946
870.97	17802
871.1	17942
871.23	17969
871.36	18117
871.489	17942
871.619	18034
871.749	18045
871.879	18178
872.008	18194
872.138	18030
872.267	18163
872.397	18083
872.526	17939
872.656	17946
872.785	18079
872.915	18163
873.044	18292
873.173	18296
873.303	18327
873.432	18380
873.561	18506
873.69	18319
873.819	18251
873.948	18407
874.077	18445
874.206	18369
874.335	18365
874.464	18563
874.593	18616
874.722	18768
874.851	18768
874.979	18951
875.108	18856
875.237	18840
875.365	18776
875.494	18905
875.623	18909
875.751	18958
875.88	18913
876.008	19042
876.136	19304
876.265	19567
876.393	19658
876.521	19635
876.65	19677
876.778	19719
876.906	19677
877.034	19696
877.162	19856
877.29	19849
877.418	19925
877.546	20012
877.674	20081
877.802	20187
877.93	20286
878.058	20374
878.185	20511
878.313	20689
878.441	20979
878.568	21218
878.696	21831
878.824	22417
878.951	23383
879.079	24498
879.206	26202
879.333	27914
879.461	29075
879.588	29969
879.715	29954
879.842	29414
879.97	27785
880.097	26027
880.224	24707
880.351	23729
880.478	23204
880.605	22637
880.732	22272
880.859	22424
880.986	22078
881.112	21926
881.239	21861
881.366	21778
881.493	21606
881.619	21557
881.746	21542
881.872	21500
881.999	21682
882.125	21492
882.252	21797
882.378	21831
882.505	21861
882.631	21751
882.757	21675
882.883	21793
883.01	21667
883.136	21591
883.262	21393
883.388	21435
883.514	21595
883.64	21526
883.766	21542
883.892	21325
884.018	21367
884.143	21610
884.269	21599
884.395	21294
884.52	21154
884.646	21344
884.772	21230
884.897	21135
885.023	21393
885.148	21344
885.274	21340
885.399	21222
885.524	21093
885.65	20918
885.775	20819
885.9	20743
886.025	20693
886.15	20667
886.275	20256
886.4	20202
886.525	20161
886.65	20115
886.775	19944
886.9	20069
887.025	20202
887.149	19868
887.274	19609
887.399	19449
887.523	19362
887.648	19232
887.773	19236
887.897	19236
888.021	19156
888.146	19053
888.27	19259
888.395	19118
888.519	19156
888.643	19057
888.767	19091
888.891	18821
889.015	18776
889.139	18768
889.263	18623
889.387	18753
889.511	18848
889.635	18738
889.759	18608
889.883	18544
890.006	18517
890.13	18658
890.254	18395
890.377	18467
890.501	18194
890.624	18060
890.748	18167
890.871	18068
890.995	17901
891.118	17809
891.241	17908
891.364	17821
891.488	18068
891.611	17805
891.734	17790
891.857	17923
891.98	17794
892.103	17802
892.226	17798
892.349	17687
892.471	17558
892.594	17543
892.717	17676
892.839	17668
892.962	17551
893.085	17551
893.207	17452
893.33	17433
893.452	17417
893.575	17558
893.697	17379
893.819	17608
893.941	17638
894.064	17562
894.186	17421
894.308	17334
894.43	17444
894.552	17524
894.674	17482
894.796	17273
894.918	17307
895.04	17307
895.161	17356
895.283	17345
895.405	17162
895.526	17261
895.648	17208
895.769	17299
895.891	17246
896.012	17239
896.134	17265
896.255	17162
896.376	17105
896.498	17231
896.619	17280
896.74	17284
896.861	17349
896.982	17539
897.103	17714
897.224	17608
897.345	17474
897.466	17315
897.587	17463
897.708	17634
897.828	17425
897.949	17360
898.07	17322
898.19	17322
898.311	17402
898.431	17307
898.552	17459
898.672	17486
898.792	17433
898.913	17360
899.033	17334
899.153	17269
899.273	17132
899.393	17220
899.513	17185
899.633	17159
899.753	17197
899.873	17227
899.993	17166
900.113	17200
900.232	17227
900.352	17208
900.472	17128
900.591	16949
900.711	17022
900.83	17064
900.95	17105
901.069	17075
901.189	16904
901.308	16675
901.427	16664
901.546	16660
901.665	16672
901.784	16622
901.904	16447
902.023	16344
902.141	16150
902.26	16040
902.379	16181
902.498	16196
902.617	16059
902.735	16101
902.854	16147
902.973	16010
903.091	15808
903.21	15781
903.328	15724
903.446	15656
903.565	15667
903.683	15656
903.801	15523
903.919	15557
904.038	15530
904.156	15454
904.274	15382
904.392	15237
904.51	15321
904.627	15325
904.745	15412
904.863	15393
904.981	15066
905.098	15043
905.216	14967
905.334	15036
905.451	15058
905.569	14910
905.686	15009
905.803	14975
905.921	14731
906.038	14960
906.155	14834
906.272	14735
906.389	14579
906.506	14530
906.623	14530
906.74	14461
906.857	14427
906.974	14393
907.091	14594
907.208	14651
907.324	14533
907.441	14385
907.557	14305
907.674	14294
907.79	14149
907.907	14180
908.023	14301
908.139	14237
908.256	14206
908.372	14130
908.488	14008
908.604	13947
908.72	14005
908.836	13928
908.952	13951
909.068	13925
909.184	13955
909.3	14012
909.415	14020
909.531	13986
909.647	13799
909.762	13647
909.878	13605
909.993	13616
910.108	13643
910.224	13620
910.339	13639
910.454	13548
910.57	13476
910.685	13407
910.8	13700
910.915	13704
911.03	13468
911.145	13384
911.259	13301
911.374	13381
911.489	13236
911.604	13236
911.718	13065
911.833	13114
911.947	12947
912.062	12882
912.176	13118
912.291	13057
912.405	13141
912.519	13213
912.633	13263
912.748	13206
912.862	12989
912.976	12966
913.09	12810
913.204	12962
913.318	12935
913.431	13027
913.545	13000
913.659	13057
913.772	12909
913.886	12886
914	12730
914.113	12783
914.226	12970
914.34	12878
914.453	12696
914.566	12833
914.68	12711
914.793	12753
914.906	12585
915.019	12528
915.132	12441
915.245	12448
915.358	12525
915.47	12536
915.583	12498
915.696	12490
915.809	12597
915.921	12711
916.034	12509
916.146	12452
916.259	12410
916.371	12532
916.483	12471
916.595	12391
916.708	12433
916.82	12471
916.932	12433
917.044	12399
917.156	12422
917.268	12232
917.38	12319
917.491	12304
917.603	12281
917.715	12327
917.826	12319
917.938	12197
918.049	12098
918.161	12205
918.272	12323
918.384	12285
918.495	12201
918.606	12045
918.717	12026
918.828	12022
918.939	12053
919.05	12022
919.161	12045
919.272	11851
919.383	11870
919.494	12060
919.604	12251
919.715	12026
919.826	11961
919.936	11984
920.047	12102
920.157	12064
920.267	12167
920.378	12049
920.488	11980
920.598	12171
920.708	12292
920.818	12102
920.928	12235
921.038	12319
921.148	12254
921.258	11946
921.368	11931
921.477	11897
921.587	11851
921.697	11661
921.806	11767
921.916	11737
922.025	11501
922.134	11535
922.244	11467
922.353	11448
922.462	11429
922.571	11337
922.68	11212
922.789	11128
922.898	11181
923.007	11094
923.116	11208
923.224	11178
923.333	11037
923.442	11071
923.55	10999
923.659	11025
923.767	11064
923.876	10995
923.984	11037
924.092	10953
924.201	10968
924.309	10927
924.417	10896
924.525	10911
924.633	10896
924.741	11847
924.849	10759
924.956	10919
925.064	10729
925.172	10637
925.279	10653
925.387	10774
925.494	10694
925.602	10843
925.709	10740
925.816	10687
925.924	10698
926.031	10729
926.138	10752
926.245	10714
926.352	10558
926.459	10736
926.566	10710
926.673	10622
926.779	10561
926.886	10634
926.993	10386
927.099	10314
927.206	10303
927.312	10344
927.419	10424
927.525	10306
927.631	10413
927.737	10356
927.843	10230
927.95	10128
928.056	10230
928.162	10188
928.267	10261
928.373	10824
928.479	10325
928.585	10051
928.69	10227
928.796	10249
928.901	10067
929.007	10044
929.112	10131
929.218	10051
929.323	10013
929.428	9922
929.533	10120
929.638	9895
929.743	9956
929.848	10074
929.953	9983
930.058	9899
930.163	9724
930.267	9759
930.372	9934
930.477	9656
930.581	9926
930.685	9812
930.79	9599
930.894	9690
930.998	9690
931.103	9800
931.207	9439
931.311	9298
931.415	9321
931.519	9131
931.623	9074
