Data from test_V78500241_2071.txt Node
Date: Fri Mar 25 14:48:08 CST 2022
User: usil
Spectrometer: V785-0024
Trigger mode: 0
Integration Time (sec): 4.000000E-1
Scans to average: 1
Nonlinearity correction enabled: false
Boxcar width: 0
Storing dark spectrum: false
XAxis mode: Wavelengths
Number of Pixels in Spectrum: 1024
>>>>>Begin Spectral Data<<<<<
801.071	22143
801.214	21964
801.356	21743
801.499	21618
801.641	21572
801.783	21378
801.926	21507
802.068	21507
802.211	21412
802.353	21245
802.496	21051
802.638	20948
802.78	21005
802.923	20948
803.065	20735
803.208	20781
803.35	20849
803.492	20887
803.635	20861
803.777	20853
803.919	20883
804.061	21127
804.204	20929
804.346	20914
804.488	20686
804.63	20815
804.773	20754
804.915	20815
805.057	20990
805.199	20712
805.341	20902
805.483	20800
805.626	20883
805.768	20705
805.91	20773
806.052	20739
806.194	20826
806.336	20826
806.478	20724
806.62	20746
806.762	20724
806.904	20826
807.046	21268
807.188	21127
807.33	21047
807.472	21093
807.614	20963
807.756	21013
807.898	20887
808.04	20750
808.182	20842
808.324	20933
808.465	20876
808.607	20990
808.749	21055
808.891	21340
809.033	21287
809.174	21237
809.316	21150
809.458	21032
809.6	21123
809.741	21165
809.883	21207
810.025	21237
810.166	21260
810.308	21283
810.45	21272
810.591	21195
810.733	21009
810.875	20929
811.016	20830
811.158	20853
811.299	20963
811.441	20971
811.582	20982
811.724	20948
811.865	20967
812.007	20872
812.148	20804
812.29	21062
812.431	21119
812.573	21173
812.714	21203
812.855	21329
812.997	21568
813.138	21591
813.279	21488
813.421	21416
813.562	21340
813.703	21096
813.845	20914
813.986	20735
814.127	20693
814.268	20507
814.41	20533
814.551	20514
814.692	20625
814.833	20377
814.974	20412
815.115	20415
815.256	20309
815.397	20336
815.539	20221
815.68	20084
815.821	20069
815.962	20221
816.103	20142
816.244	20031
816.385	19989
816.526	19868
816.666	19791
816.807	19662
816.948	19620
817.089	19590
817.23	19685
817.371	19639
817.512	19639
817.653	19480
817.793	19529
817.934	19499
818.075	19575
818.216	19628
818.356	19613
818.497	19388
818.638	19259
818.778	19365
818.919	19217
819.06	19289
819.2	19460
819.341	19411
819.481	19434
819.622	19548
819.762	19727
819.903	19693
820.043	19647
820.184	19563
820.324	19460
820.465	19700
820.605	19563
820.746	19567
820.886	19377
821.026	19502
821.167	19586
821.307	19605
821.447	19499
821.588	19282
821.728	19228
821.868	19084
822.008	19008
822.149	19023
822.289	19080
822.429	18924
822.569	18700
822.709	18642
822.849	18437
822.99	18460
823.13	18388
823.27	18384
823.41	18209
823.55	18273
823.69	18315
823.83	18376
823.97	18300
824.11	18064
824.25	18152
824.389	18106
824.529	18091
824.669	18083
824.809	18235
824.949	18079
825.089	18087
825.228	18114
825.368	17931
825.508	17767
825.648	17939
825.787	17832
825.927	17897
826.067	17855
826.206	17752
826.346	17847
826.485	17954
826.625	17855
826.765	17904
826.904	17843
827.044	17543
827.183	17623
827.323	17452
827.462	17535
827.601	17547
827.741	17490
827.88	17585
828.02	17406
828.159	17520
828.298	17520
828.437	17558
828.577	17425
828.716	17657
828.855	17452
828.994	17284
829.134	17326
829.273	17391
829.412	17231
829.551	17181
829.69	17303
829.829	17330
829.968	17315
830.107	17455
830.246	17360
830.385	17208
830.524	17128
830.663	17185
830.802	16946
830.941	16972
831.08	16820
831.219	16900
831.357	17025
831.496	17197
831.635	16934
831.774	16881
831.913	16687
832.051	16580
832.19	16698
832.329	16687
832.467	16634
832.606	16550
832.744	16607
832.883	16554
833.022	16596
833.16	16527
833.299	16550
833.437	16535
833.576	16706
833.714	16660
833.852	16649
833.991	16759
834.129	16778
834.267	16672
834.406	16611
834.544	16683
834.682	16656
834.821	16584
834.959	16919
835.097	16596
835.235	16660
835.373	16584
835.511	16683
835.65	16481
835.788	16546
835.926	16398
836.064	16341
836.202	16363
836.34	16611
836.478	16687
836.615	16508
836.753	16611
836.891	16694
837.029	16626
837.167	16523
837.305	16489
837.443	16516
837.58	16322
837.718	16561
837.856	16500
837.993	16451
838.131	16363
838.269	16341
838.406	16402
838.544	16333
838.681	16169
838.819	16124
838.956	15941
839.094	15907
839.231	15956
839.369	16071
839.506	16257
839.643	16299
839.781	15937
839.918	15857
840.055	16032
840.193	16040
840.33	15934
840.467	15926
840.604	16067
840.742	16234
840.879	15827
841.016	15842
841.153	15854
841.29	15956
841.427	15994
841.564	15991
841.701	15903
841.838	15945
841.975	15823
842.112	15838
842.249	15785
842.385	15747
842.522	16002
842.659	15854
842.796	15713
842.933	15732
843.069	15747
843.206	15690
843.343	15785
843.479	15808
843.616	15785
843.752	15488
843.889	15644
844.025	15686
844.162	15500
844.298	15682
844.435	15519
844.571	15572
844.708	15648
844.844	15656
844.98	15618
845.117	15644
845.253	15519
845.389	15340
845.525	15397
845.661	15378
845.798	15332
845.934	15374
846.07	15313
846.206	15477
846.342	15568
846.478	15321
846.614	15249
846.75	15020
846.886	15123
847.022	15180
847.158	15241
847.294	14975
847.429	15127
847.565	15131
847.701	15268
847.837	14868
847.972	14864
848.108	14921
848.244	14864
848.379	14773
848.515	14678
848.65	14750
848.786	14724
848.921	14739
849.057	14807
849.192	14785
849.328	14670
849.463	14773
849.598	14670
849.734	14575
849.869	14556
850.004	14480
850.14	14541
850.275	14499
850.41	14423
850.545	14434
850.68	14499
850.815	14492
850.95	14492
851.085	14663
851.22	14530
851.355	14415
851.49	14488
851.625	14412
851.76	14518
851.895	14305
852.03	14370
852.165	14488
852.299	14412
852.434	14530
852.569	14568
852.703	14473
852.838	14598
852.973	14648
853.107	14613
853.242	14522
853.376	14317
853.511	14206
853.645	14237
853.78	14457
853.914	14381
854.048	14305
854.183	14294
854.317	14298
854.451	14530
854.585	14393
854.72	14328
854.854	14423
854.988	14202
855.122	14385
855.256	14199
855.39	14351
855.524	14377
855.658	14320
855.792	14393
855.926	14393
856.06	14415
856.194	14537
856.327	14290
856.461	14237
856.595	14248
856.729	14248
856.862	14488
856.996	14374
857.13	14385
857.263	14419
857.397	14431
857.53	14404
857.664	14336
857.797	14454
857.931	14450
858.064	14450
858.197	14427
858.331	14362
858.464	14202
858.597	14195
858.731	14324
858.864	14336
858.997	14320
859.13	14442
859.263	14328
859.396	14339
859.529	14244
859.662	14278
859.795	14294
859.928	14370
860.061	14415
860.194	14541
860.327	14332
860.46	14396
860.592	14431
860.725	14465
860.858	14423
860.99	14286
861.123	14240
861.256	14221
861.388	14408
861.521	14933
861.653	14164
861.786	14111
861.918	14244
862.05	14168
862.183	14244
862.315	14301
862.447	14404
862.58	14332
862.712	14195
862.844	14096
862.976	14233
863.108	14172
863.24	14488
863.372	14039
863.504	13993
863.636	14062
863.768	14168
863.9	14138
864.032	13989
864.164	14164
864.296	14149
864.428	14237
864.559	14168
864.691	14233
864.823	14195
864.954	14096
865.086	14149
865.217	14191
865.349	14046
865.48	14084
865.612	14202
865.743	14187
865.875	14103
866.006	14073
866.137	14084
866.269	13947
866.4	14073
866.531	13921
866.662	14043
866.793	14134
866.924	14031
867.055	14092
867.186	14096
867.317	13951
867.448	13997
867.579	13970
867.71	14092
867.841	13879
867.972	14103
868.103	14092
868.233	14077
868.364	14012
868.495	14164
868.625	14313
868.756	14514
868.886	14271
869.017	14362
869.147	14492
869.278	14488
869.408	14438
869.539	14252
869.669	14385
869.799	14393
869.929	14442
870.06	14427
870.19	14705
870.32	14613
870.45	14765
870.58	14777
870.71	14785
870.84	14842
870.97	14838
871.1	14682
871.23	15043
871.36	14804
871.489	14823
871.619	14899
871.749	14967
871.879	14979
872.008	15032
872.138	15001
872.267	14967
872.397	14864
872.526	14785
872.656	14689
872.785	14800
872.915	14971
873.044	14994
873.173	14921
873.303	14990
873.432	14921
873.561	15039
873.69	14933
873.819	15074
873.948	15047
874.077	15028
874.206	14944
874.335	15036
874.464	15169
874.593	15268
874.722	15199
874.851	15317
874.979	15249
875.108	15447
875.237	15329
875.365	15279
875.494	15237
875.623	15363
875.751	15298
875.88	15313
876.008	15488
876.136	15488
876.265	15663
876.393	15884
876.521	15793
876.65	15797
876.778	15739
876.906	15679
877.034	15603
877.162	15789
877.29	15641
877.418	15755
877.546	15781
877.674	15838
877.802	15671
877.93	15690
878.058	15694
878.185	15644
878.313	15667
878.441	15686
878.568	15572
878.696	15648
878.824	15728
878.951	15793
879.079	15903
879.206	16021
879.333	15994
879.461	15873
879.588	15892
879.715	15861
879.842	15968
879.97	15679
880.097	15534
880.224	15488
880.351	15625
880.478	15542
880.605	15519
880.732	15561
880.859	15781
880.986	15660
881.112	15572
881.239	15515
881.366	15302
881.493	15260
881.619	15222
881.746	15233
881.872	15188
881.999	15176
882.125	15157
882.252	15218
882.378	15283
882.505	15351
882.631	15245
882.757	14998
882.883	15020
883.01	15013
883.136	14967
883.262	14918
883.388	14971
883.514	14979
883.64	15013
883.766	14979
883.892	14800
884.018	14765
884.143	15051
884.269	15074
884.395	14800
884.52	14777
884.646	14712
884.772	14663
884.897	14590
885.023	14708
885.148	14792
885.274	14937
885.399	14864
885.524	14743
885.65	14754
885.775	14849
885.9	14682
886.025	14895
886.15	14811
886.275	14739
886.4	14583
886.525	14674
886.65	14629
886.775	14636
886.9	14811
887.025	14933
887.149	14811
887.274	14564
887.399	14594
887.523	14613
887.648	14503
887.773	14461
887.897	14594
888.021	14701
888.146	14495
888.27	14655
888.395	14724
888.519	14522
888.643	14583
888.767	14636
888.891	14503
889.015	14423
889.139	14461
889.263	14389
889.387	14476
889.511	14659
889.635	14518
889.759	14339
889.883	14480
890.006	14454
890.13	14476
890.254	14389
890.377	14332
890.501	14218
890.624	14229
890.748	14377
890.871	14138
890.995	14096
891.118	13955
891.241	14073
891.364	14084
891.488	14275
891.611	14183
891.734	14145
891.857	14183
891.98	14123
892.103	14267
892.226	14153
892.349	14027
892.471	13951
892.594	14081
892.717	14164
892.839	14046
892.962	14176
893.085	14309
893.207	14119
893.33	13959
893.452	14088
893.575	14111
893.697	14202
893.819	14248
893.941	14286
894.064	14210
894.186	14164
894.308	14050
894.43	14263
894.552	14336
894.674	14240
894.796	14123
894.918	14176
895.04	14138
895.161	14351
895.283	14244
895.405	14199
895.526	14313
895.648	14256
895.769	14240
895.891	14240
896.012	14415
896.134	14233
896.255	14263
896.376	14206
896.498	14210
896.619	14328
896.74	14298
896.861	14317
896.982	14785
897.103	14682
897.224	14670
897.345	14526
897.466	14454
897.587	14499
897.708	14693
897.828	14670
897.949	14549
898.07	14423
898.19	14476
898.311	14712
898.431	14651
898.552	14636
898.672	14773
898.792	14663
898.913	14754
899.033	14541
899.153	14518
899.273	14374
899.393	14564
899.513	14507
899.633	14526
899.753	14541
899.873	14499
899.993	14511
900.113	14446
900.232	14640
900.352	14590
900.472	14362
900.591	14309
900.711	14381
900.83	14301
900.95	14465
901.069	14446
901.189	14366
901.308	14119
901.427	14035
901.546	14088
901.665	14096
901.784	14008
901.904	13944
902.023	13803
902.141	13677
902.26	13601
902.379	13666
902.498	13616
902.617	13563
902.735	13597
902.854	13559
902.973	13540
903.091	13430
903.21	13438
903.328	13339
903.446	13255
903.565	13213
903.683	13217
903.801	13050
903.919	13175
904.038	13114
904.156	12993
904.274	13095
904.392	12954
904.51	12859
904.627	12996
904.745	13080
904.863	13129
904.981	12772
905.098	12604
905.216	12779
905.334	12726
905.451	12601
905.569	12604
905.686	12764
905.803	12734
905.921	12486
906.038	12585
906.155	12517
906.272	12452
906.389	12456
906.506	12270
906.623	12296
906.74	12194
906.857	12148
906.974	12197
907.091	12292
907.208	12334
907.324	12232
907.441	12197
907.557	12060
907.674	12038
907.79	11984
907.907	11927
908.023	12060
908.139	11939
908.256	11942
908.372	11942
908.488	11916
908.604	11817
908.72	11707
908.836	11783
908.952	11836
909.068	11767
909.184	11904
909.3	11794
909.415	11840
909.531	11817
909.647	11570
909.762	11509
909.878	11532
909.993	11547
910.108	11585
910.224	11524
910.339	11516
910.454	11425
910.57	11425
910.685	11326
910.8	11680
910.915	11596
911.03	11444
911.145	11239
911.259	11159
911.374	11204
911.489	11204
911.604	11105
911.718	11003
911.833	11010
911.947	10900
912.062	10824
912.176	10930
912.291	11064
912.405	11025
912.519	11235
912.633	11265
912.748	11075
912.862	11083
912.976	10869
913.09	10740
913.204	10904
913.318	10862
913.431	10972
913.545	10938
913.659	11003
913.772	10946
913.886	10790
914	10786
914.113	10858
914.226	10885
914.34	10854
914.453	10679
914.566	10858
914.68	10706
914.793	10744
914.906	10493
915.019	10538
915.132	10398
915.245	10493
915.358	10538
915.47	10500
915.583	10615
915.696	10531
915.809	10626
915.921	10649
916.034	10500
916.146	10485
916.259	10485
916.371	10500
916.483	10561
916.595	10375
916.708	10470
916.82	10436
916.932	10417
917.044	10402
917.156	10367
917.268	10341
917.38	10398
917.491	10322
917.603	10455
917.715	10363
917.826	10440
917.938	10276
918.049	10211
918.161	10356
918.272	10462
918.384	10474
918.495	10322
918.606	10257
918.717	10128
918.828	10299
918.939	10207
919.05	10086
919.161	10223
919.272	10013
919.383	10090
919.494	10261
919.604	10413
919.715	10230
919.826	10162
919.936	10173
920.047	10299
920.157	10196
920.267	10474
920.378	10287
920.488	10207
920.598	10363
920.708	10504
920.818	10481
920.928	10440
921.038	10611
921.148	10466
921.258	10291
921.368	10207
921.477	10124
921.587	10135
921.697	9972
921.806	10116
921.916	9979
922.025	9759
922.134	9781
922.244	9778
922.353	9823
922.462	9751
922.571	9610
922.68	9534
922.789	9492
922.898	9496
923.007	9519
923.116	9481
923.224	9439
923.333	9439
923.442	9317
923.55	9393
923.659	9230
923.767	9416
923.876	9348
923.984	9420
924.092	9253
924.201	9370
924.309	9355
924.417	9340
924.525	9317
924.633	9378
924.741	10318
924.849	9142
924.956	9294
925.064	9097
925.172	9074
925.279	9093
925.387	9192
925.494	9108
925.602	9306
925.709	9237
925.816	9070
925.924	9097
926.031	9241
926.138	9146
926.245	9230
926.352	9112
926.459	9176
926.566	9226
926.673	9070
926.779	8990
926.886	9039
926.993	8849
927.099	8861
927.206	8815
927.312	8777
927.419	8971
927.525	8887
927.631	8933
927.737	8727
927.843	8750
927.95	8610
928.056	8739
928.162	8762
928.267	8750
928.373	9435
928.479	8895
928.585	8636
928.69	8708
928.796	8781
928.901	8629
929.007	8545
929.112	8648
929.218	8651
929.323	8640
929.428	8488
929.533	8689
929.638	8507
929.743	8575
929.848	8648
929.953	8484
930.058	8537
930.163	8286
930.267	8355
930.372	8526
930.477	8313
930.581	8549
930.685	8396
930.79	8290
930.894	8332
930.998	8240
931.103	8374
931.207	8123
931.311	8008
931.415	8016
931.519	7811
931.623	7750
