Data from test_V78500241_3623.txt Node
Date: Fri Mar 25 14:58:56 CST 2022
User: usil
Spectrometer: V785-0024
Trigger mode: 0
Integration Time (sec): 4.000000E-1
Scans to average: 1
Nonlinearity correction enabled: false
Boxcar width: 0
Storing dark spectrum: false
XAxis mode: Wavelengths
Number of Pixels in Spectrum: 1024
>>>>>Begin Spectral Data<<<<<
801.071	21838
801.214	21724
801.356	21587
801.499	21435
801.641	21313
801.783	21211
801.926	21256
802.068	21211
802.211	21096
802.353	21043
802.496	20826
802.638	20655
802.78	20830
802.923	20594
803.065	20598
803.208	20530
803.35	20613
803.492	20758
803.635	20743
803.777	20609
803.919	20575
804.061	21017
804.204	20682
804.346	20446
804.488	20526
804.63	20579
804.773	20469
804.915	20488
805.057	20476
805.199	20514
805.341	20587
805.483	20632
805.626	20545
805.768	20442
805.91	20594
806.052	20511
806.194	20336
806.336	20693
806.478	20446
806.62	20454
806.762	20412
806.904	20693
807.046	20975
807.188	20838
807.33	20826
807.472	20800
807.614	20632
807.756	20758
807.898	20526
808.04	20541
808.182	20686
808.324	20697
808.465	20598
808.607	20724
808.749	20781
808.891	20941
809.033	20986
809.174	20941
809.316	20750
809.458	20906
809.6	20819
809.741	20941
809.883	20891
810.025	21013
810.166	20979
810.308	20963
810.45	21036
810.591	20948
810.733	20762
810.875	20686
811.016	20476
811.158	20438
811.299	20705
811.441	20731
811.582	20682
811.724	20701
811.865	20629
812.007	20526
812.148	20503
812.29	20697
812.431	20758
812.573	20891
812.714	21032
812.855	21093
812.997	21108
813.138	21367
813.279	21310
813.421	21161
813.562	21100
813.703	20876
813.845	20682
813.986	20514
814.127	20271
814.268	20092
814.41	20202
814.551	20244
814.692	20103
814.833	20218
814.974	20168
815.115	20050
815.256	20050
815.397	19890
815.539	20054
815.68	19837
815.821	19757
815.962	19818
816.103	19841
816.244	19662
816.385	19613
816.526	19616
816.666	19320
816.807	19278
816.948	19346
817.089	19377
817.23	19255
817.371	19304
817.512	19240
817.653	19365
817.793	19187
817.934	19217
818.075	19198
818.216	19388
818.356	19175
818.497	18993
818.638	18977
818.778	19012
818.919	18985
819.06	19042
819.2	19103
819.341	19194
819.481	19095
819.622	19304
819.762	19468
819.903	19346
820.043	19255
820.184	19335
820.324	19206
820.465	19365
820.605	19324
820.746	19206
820.886	19168
821.026	19179
821.167	19232
821.307	19297
821.447	19141
821.588	19019
821.728	18905
821.868	18871
822.008	18806
822.149	18547
822.289	18574
822.429	18410
822.569	18422
822.709	18418
822.849	18133
822.99	18125
823.13	18098
823.27	18049
823.41	17961
823.55	17988
823.69	17999
823.83	18083
823.97	17965
824.11	17726
824.25	17668
824.389	17729
824.529	17722
824.669	17786
824.809	17767
824.949	17920
825.089	17805
825.228	17710
825.368	17493
825.508	17509
825.648	17589
825.787	17535
825.927	17672
826.067	17455
826.206	17471
826.346	17558
826.485	17596
826.625	17425
826.765	17627
826.904	17543
827.044	17292
827.183	17254
827.323	17216
827.462	17261
827.601	17220
827.741	17041
827.88	17193
828.02	17102
828.159	17170
828.298	17204
828.437	17345
828.577	17170
828.716	17349
828.855	17121
828.994	16961
829.134	17003
829.273	16930
829.412	16873
829.551	16911
829.69	16900
829.829	16942
829.968	17052
830.107	17098
830.246	16961
830.385	17006
830.524	16892
830.663	16820
830.802	16702
830.941	16569
831.08	16546
831.219	16755
831.357	16679
831.496	16755
831.635	16550
831.774	16440
831.913	16512
832.051	16413
832.19	16325
832.329	16348
832.467	16230
832.606	16196
832.744	16181
832.883	16341
833.022	16310
833.16	16287
833.299	16405
833.437	16356
833.576	16295
833.714	16394
833.852	16341
833.991	16436
834.129	16390
834.267	16405
834.406	16230
834.544	16322
834.682	16405
834.821	16402
834.959	16478
835.097	16322
835.235	16394
835.373	16394
835.511	16386
835.65	16257
835.788	16261
835.926	16097
836.064	16150
836.202	16112
836.34	16219
836.478	16348
836.615	16101
836.753	16261
836.891	16405
837.029	16226
837.167	16196
837.305	16120
837.443	16131
837.58	16090
837.718	16249
837.856	16143
837.993	16017
838.131	16109
838.269	16006
838.406	16032
838.544	16071
838.681	15808
838.819	15846
838.956	15686
839.094	15766
839.231	15686
839.369	15869
839.506	16150
839.643	15895
839.781	15720
839.918	15648
840.055	15709
840.193	15690
840.33	15667
840.467	15686
840.604	15720
840.742	15915
840.879	15530
841.016	15568
841.153	15679
841.29	15827
841.427	15743
841.564	15759
841.701	15656
841.838	15713
841.975	15629
842.112	15641
842.249	15553
842.385	15393
842.522	15701
842.659	15564
842.796	15439
842.933	15519
843.069	15443
843.206	15412
843.343	15679
843.479	15542
843.616	15538
843.752	15230
843.889	15207
844.025	15355
844.162	15245
844.298	15317
844.435	15264
844.571	15252
844.708	15329
844.844	15496
844.98	15264
845.117	15458
845.253	15306
845.389	15112
845.525	15230
845.661	15207
845.798	15024
845.934	15218
846.07	15043
846.206	15176
846.342	15268
846.478	15135
846.614	14921
846.75	14796
846.886	14838
847.022	15001
847.158	14906
847.294	14807
847.429	14811
847.565	14781
847.701	15116
847.837	14594
847.972	14522
848.108	14655
848.244	14575
848.379	14499
848.515	14507
848.65	14442
848.786	14465
848.921	14499
849.057	14564
849.192	14484
849.328	14339
849.463	14473
849.598	14393
849.734	14298
849.869	14358
850.004	14298
850.14	14244
850.275	14244
850.41	14092
850.545	14081
850.68	14221
850.815	14153
850.95	14282
851.085	14412
851.22	14317
851.355	14168
851.49	14233
851.625	14081
851.76	14191
851.895	14084
852.03	14096
852.165	14092
852.299	14229
852.434	14343
852.569	14294
852.703	14282
852.838	14187
852.973	14408
853.107	14438
853.242	14187
853.376	13997
853.511	13875
853.645	14065
853.78	14187
853.914	14054
854.048	14069
854.183	14115
854.317	14092
854.451	14210
854.585	14164
854.72	14119
854.854	14168
854.988	14123
855.122	14107
855.256	14008
855.39	14103
855.524	14050
855.658	14111
855.792	14191
855.926	14191
856.06	14202
856.194	14111
856.327	14096
856.461	14046
856.595	14046
856.729	14134
856.862	14126
856.996	14119
857.13	14180
857.263	14168
857.397	14161
857.53	14123
857.664	14259
857.797	14199
857.931	14206
858.064	14157
858.197	14259
858.331	14073
858.464	14100
858.597	13925
858.731	14039
858.864	14096
858.997	14043
859.13	14020
859.263	14107
859.396	14218
859.529	14065
859.662	14054
859.795	14050
859.928	14123
860.061	14229
860.194	14263
860.327	14096
860.46	14199
860.592	14088
860.725	14191
860.858	14221
860.99	14050
861.123	13967
861.256	14069
861.388	14119
861.521	14849
861.653	14065
861.786	13841
861.918	13902
862.05	13963
862.183	14100
862.315	14031
862.447	14111
862.58	14092
862.712	13890
862.844	13852
862.976	13940
863.108	13887
863.24	14187
863.372	13791
863.504	13845
863.636	13807
863.768	13902
863.9	13902
864.032	13765
864.164	13822
864.296	13951
864.428	13967
864.559	13894
864.691	13917
864.823	13982
864.954	13864
865.086	13879
865.217	13841
865.349	13818
865.48	13708
865.612	13852
865.743	14031
865.875	13951
866.006	13875
866.137	13830
866.269	13856
866.4	13959
866.531	13833
866.662	13833
866.793	13734
866.924	13811
867.055	13807
867.186	13822
867.317	13875
867.448	13864
867.579	13803
867.71	13776
867.841	13818
867.972	13784
868.103	13970
868.233	13879
868.364	13879
868.495	13864
868.625	14100
868.756	14252
868.886	14069
869.017	14119
869.147	14202
869.278	14202
869.408	14130
869.539	14092
869.669	14294
869.799	14142
869.929	14187
870.06	14187
870.19	14461
870.32	14415
870.45	14457
870.58	14583
870.71	14739
870.84	14655
870.97	14454
871.1	14522
871.23	14655
871.36	14739
871.489	14583
871.619	14579
871.749	14762
871.879	14819
872.008	14807
872.138	14655
872.267	14735
872.397	14518
872.526	14568
872.656	14537
872.785	14446
872.915	14731
873.044	14785
873.173	14819
873.303	14750
873.432	14872
873.561	14739
873.69	14762
873.819	14807
873.948	14872
874.077	14800
874.206	14762
874.335	14788
874.464	14956
874.593	15009
874.722	15055
874.851	15119
874.979	15142
875.108	15119
875.237	14948
875.365	15047
875.494	15097
875.623	15173
875.751	15104
875.88	15093
876.008	15317
876.136	15272
876.265	15500
876.393	15720
876.521	15561
876.65	15572
876.778	15618
876.906	15454
877.034	15492
877.162	15492
877.29	15378
877.418	15469
877.546	15542
877.674	15564
877.802	15507
877.93	15561
878.058	15530
878.185	15458
878.313	15492
878.441	15466
878.568	15351
878.696	15458
878.824	15545
878.951	15477
879.079	15690
879.206	15865
879.333	15698
879.461	15545
879.588	15534
879.715	15595
879.842	15759
879.97	15477
880.097	15355
880.224	15374
880.351	15439
880.478	15363
880.605	15332
880.732	15401
880.859	15553
880.986	15420
881.112	15344
881.239	15207
881.366	15192
881.493	15100
881.619	15028
881.746	15097
881.872	15032
881.999	14902
882.125	15039
882.252	15104
882.378	14937
882.505	15188
882.631	14998
882.757	14876
882.883	14880
883.01	14819
883.136	14785
883.262	14720
883.388	14625
883.514	14849
883.64	14868
883.766	14777
883.892	14617
884.018	14731
884.143	14838
884.269	14990
884.395	14530
884.52	14499
884.646	14549
884.772	14560
884.897	14484
885.023	14682
885.148	14644
885.274	14648
885.399	14640
885.524	14537
885.65	14537
885.775	14575
885.9	14590
886.025	14716
886.15	14667
886.275	14434
886.4	14431
886.525	14575
886.65	14503
886.775	14454
886.9	14655
887.025	14804
887.149	14533
887.274	14362
887.399	14301
887.523	14294
887.648	14336
887.773	14317
887.897	14511
888.021	14465
888.146	14362
888.27	14469
888.395	14480
888.519	14503
888.643	14366
888.767	14488
888.891	14267
889.015	14218
889.139	14256
889.263	14244
889.387	14377
889.511	14431
889.635	14461
889.759	14256
889.883	14202
890.006	14263
890.13	14374
890.254	14157
890.377	14229
890.501	14065
890.624	14107
890.748	14126
890.871	14016
890.995	14001
891.118	13944
891.241	13928
891.364	13955
891.488	14161
891.611	13944
891.734	13921
891.857	14092
891.98	13959
892.103	14020
892.226	13944
892.349	13921
892.471	13852
892.594	13917
892.717	13963
892.839	13894
892.962	13936
893.085	13974
893.207	14001
893.33	13902
893.452	13894
893.575	13970
893.697	13890
893.819	14107
893.941	14195
894.064	14115
894.186	13944
894.308	13879
894.43	14062
894.552	14237
894.674	14054
894.796	13902
894.918	14054
895.04	14008
895.161	14119
895.283	14031
895.405	13963
895.526	14043
895.648	14058
895.769	14016
895.891	14088
896.012	14164
896.134	14138
896.255	14111
896.376	14149
896.498	14062
896.619	14145
896.74	14073
896.861	14187
896.982	14511
897.103	14533
897.224	14355
897.345	14301
897.466	14343
897.587	14400
897.708	14495
897.828	14434
897.949	14305
898.07	14195
898.19	14419
898.311	14617
898.431	14347
898.552	14434
898.672	14522
898.792	14476
898.913	14495
899.033	14442
899.153	14358
899.273	14278
899.393	14305
899.513	14484
899.633	14415
899.753	14347
899.873	14320
899.993	14374
900.113	14320
900.232	14358
900.352	14396
900.472	14221
900.591	14088
900.711	14191
900.83	14172
900.95	14278
901.069	14290
901.189	14081
901.308	13944
901.427	13868
901.546	13883
901.665	13890
901.784	13879
901.904	13723
902.023	13731
902.141	13476
902.26	13499
902.379	13529
902.498	13480
902.617	13320
902.735	13487
902.854	13430
902.973	13346
903.091	13187
903.21	13088
903.328	13255
903.446	13050
903.565	13038
903.683	13091
903.801	12928
903.919	12996
904.038	12916
904.156	12776
904.274	12901
904.392	12867
904.51	12856
904.627	12840
904.745	12825
904.863	12825
904.981	12662
905.098	12467
905.216	12593
905.334	12509
905.451	12585
905.569	12437
905.686	12646
905.803	12566
905.921	12285
906.038	12471
906.155	12376
906.272	12266
906.389	12281
906.506	12098
906.623	12159
906.74	12114
906.857	11942
906.974	12049
907.091	12136
907.208	12292
907.324	12190
907.441	12087
907.557	11889
907.674	11897
907.79	11752
907.907	11786
908.023	11920
908.139	11897
908.256	11863
908.372	11836
908.488	11764
908.604	11619
908.72	11596
908.836	11707
908.952	11649
909.068	11547
909.184	11710
909.3	11642
909.415	11794
909.531	11649
909.647	11490
909.762	11429
909.878	11364
909.993	11398
910.108	11414
910.224	11376
910.339	11337
910.454	11391
910.57	11151
910.685	11242
910.8	11486
910.915	11391
911.03	11269
911.145	10991
911.259	11174
911.374	11071
911.489	10968
911.604	10968
911.718	10839
911.833	10908
911.947	10771
912.062	10790
912.176	10797
912.291	10911
912.405	10782
912.519	11159
912.633	11086
912.748	11041
912.862	10892
912.976	10839
913.09	10710
913.204	10797
913.318	10774
913.431	10896
913.545	10820
913.659	10843
913.772	10755
913.886	10607
914	10618
914.113	10702
914.226	10660
914.34	10706
914.453	10504
914.566	10630
914.68	10538
914.793	10611
914.906	10447
915.019	10344
915.132	10265
915.245	10306
915.358	10394
915.47	10432
915.583	10348
915.696	10421
915.809	10512
915.921	10478
916.034	10344
916.146	10276
916.259	10360
916.371	10402
916.483	10421
916.595	10272
916.708	10356
916.82	10219
916.932	10299
917.044	10303
917.156	10265
917.268	10135
917.38	10147
917.491	10196
917.603	10196
917.715	10322
917.826	10352
917.938	10150
918.049	10135
918.161	10192
918.272	10367
918.384	10447
918.495	10204
918.606	10116
918.717	10013
918.828	10067
918.939	10048
919.05	10036
919.161	10112
919.272	9892
919.383	9991
919.494	10101
919.604	10291
919.715	10158
919.826	10040
919.936	10044
920.047	10169
920.157	10166
920.267	10268
920.378	10059
920.488	10120
920.598	10287
920.708	10405
920.818	10341
920.928	10280
921.038	10508
921.148	10489
921.258	10166
921.368	10082
921.477	9991
921.587	10040
921.697	9804
921.806	10025
921.916	9816
922.025	9644
922.134	9728
922.244	9606
922.353	9656
922.462	9587
922.571	9458
922.68	9435
922.789	9325
922.898	9374
923.007	9321
923.116	9389
923.224	9321
923.333	9378
923.442	9275
923.55	9203
923.659	9340
923.767	9264
923.876	9230
923.984	9321
924.092	9226
924.201	9256
924.309	9245
924.417	9157
924.525	9184
924.633	9192
924.741	9972
924.849	8971
924.956	9150
925.064	8979
925.172	8868
925.279	8990
925.387	9108
925.494	9036
925.602	9165
925.709	9055
925.816	9017
925.924	8990
926.031	9074
926.138	8986
926.245	9108
926.352	8925
926.459	9097
926.566	9116
926.673	8990
926.779	8857
926.886	8880
926.993	8769
927.099	8781
927.206	8712
927.312	8682
927.419	8838
927.525	8777
927.631	8845
927.737	8712
927.843	8594
927.95	8526
928.056	8708
928.162	8762
928.267	8743
928.373	9131
928.479	8758
928.585	8541
928.69	8640
928.796	8625
928.901	8507
929.007	8351
929.112	8587
929.218	8560
929.323	8434
929.428	8503
929.533	8625
929.638	8438
929.743	8438
929.848	8545
929.953	8457
930.058	8446
930.163	8275
930.267	8214
930.372	8427
930.477	8301
930.581	8423
930.685	8301
930.79	8183
930.894	8218
930.998	8202
931.103	8286
931.207	7978
931.311	7868
931.415	7906
931.519	7693
931.623	7647
