Data from test_V78500241_525.txt Node
Date: Fri Mar 25 14:37:22 CST 2022
User: usil
Spectrometer: V785-0024
Trigger mode: 0
Integration Time (sec): 4.000000E-1
Scans to average: 1
Nonlinearity correction enabled: false
Boxcar width: 0
Storing dark spectrum: false
XAxis mode: Wavelengths
Number of Pixels in Spectrum: 1024
>>>>>Begin Spectral Data<<<<<
801.071	27089
801.214	26944
801.356	26842
801.499	26659
801.641	26583
801.783	26564
801.926	26632
802.068	26442
802.211	26240
802.353	26362
802.496	26149
802.638	26115
802.78	26031
802.923	25913
803.065	26001
803.208	25902
803.35	26031
803.492	26050
803.635	25970
803.777	25963
803.919	26176
804.061	26290
804.204	26050
804.346	26005
804.488	25974
804.63	26001
804.773	25940
804.915	26077
805.057	26149
805.199	26016
805.341	26073
805.483	26191
805.626	26168
805.768	26202
805.91	26183
806.052	26271
806.194	26195
806.336	26427
806.478	26385
806.62	26256
806.762	26533
806.904	26773
807.046	26956
807.188	27017
807.33	27055
807.472	27321
807.614	27378
807.756	27462
807.898	27739
808.04	27895
808.182	28428
808.324	29029
808.465	29665
808.607	30566
808.749	31263
808.891	31647
809.033	31830
809.174	31263
809.316	30730
809.458	29745
809.6	29060
809.741	28409
809.883	28082
810.025	27907
810.166	27618
810.308	27439
810.45	27287
810.591	27157
810.733	26952
810.875	26876
811.016	26594
811.158	26659
811.299	26678
811.441	26655
811.582	26762
811.724	26362
811.865	26511
812.007	26465
812.148	26415
812.29	26404
812.431	26667
812.573	26602
812.714	26834
812.855	26861
812.997	26940
813.138	27165
813.279	26975
813.421	26823
813.562	26781
813.703	26777
813.845	26484
813.986	26218
814.127	25959
814.268	25849
814.41	25811
814.551	25841
814.692	26016
814.833	25784
814.974	25685
815.115	25818
815.256	25738
815.397	25700
815.539	25708
815.68	25537
815.821	25476
815.962	25582
816.103	25464
816.244	25358
816.385	25331
816.526	25293
816.666	25061
816.807	24848
816.948	24958
817.089	25095
817.23	25046
817.371	24916
817.512	24905
817.653	24867
817.793	24810
817.934	24977
818.075	24962
818.216	24939
818.356	24943
818.497	24715
818.638	24494
818.778	24604
818.919	24547
819.06	24639
819.2	24677
819.341	25031
819.481	24753
819.622	24875
819.762	25118
819.903	25000
820.043	24989
820.184	24981
820.324	24802
820.465	24894
820.605	24989
820.746	24806
820.886	24741
821.026	24764
821.167	24768
821.307	24802
821.447	24654
821.588	24673
821.728	24353
821.868	24376
822.008	24098
822.149	24148
822.289	24064
822.429	24007
822.569	23859
822.709	23802
822.849	23627
822.99	23630
823.13	23592
823.27	23589
823.41	23573
823.55	23356
823.69	23512
823.83	23341
823.97	23410
824.11	23151
824.25	23033
824.389	23140
824.529	23402
824.669	23178
824.809	23250
824.949	23220
825.089	23258
825.228	22987
825.368	22995
825.508	23060
825.648	23090
825.787	22942
825.927	23041
826.067	22835
826.206	22843
826.346	23022
826.485	22995
826.625	23022
826.765	23006
826.904	23003
827.044	22729
827.183	22641
827.323	22748
827.462	22763
827.601	22569
827.741	22569
827.88	22599
828.02	22462
828.159	22573
828.298	22573
828.437	22694
828.577	22523
828.716	22660
828.855	22500
828.994	22234
829.134	22367
829.273	22337
829.412	22367
829.551	22249
829.69	22246
829.829	22318
829.968	22409
830.107	22360
830.246	22154
830.385	22207
830.524	22086
830.663	22143
830.802	21991
830.941	21994
831.08	21823
831.219	21941
831.357	21861
831.496	22074
831.635	21823
831.774	21865
831.913	21717
832.051	21709
832.19	21679
832.329	21679
832.467	21644
832.606	21580
832.744	21538
832.883	21644
833.022	21675
833.16	21667
833.299	21660
833.437	21663
833.576	21637
833.714	21724
833.852	21679
833.991	21991
834.129	21827
834.267	21857
834.406	21751
834.544	21823
834.682	21850
834.821	21629
834.959	21755
835.097	21526
835.235	21774
835.373	21694
835.511	21530
835.65	21542
835.788	21466
835.926	21218
836.064	21245
836.202	21279
836.34	21439
836.478	21416
836.615	21207
836.753	21279
836.891	21481
837.029	21435
837.167	21355
837.305	21256
837.443	21283
837.58	21298
837.718	21336
837.856	21306
837.993	21287
838.131	21252
838.269	21188
838.406	21188
838.544	21123
838.681	20765
838.819	20849
838.956	20701
839.094	20762
839.231	20640
839.369	20868
839.506	21047
839.643	20891
839.781	20686
839.918	20621
840.055	20621
840.193	20560
840.33	20541
840.467	20640
840.604	20670
840.742	20792
840.879	20396
841.016	20560
841.153	20537
841.29	20549
841.427	20575
841.564	20488
841.701	20552
841.838	20564
841.975	20549
842.112	20545
842.249	20404
842.385	20267
842.522	20526
842.659	20347
842.796	20328
842.933	20286
843.069	20244
843.206	20275
843.343	20229
843.479	20336
843.616	20336
843.752	20134
843.889	20263
844.025	20248
844.162	20126
844.298	20305
844.435	20199
844.571	20183
844.708	20309
844.844	20560
844.98	20617
845.117	20537
845.253	20689
845.389	21070
845.525	21747
845.661	22915
845.798	24403
845.934	25670
846.07	26157
846.206	25978
846.342	25095
846.478	23570
846.614	21998
846.75	21024
846.886	20549
847.022	20256
847.158	20054
847.294	19856
847.429	19830
847.565	19651
847.701	19913
847.837	19438
847.972	19358
848.108	19441
848.244	19377
848.379	19206
848.515	19099
848.65	19099
848.786	19225
848.921	19095
849.057	19164
849.192	19084
849.328	19129
849.463	19183
849.598	19103
849.734	19114
849.869	18973
850.004	18897
850.14	18867
850.275	18886
850.41	18722
850.545	18760
850.68	18768
850.815	18764
850.95	18837
851.085	19004
851.22	18897
851.355	18878
851.49	18745
851.625	18795
851.76	18726
851.895	18715
852.03	18711
852.165	18779
852.299	18886
852.434	18966
852.569	18863
852.703	18916
852.838	18871
852.973	18817
853.107	18954
853.242	18863
853.376	18741
853.511	18608
853.645	18570
853.78	18806
853.914	18623
854.048	18787
854.183	18768
854.317	18753
854.451	18829
854.585	18722
854.72	18681
854.854	18738
854.988	18593
855.122	18726
855.256	18589
855.39	18783
855.524	18749
855.658	18722
855.792	18696
855.926	18745
856.06	18684
856.194	18642
856.327	18639
856.461	18540
856.595	18635
856.729	18585
856.862	18764
856.996	18650
857.13	18760
857.263	18726
857.397	18753
857.53	18597
857.664	18684
857.797	18757
857.931	18684
858.064	18684
858.197	18768
858.331	18681
858.464	18589
858.597	18506
858.731	18570
858.864	18612
858.997	18635
859.13	18582
859.263	18669
859.396	18616
859.529	18544
859.662	18559
859.795	18494
859.928	18616
860.061	18646
860.194	18711
860.327	18570
860.46	18578
860.592	18730
860.725	18700
860.858	18776
860.99	18536
861.123	18601
861.256	18506
861.388	18528
861.521	19331
861.653	18483
861.786	18304
861.918	18464
862.05	18506
862.183	18620
862.315	18627
862.447	18547
862.58	18525
862.712	18315
862.844	18357
862.976	18448
863.108	18395
863.24	18673
863.372	18323
863.504	18262
863.636	18319
863.768	18258
863.9	18281
864.032	18163
864.164	18190
864.296	18308
864.428	18350
864.559	18380
864.691	18346
864.823	18232
864.954	18251
865.086	18258
865.217	18144
865.349	18091
865.48	18152
865.612	18148
865.743	18224
865.875	18205
866.006	18186
866.137	18079
866.269	18292
866.4	18110
866.531	18098
866.662	18171
866.793	18114
866.924	18178
867.055	18083
867.186	18155
867.317	18091
867.448	18064
867.579	18117
867.71	18152
867.841	18007
867.972	18140
868.103	18125
868.233	18228
868.364	18220
868.495	18106
868.625	18399
868.756	18445
868.886	18391
869.017	18338
869.147	18536
869.278	18528
869.408	18346
869.539	18452
869.669	18490
869.799	18441
869.929	18502
870.06	18483
870.19	18669
870.32	18593
870.45	18623
870.58	18791
870.71	18973
870.84	18981
870.97	18745
871.1	18779
871.23	18928
871.36	19099
871.489	18844
871.619	18985
871.749	18932
871.879	18989
872.008	19187
872.138	18916
872.267	18981
872.397	18772
872.526	18795
872.656	18859
872.785	18859
872.915	19042
873.044	19076
873.173	19061
873.303	19004
873.432	19095
873.561	19099
873.69	19259
873.819	19194
873.948	19278
874.077	19217
874.206	19050
874.335	19088
874.464	19225
874.593	19419
874.722	19396
874.851	19354
874.979	19388
875.108	19487
875.237	19396
875.365	19259
875.494	19403
875.623	19491
875.751	19438
875.88	19582
876.008	19643
876.136	19677
876.265	19871
876.393	19974
876.521	20027
876.65	20111
876.778	19944
876.906	19967
877.034	19978
877.162	20168
877.29	19871
877.418	20008
877.546	20035
877.674	20016
877.802	19974
877.93	19936
878.058	20164
878.185	20050
878.313	20290
878.441	20282
878.568	20415
878.696	20385
878.824	20678
878.951	20994
879.079	21443
879.206	21956
879.333	22375
879.461	22622
879.588	23064
879.715	22904
879.842	22927
879.97	22295
880.097	21629
880.224	21203
880.351	20998
880.478	20762
880.605	20720
880.732	20492
880.859	20716
880.986	20533
881.112	20507
881.239	20438
881.366	20298
881.493	20065
881.619	20084
881.746	20088
881.872	20084
881.999	20065
882.125	19993
882.252	20195
882.378	20107
882.505	20191
882.631	20092
882.757	19936
882.883	20073
883.01	19940
883.136	19757
883.262	19795
883.388	19712
883.514	19849
883.64	19868
883.766	19788
883.892	19537
884.018	19719
884.143	19871
884.269	19917
884.395	19655
884.52	19559
884.646	19609
884.772	19616
884.897	19499
885.023	19685
885.148	19556
885.274	19662
885.399	19567
885.524	19445
885.65	19510
885.775	19453
885.9	19388
886.025	19464
886.15	19381
886.275	19183
886.4	19247
886.525	19259
886.65	19247
886.775	19080
886.9	19324
887.025	19312
887.149	19069
887.274	18897
887.399	18844
887.523	18897
887.648	18825
887.773	18696
887.897	18840
888.021	18852
888.146	18753
888.27	18852
888.395	18928
888.519	18753
888.643	18814
888.767	18757
888.891	18593
889.015	18570
889.139	18635
889.263	18452
889.387	18654
889.511	18688
889.635	18528
889.759	18441
889.883	18517
890.006	18490
890.13	18593
890.254	18350
890.377	18464
890.501	18155
890.624	18224
890.748	18152
890.871	18178
890.995	18144
891.118	18060
891.241	18038
891.364	18011
891.488	18167
891.611	18007
891.734	18049
891.857	18015
891.98	18041
892.103	18026
892.226	18076
892.349	17935
892.471	17889
892.594	17965
892.717	17901
892.839	17954
892.962	17980
893.085	18026
893.207	17832
893.33	17805
893.452	17764
893.575	17897
893.697	17824
893.819	17958
893.941	18076
894.064	18030
894.186	17847
894.308	17828
894.43	17783
894.552	17999
894.674	17866
894.796	17786
894.918	17836
895.04	17798
895.161	17874
895.283	17866
895.405	17828
895.526	17828
895.648	17805
895.769	17775
895.891	17843
896.012	17969
896.134	17866
896.255	17946
896.376	17805
896.498	17847
896.619	17832
896.74	17843
896.861	17836
896.982	18258
897.103	18308
897.224	18140
897.345	18167
897.466	18095
897.587	18148
897.708	18148
897.828	18171
897.949	17961
898.07	17931
898.19	17999
898.311	18121
898.431	18022
898.552	18148
898.672	18072
898.792	18148
898.913	18197
899.033	18022
899.153	17878
899.273	17767
899.393	17874
899.513	17889
899.633	17901
899.753	17912
899.873	17863
899.993	17984
900.113	17798
900.232	17847
900.352	17836
900.472	17642
900.591	17573
900.711	17699
900.83	17619
900.95	17737
901.069	17703
901.189	17566
901.308	17349
901.427	17406
901.546	17395
901.665	17330
901.784	17296
901.904	17178
902.023	17033
902.141	16976
902.26	16919
902.379	16953
902.498	16717
902.617	16767
902.735	16843
902.854	16778
902.973	16744
903.091	16542
903.21	16455
903.328	16508
903.446	16394
903.565	16318
903.683	16310
903.801	16135
903.919	16257
904.038	16284
904.156	16044
904.274	16120
904.392	16036
904.51	15994
904.627	16147
904.745	16112
904.863	16154
904.981	15884
905.098	15743
905.216	15743
905.334	15797
905.451	15743
905.569	15701
905.686	15720
905.803	15743
905.921	15496
906.038	15633
906.155	15618
906.272	15351
906.389	15477
906.506	15256
906.623	15329
906.74	15272
906.857	15176
906.974	15138
907.091	15287
907.208	15359
907.324	15264
907.441	15123
907.557	14937
907.674	14872
907.79	14842
907.907	14918
908.023	15013
908.139	14929
908.256	14906
908.372	14830
908.488	14807
908.604	14720
908.72	14663
908.836	14792
908.952	14636
909.068	14705
909.184	14830
909.3	14571
909.415	14659
909.531	14659
909.647	14351
909.762	14332
909.878	14324
909.993	14423
910.108	14301
910.224	14339
910.339	14332
910.454	14221
910.57	14248
910.685	14164
910.8	14480
910.915	14263
911.03	14100
911.145	14168
911.259	13947
911.374	14092
911.489	13890
911.604	13833
911.718	13708
911.833	13632
911.947	13609
912.062	13609
912.176	13772
912.291	13742
912.405	13597
912.519	13890
912.633	13947
912.748	13879
912.862	13685
912.976	13620
913.09	13476
913.204	13556
913.318	13571
913.431	13597
913.545	13597
913.659	13708
913.772	13506
913.886	13301
914	13434
914.113	13487
914.226	13533
914.34	13445
914.453	13350
914.566	13472
914.68	13293
914.793	13407
914.906	13198
915.019	13114
915.132	13031
915.245	13217
915.358	13095
915.47	13088
915.583	13057
915.696	13179
915.809	13255
915.921	13304
916.034	12970
916.146	12951
916.259	13061
916.371	13152
916.483	13031
916.595	12993
916.708	13000
916.82	13031
916.932	12928
917.044	13000
917.156	12924
917.268	12821
917.38	12852
917.491	12905
917.603	12825
917.715	12935
917.826	12935
917.938	12783
918.049	12547
918.161	12711
918.272	12989
918.384	12871
918.495	12886
918.606	12722
918.717	12574
918.828	12654
918.939	12601
919.05	12536
919.161	12677
919.272	12399
919.383	12513
919.494	12604
919.604	12722
919.715	12662
919.826	12506
919.936	12563
920.047	12650
920.157	12658
920.267	12696
920.378	12665
920.488	12604
920.598	12779
920.708	12894
920.818	12745
920.928	12776
921.038	12924
921.148	12844
921.258	12498
921.368	12479
921.477	12407
921.587	12384
921.697	12281
921.806	12460
921.916	12289
922.025	12133
922.134	12049
922.244	11996
922.353	12026
922.462	11946
922.571	11878
922.68	11794
922.789	11676
922.898	11745
923.007	11741
923.116	11752
923.224	11646
923.333	11741
923.442	11596
923.55	11486
923.659	11596
923.767	11707
923.876	11516
923.984	11596
924.092	11463
924.201	11558
924.309	11501
924.417	11573
924.525	11471
924.633	11467
924.741	12155
924.849	11220
924.956	11330
925.064	11296
925.172	11197
925.279	11170
925.387	11258
925.494	11307
925.602	11330
925.709	11242
925.816	11140
925.924	11242
926.031	11330
926.138	11132
926.245	11303
926.352	11094
926.459	11201
926.566	11330
926.673	11227
926.779	11033
926.886	11086
926.993	10877
927.099	10972
927.206	10801
927.312	10877
927.419	10862
927.525	10858
927.631	10919
927.737	10782
927.843	10816
927.95	10637
928.056	10752
928.162	10786
928.267	10714
928.373	11242
928.479	10801
928.585	10577
928.69	10649
928.796	10694
928.901	10599
929.007	10424
929.112	10607
929.218	10565
929.323	10558
929.428	10451
929.533	10637
929.638	10337
929.743	10402
929.848	10459
929.953	10440
930.058	10379
930.163	10272
930.267	10173
930.372	10299
930.477	10128
930.581	10402
930.685	10287
930.79	10097
930.894	10143
930.998	10143
931.103	10230
931.207	9869
931.311	9835
931.415	9774
931.519	9542
931.623	9466
