Data from test_V78500241_3169.txt Node
Date: Fri Mar 25 14:55:46 CST 2022
User: usil
Spectrometer: V785-0024
Trigger mode: 0
Integration Time (sec): 4.000000E-1
Scans to average: 1
Nonlinearity correction enabled: false
Boxcar width: 0
Storing dark spectrum: false
XAxis mode: Wavelengths
Number of Pixels in Spectrum: 1024
>>>>>Begin Spectral Data<<<<<
801.071	21991
801.214	21994
801.356	21759
801.499	21644
801.641	21595
801.783	21435
801.926	21469
802.068	21466
802.211	21264
802.353	21173
802.496	20914
802.638	20929
802.78	20933
802.923	20887
803.065	20674
803.208	20701
803.35	20758
803.492	20925
803.635	20899
803.777	20697
803.919	20758
804.061	21135
804.204	20758
804.346	20651
804.488	20674
804.63	20724
804.773	20545
804.915	20758
805.057	20716
805.199	20629
805.341	20743
805.483	20758
805.626	20762
805.768	20545
805.91	20731
806.052	20731
806.194	20625
806.336	20868
806.478	20594
806.62	20689
806.762	20743
806.904	20849
807.046	21093
807.188	20895
807.33	20963
807.472	21096
807.614	20853
807.756	20944
807.898	20743
808.04	20667
808.182	20727
808.324	20754
808.465	20735
808.607	20853
808.749	20994
808.891	21119
809.033	21176
809.174	21131
809.316	20971
809.458	21043
809.6	20925
809.741	21127
809.883	21062
810.025	21214
810.166	21108
810.308	21112
810.45	21089
810.591	21020
810.733	20849
810.875	20826
811.016	20705
811.158	20705
811.299	20842
811.441	20952
811.582	20986
811.724	20910
811.865	20788
812.007	20712
812.148	20712
812.29	20880
812.431	20982
812.573	20994
812.714	21154
812.855	21241
812.997	21374
813.138	21583
813.279	21382
813.421	21321
813.562	21176
813.703	21055
813.845	20918
813.986	20640
814.127	20522
814.268	20351
814.41	20434
814.551	20313
814.692	20389
814.833	20313
814.974	20366
815.115	20438
815.256	20248
815.397	20210
815.539	20172
815.68	20115
815.821	19944
815.962	20088
816.103	20046
816.244	19913
816.385	19898
816.526	19822
816.666	19666
816.807	19537
816.948	19605
817.089	19582
817.23	19590
817.371	19453
817.512	19491
817.653	19384
817.793	19331
817.934	19510
818.075	19575
818.216	19480
818.356	19426
818.497	19304
818.638	19095
818.778	19206
818.919	19285
819.06	19103
819.2	19320
819.341	19339
819.481	19449
819.622	19514
819.762	19651
819.903	19632
820.043	19578
820.184	19365
820.324	19548
820.465	19559
820.605	19472
820.746	19403
820.886	19285
821.026	19400
821.167	19263
821.307	19426
821.447	19339
821.588	19232
821.728	19145
821.868	18932
822.008	18848
822.149	18829
822.289	18814
822.429	18608
822.569	18460
822.709	18631
822.849	18319
822.99	18334
823.13	18407
823.27	18330
823.41	18121
823.55	18133
823.69	18159
823.83	18254
823.97	17999
824.11	18007
824.25	17897
824.389	18026
824.529	17996
824.669	17942
824.809	17999
824.949	17977
825.089	17988
825.228	17923
825.368	17630
825.508	17657
825.648	17771
825.787	17638
825.927	17802
826.067	17589
826.206	17707
826.346	17775
826.485	17748
826.625	17729
826.765	17771
826.904	17714
827.044	17535
827.183	17455
827.323	17254
827.462	17398
827.601	17288
827.741	17292
827.88	17341
828.02	17246
828.159	17364
828.298	17410
828.437	17444
828.577	17326
828.716	17436
828.855	17296
828.994	17181
829.134	17166
829.273	17109
829.412	17140
829.551	17033
829.69	17006
829.829	17155
829.968	17197
830.107	17140
830.246	17170
830.385	17185
830.524	17071
830.663	16965
830.802	16790
830.941	16771
831.08	16828
831.219	16801
831.357	16797
831.496	16991
831.635	16752
831.774	16649
831.913	16649
832.051	16523
832.19	16504
832.329	16504
832.467	16379
832.606	16398
832.744	16409
832.883	16409
833.022	16485
833.16	16367
833.299	16394
833.437	16367
833.576	16462
833.714	16580
833.852	16478
833.991	16558
834.129	16592
834.267	16519
834.406	16462
834.544	16516
834.682	16542
834.821	16481
834.959	16592
835.097	16413
835.235	16558
835.373	16497
835.511	16451
835.65	16356
835.788	16398
835.926	16188
836.064	16268
836.202	16363
836.34	16519
836.478	16519
836.615	16360
836.753	16459
836.891	16508
837.029	16424
837.167	16371
837.305	16272
837.443	16291
837.58	16325
837.718	16356
837.856	16226
837.993	16131
838.131	16398
838.269	16272
838.406	16124
838.544	16261
838.681	15915
838.819	15941
838.956	15751
839.094	15793
839.231	15823
839.369	15918
839.506	16173
839.643	16006
839.781	15774
839.918	15774
840.055	15747
840.193	15842
840.33	15789
840.467	15854
840.604	15899
840.742	16010
840.879	15686
841.016	15622
841.153	15736
841.29	15892
841.427	15808
841.564	15884
841.701	15831
841.838	15854
841.975	15610
842.112	15656
842.249	15591
842.385	15523
842.522	15732
842.659	15629
842.796	15595
842.933	15663
843.069	15561
843.206	15519
843.343	15675
843.479	15720
843.616	15610
843.752	15340
843.889	15428
844.025	15629
844.162	15382
844.298	15447
844.435	15340
844.571	15412
844.708	15439
844.844	15526
844.98	15534
845.117	15538
845.253	15348
845.389	15336
845.525	15264
845.661	15211
845.798	15104
845.934	15138
846.07	15138
846.206	15218
846.342	15348
846.478	15203
846.614	14986
846.75	14876
846.886	14933
847.022	15062
847.158	14891
847.294	14971
847.429	15036
847.565	14864
847.701	15176
847.837	14667
847.972	14701
848.108	14754
848.244	14739
848.379	14590
848.515	14503
848.65	14488
848.786	14594
848.921	14514
849.057	14511
849.192	14594
849.328	14488
849.463	14579
849.598	14560
849.734	14385
849.869	14412
850.004	14320
850.14	14347
850.275	14298
850.41	14309
850.545	14328
850.68	14263
850.815	14351
850.95	14305
851.085	14385
851.22	14427
851.355	14252
851.49	14351
851.625	14218
851.76	14332
851.895	14252
852.03	14199
852.165	14210
852.299	14259
852.434	14328
852.569	14351
852.703	14294
852.838	14351
852.973	14552
853.107	14358
853.242	14271
853.376	14206
853.511	14016
853.645	14138
853.78	14263
853.914	14206
854.048	14069
854.183	14176
854.317	14142
854.451	14358
854.585	14180
854.72	14077
854.854	14229
854.988	14153
855.122	14149
855.256	14096
855.39	14153
855.524	14206
855.658	14218
855.792	14115
855.926	14176
856.06	14275
856.194	14370
856.327	14123
856.461	14119
856.595	14115
856.729	14145
856.862	14332
856.996	14195
857.13	14199
857.263	14282
857.397	14244
857.53	14157
857.664	14199
857.797	14286
857.931	14305
858.064	14381
858.197	14301
858.331	14073
858.464	14191
858.597	14115
858.731	14164
858.864	14115
858.997	14183
859.13	14142
859.263	14164
859.396	14278
859.529	14123
859.662	14111
859.795	14130
859.928	14138
860.061	14385
860.194	14309
860.327	14221
860.46	14206
860.592	14309
860.725	14324
860.858	14362
860.99	14218
861.123	14130
861.256	14119
861.388	14168
861.521	14899
861.653	14073
861.786	14020
861.918	14088
862.05	14103
862.183	14126
862.315	14199
862.447	14275
862.58	14031
862.712	13837
862.844	13955
862.976	13970
863.108	13967
863.24	14229
863.372	13894
863.504	13947
863.636	13936
863.768	13974
863.9	13970
864.032	13849
864.164	13898
864.296	14058
864.428	14103
864.559	14073
864.691	13989
864.823	13986
864.954	14016
865.086	13974
865.217	13970
865.349	13894
865.48	13978
865.612	13978
865.743	14130
865.875	13963
866.006	13913
866.137	13936
866.269	13993
866.4	13868
866.531	13883
866.662	13791
866.793	13894
866.924	13887
867.055	13894
867.186	13967
867.317	13913
867.448	13811
867.579	13890
867.71	13890
867.841	13894
867.972	13917
868.103	14005
868.233	13940
868.364	13974
868.495	14065
868.625	14206
868.756	14248
868.886	14081
869.017	14176
869.147	14267
869.278	14332
869.408	14210
869.539	14256
869.669	14355
869.799	14218
869.929	14347
870.06	14309
870.19	14545
870.32	14522
870.45	14610
870.58	14514
870.71	14682
870.84	14724
870.97	14545
871.1	14545
871.23	14823
871.36	14777
871.489	14781
871.619	14765
871.749	14868
871.879	14815
872.008	14929
872.138	14769
872.267	14716
872.397	14610
872.526	14686
872.656	14507
872.785	14648
872.915	14864
873.044	14891
873.173	14868
873.303	14944
873.432	14963
873.561	14937
873.69	15013
873.819	14891
873.948	14937
874.077	14853
874.206	14872
874.335	14910
874.464	15039
874.593	15233
874.722	15066
874.851	15207
874.979	15214
875.108	15173
875.237	15051
875.365	15017
875.494	15127
875.623	15211
875.751	15169
875.88	15283
876.008	15302
876.136	15313
876.265	15599
876.393	15713
876.521	15584
876.65	15682
876.778	15610
876.906	15538
877.034	15481
877.162	15538
877.29	15420
877.418	15614
877.546	15591
877.674	15564
877.802	15599
877.93	15576
878.058	15637
878.185	15526
878.313	15576
878.441	15572
878.568	15370
878.696	15485
878.824	15526
878.951	15606
879.079	15804
879.206	15895
879.333	15732
879.461	15686
879.588	15732
879.715	15755
879.842	15899
879.97	15667
880.097	15408
880.224	15458
880.351	15477
880.478	15515
880.605	15389
880.732	15405
880.859	15667
880.986	15462
881.112	15466
881.239	15283
881.366	15245
881.493	15131
881.619	14948
881.746	14986
881.872	15039
881.999	15017
882.125	15070
882.252	15108
882.378	15116
882.505	15287
882.631	15051
882.757	14891
882.883	14979
883.01	14876
883.136	14785
883.262	14708
883.388	14697
883.514	14906
883.64	14811
883.766	14796
883.892	14636
884.018	14750
884.143	14861
884.269	14925
884.395	14708
884.52	14610
884.646	14564
884.772	14587
884.897	14499
885.023	14606
885.148	14701
885.274	14823
885.399	14777
885.524	14644
885.65	14511
885.775	14598
885.9	14743
886.025	14735
886.15	14674
886.275	14590
886.4	14575
886.525	14602
886.65	14610
886.775	14560
886.9	14716
887.025	14830
887.149	14556
887.274	14431
887.399	14423
887.523	14450
887.648	14370
887.773	14290
887.897	14476
888.021	14533
888.146	14415
888.27	14514
888.395	14594
888.519	14568
888.643	14564
888.767	14476
888.891	14343
889.015	14248
889.139	14294
889.263	14275
889.387	14381
889.511	14423
889.635	14450
889.759	14259
889.883	14351
890.006	14290
890.13	14473
890.254	14210
890.377	14248
890.501	14142
890.624	14123
890.748	14202
890.871	14103
890.995	13898
891.118	13894
891.241	14005
891.364	14016
891.488	14100
891.611	14084
891.734	13982
891.857	14016
891.98	13986
892.103	14138
892.226	13970
892.349	13997
892.471	13830
892.594	13928
892.717	14008
892.839	13989
892.962	13959
893.085	14069
893.207	13951
893.33	13917
893.452	13963
893.575	14005
893.697	13997
893.819	14069
893.941	14229
894.064	14183
894.186	13997
894.308	13959
894.43	14145
894.552	14168
894.674	14191
894.796	13913
894.918	14058
895.04	14084
895.161	14111
895.283	14100
895.405	13932
895.526	14081
895.648	14168
895.769	14149
895.891	14248
896.012	14187
896.134	14248
896.255	14187
896.376	14115
896.498	14149
896.619	14328
896.74	14206
896.861	14214
896.982	14499
897.103	14678
897.224	14434
897.345	14442
897.466	14339
897.587	14450
897.708	14590
897.828	14423
897.949	14431
898.07	14301
898.19	14484
898.311	14560
898.431	14568
898.552	14461
898.672	14568
898.792	14727
898.913	14526
899.033	14503
899.153	14381
899.273	14324
899.393	14461
899.513	14366
899.633	14408
899.753	14469
899.873	14317
899.993	14450
900.113	14355
900.232	14351
900.352	14328
900.472	14324
900.591	14187
900.711	14305
900.83	14237
900.95	14336
901.069	14442
901.189	14176
901.308	13947
901.427	13875
901.546	13925
901.665	13871
901.784	14020
901.904	13795
902.023	13636
902.141	13559
902.26	13563
902.379	13544
902.498	13563
902.617	13472
902.735	13514
902.854	13533
902.973	13544
903.091	13236
903.21	13251
903.328	13228
903.446	13156
903.565	13091
903.683	13065
903.801	12966
903.919	13053
904.038	13000
904.156	12882
904.274	12977
904.392	12909
904.51	12947
904.627	12871
904.745	12993
904.863	13019
904.981	12753
905.098	12578
905.216	12620
905.334	12608
905.451	12620
905.569	12536
905.686	12585
905.803	12608
905.921	12338
906.038	12544
906.155	12407
906.272	12414
906.389	12292
906.506	12155
906.623	12232
906.74	12159
906.857	11996
906.974	12076
907.091	12235
907.208	12251
907.324	12258
907.441	12072
907.557	11950
907.674	11942
907.79	11927
907.907	11870
908.023	11878
908.139	11927
908.256	11878
908.372	11916
908.488	11840
908.604	11737
908.72	11653
908.836	11699
908.952	11661
909.068	11684
909.184	11790
909.3	11634
909.415	11794
909.531	11680
909.647	11474
909.762	11379
909.878	11474
909.993	11448
910.108	11490
910.224	11417
910.339	11440
910.454	11368
910.57	11299
910.685	11174
910.8	11482
910.915	11486
911.03	11341
911.145	11235
911.259	11143
911.374	11216
911.489	11056
911.604	11048
911.718	10961
911.833	10927
911.947	10843
912.062	10839
912.176	10877
912.291	10866
912.405	10873
912.519	11113
912.633	11037
912.748	10991
912.862	10850
912.976	10797
913.09	10672
913.204	10786
913.318	10717
913.431	10873
913.545	10862
913.659	10923
913.772	10831
913.886	10721
914	10679
914.113	10744
914.226	10900
914.34	10725
914.453	10527
914.566	10748
914.68	10672
914.793	10607
914.906	10455
915.019	10447
915.132	10265
915.245	10402
915.358	10421
915.47	10485
915.583	10451
915.696	10417
915.809	10535
915.921	10607
916.034	10363
916.146	10409
916.259	10443
916.371	10398
916.483	10367
916.595	10371
916.708	10402
916.82	10348
916.932	10367
917.044	10390
917.156	10268
917.268	10219
917.38	10211
917.491	10230
917.603	10341
917.715	10409
917.826	10402
917.938	10227
918.049	10143
918.161	10249
918.272	10432
918.384	10481
918.495	10303
918.606	10169
918.717	10040
918.828	10124
918.939	10158
919.05	10036
919.161	10166
919.272	9899
919.383	9987
919.494	10154
919.604	10337
919.715	10154
919.826	10013
919.936	10143
920.047	10181
920.157	10196
920.267	10402
920.378	10166
920.488	10154
920.598	10341
920.708	10519
920.818	10375
920.928	10295
921.038	10542
921.148	10470
921.258	10135
921.368	10112
921.477	10002
921.587	9926
921.697	9865
921.806	9979
921.916	9911
922.025	9705
922.134	9740
922.244	9644
922.353	9724
922.462	9603
922.571	9584
922.68	9450
922.789	9431
922.898	9397
923.007	9313
923.116	9443
923.224	9424
923.333	9367
923.442	9321
923.55	9283
923.659	9351
923.767	9408
923.876	9329
923.984	9378
924.092	9272
924.201	9272
924.309	9298
924.417	9279
924.525	9245
924.633	9199
924.741	10109
924.849	9043
924.956	9195
925.064	9074
925.172	8971
925.279	9039
925.387	9089
925.494	9097
925.602	9119
925.709	9138
925.816	8990
925.924	9081
926.031	9131
926.138	9108
926.245	9104
926.352	9047
926.459	9093
926.566	9192
926.673	8986
926.779	8941
926.886	8895
926.993	8864
927.099	8735
927.206	8739
927.312	8689
927.419	8834
927.525	8754
927.631	8849
927.737	8727
927.843	8686
927.95	8587
928.056	8621
928.162	8731
928.267	8766
928.373	9180
928.479	8773
928.585	8598
928.69	8735
928.796	8697
928.901	8587
929.007	8465
929.112	8621
929.218	8560
929.323	8473
929.428	8522
929.533	8682
929.638	8480
929.743	8393
929.848	8549
929.953	8484
930.058	8415
930.163	8206
930.267	8317
930.372	8431
930.477	8294
930.581	8499
930.685	8301
930.79	8157
930.894	8263
930.998	8210
931.103	8351
931.207	7955
931.311	7989
931.415	7875
931.519	7704
931.623	7689
