Data from test_V78500241_1354.txt Node
Date: Fri Mar 25 14:43:08 CST 2022
User: usil
Spectrometer: V785-0024
Trigger mode: 0
Integration Time (sec): 4.000000E-1
Scans to average: 1
Nonlinearity correction enabled: false
Boxcar width: 0
Storing dark spectrum: false
XAxis mode: Wavelengths
Number of Pixels in Spectrum: 1024
>>>>>Begin Spectral Data<<<<<
801.071	22519
801.214	22329
801.356	22166
801.499	22074
801.641	21922
801.783	21793
801.926	21660
802.068	21519
802.211	21720
802.353	21583
802.496	21237
802.638	21214
802.78	21199
802.923	21157
803.065	21093
803.208	21001
803.35	21184
803.492	21127
803.635	21252
803.777	21051
803.919	21214
804.061	21431
804.204	21135
804.346	21104
804.488	20876
804.63	21104
804.773	20921
804.915	21116
805.057	21291
805.199	20963
805.341	21112
805.483	21256
805.626	21020
805.768	20982
805.91	20929
806.052	21028
806.194	20986
806.336	21214
806.478	21017
806.62	21001
806.762	21233
806.904	21268
807.046	21477
807.188	21374
807.33	21408
807.472	21355
807.614	21389
807.756	21408
807.898	21214
808.04	21154
808.182	21188
808.324	21241
808.465	21378
808.607	21549
808.749	21599
808.891	21789
809.033	21800
809.174	21625
809.316	21629
809.458	21663
809.6	21553
809.741	21557
809.883	21530
810.025	21774
810.166	21759
810.308	21606
810.45	21633
810.591	21363
810.733	21302
810.875	21370
811.016	21138
811.158	21135
811.299	21207
811.441	21408
811.582	21344
811.724	21233
811.865	21230
812.007	21157
812.148	21161
812.29	21275
812.431	21500
812.573	21450
812.714	21603
812.855	21774
812.997	21789
813.138	22006
813.279	21884
813.421	21755
813.562	21545
813.703	21420
813.845	21351
813.986	21009
814.127	21043
814.268	20838
814.41	20853
814.551	20754
814.692	20887
814.833	20667
814.974	20590
815.115	20819
815.256	20503
815.397	20667
815.539	20655
815.68	20454
815.821	20469
815.962	20537
816.103	20469
816.244	20423
816.385	20244
816.526	20161
816.666	19989
816.807	19906
816.948	20008
817.089	20122
817.23	19982
817.371	19944
817.512	19845
817.653	19833
817.793	19868
817.934	19940
818.075	19963
818.216	19879
818.356	19734
818.497	19826
818.638	19567
818.778	19620
818.919	19662
819.06	19537
819.2	19689
819.341	19856
819.481	19670
819.622	20043
819.762	20126
819.903	19951
820.043	19974
820.184	19993
820.324	19925
820.465	19978
820.605	19898
820.746	19845
820.886	19689
821.026	19906
821.167	19803
821.307	19986
821.447	19795
821.588	19616
821.728	19571
821.868	19449
822.008	19293
822.149	19274
822.289	19316
822.429	19061
822.569	18977
822.709	18939
822.849	18814
822.99	18745
823.13	18722
823.27	18696
823.41	18578
823.55	18479
823.69	18578
823.83	18536
823.97	18544
824.11	18361
824.25	18342
824.389	18422
824.529	18410
824.669	18277
824.809	18433
824.949	18525
825.089	18441
825.228	18346
825.368	18136
825.508	18182
825.648	18182
825.787	18201
825.927	18163
826.067	18098
826.206	18034
826.346	18197
826.485	18079
826.625	18140
826.765	18304
826.904	18228
827.044	17946
827.183	17950
827.323	17764
827.462	17859
827.601	17866
827.741	17832
827.88	17710
828.02	17737
828.159	17855
828.298	17790
828.437	17821
828.577	17836
828.716	17954
828.855	17752
828.994	17505
829.134	17592
829.273	17699
829.412	17493
829.551	17611
829.69	17493
829.829	17543
829.968	17680
830.107	17657
830.246	17589
830.385	17638
830.524	17505
830.663	17398
830.802	17299
830.941	17086
831.08	17242
831.219	17330
831.357	17288
831.496	17509
831.635	17147
831.774	17170
831.913	17143
832.051	17064
832.19	16984
832.329	17109
832.467	16908
832.606	16786
832.744	16885
832.883	17006
833.022	16877
833.16	16900
833.299	16980
833.437	16923
833.576	17003
833.714	16938
833.852	16999
833.991	17086
834.129	17029
834.267	17079
834.406	16930
834.544	16892
834.682	16946
834.821	16911
834.959	17220
835.097	16911
835.235	17064
835.373	17018
835.511	16934
835.65	16858
835.788	16812
835.926	16698
836.064	16672
836.202	16615
836.34	16877
836.478	16991
836.615	16816
836.753	16869
836.891	16885
837.029	16889
837.167	16759
837.305	16656
837.443	16915
837.58	16706
837.718	16850
837.856	16736
837.993	16729
838.131	16733
838.269	16698
838.406	16782
838.544	16523
838.681	16447
838.819	16318
838.956	16234
839.094	16234
839.231	16409
839.369	16451
839.506	16668
839.643	16489
839.781	16268
839.918	16219
840.055	16272
840.193	16253
840.33	16242
840.467	16234
840.604	16223
840.742	16542
840.879	16090
841.016	16200
841.153	16143
841.29	16409
841.427	16318
841.564	16325
841.701	16382
841.838	16177
841.975	16131
842.112	16158
842.249	16063
842.385	15926
842.522	16230
842.659	16051
842.796	16048
842.933	16105
843.069	16071
843.206	16082
843.343	16154
843.479	16105
843.616	16162
843.752	15819
843.889	15808
844.025	15975
844.162	15808
844.298	15911
844.435	15831
844.571	15705
844.708	15915
844.844	15998
844.98	15937
845.117	15987
845.253	15804
845.389	15812
845.525	15842
845.661	15876
845.798	15808
845.934	16013
846.07	15823
846.206	16021
846.342	15994
846.478	15766
846.614	15454
846.75	15431
846.886	15378
847.022	15466
847.158	15344
847.294	15431
847.429	15359
847.565	15298
847.701	15690
847.837	15108
847.972	15116
848.108	15173
848.244	15294
848.379	15116
848.515	15024
848.65	14861
848.786	15028
848.921	15039
849.057	15165
849.192	15135
849.328	14986
849.463	14998
849.598	14979
849.734	14952
849.869	14899
850.004	14781
850.14	14785
850.275	14701
850.41	14651
850.545	14712
850.68	14625
850.815	14777
850.95	14731
851.085	14941
851.22	14826
851.355	14686
851.49	14750
851.625	14735
851.76	14712
851.895	14636
852.03	14659
852.165	14682
852.299	14708
852.434	14910
852.569	14887
852.703	14750
852.838	14765
852.973	14902
853.107	14880
853.242	14743
853.376	14682
853.511	14415
853.645	14602
853.78	14811
853.914	14590
854.048	14602
854.183	14708
854.317	14644
854.451	14830
854.585	14533
854.72	14663
854.854	14701
854.988	14465
855.122	14571
855.256	14537
855.39	14564
855.524	14674
855.658	14648
855.792	14648
855.926	14746
856.06	14686
856.194	14689
856.327	14571
856.461	14526
856.595	14590
856.729	14708
856.862	14739
856.996	14686
857.13	14693
857.263	14811
857.397	14720
857.53	14636
857.664	14716
857.797	14731
857.931	14750
858.064	14636
858.197	14724
858.331	14667
858.464	14594
858.597	14621
858.731	14629
858.864	14636
858.997	14511
859.13	14686
859.263	14739
859.396	14693
859.529	14560
859.662	14507
859.795	14537
859.928	14552
860.061	14788
860.194	14777
860.327	14602
860.46	14583
860.592	14758
860.725	14777
860.858	14705
860.99	14682
861.123	14564
861.256	14621
861.388	14606
861.521	15302
861.653	14530
861.786	14541
861.918	14492
862.05	14446
862.183	14613
862.315	14644
862.447	14571
862.58	14610
862.712	14324
862.844	14233
862.976	14495
863.108	14465
863.24	14754
863.372	14240
863.504	14370
863.636	14389
863.768	14423
863.9	14450
864.032	14362
864.164	14256
864.296	14385
864.428	14545
864.559	14537
864.691	14530
864.823	14518
864.954	14408
865.086	14514
865.217	14343
865.349	14328
865.48	14404
865.612	14438
865.743	14598
865.875	14465
866.006	14336
866.137	14366
866.269	14309
866.4	14351
866.531	14393
866.662	14339
866.793	14347
866.924	14355
867.055	14377
867.186	14374
867.317	14317
867.448	14244
867.579	14309
867.71	14305
867.841	14332
867.972	14396
868.103	14389
868.233	14328
868.364	14423
868.495	14442
868.625	14606
868.756	14750
868.886	14575
869.017	14625
869.147	14750
869.278	14727
869.408	14667
869.539	14579
869.669	14727
869.799	14686
869.929	14792
870.06	14686
870.19	14914
870.32	14948
870.45	14982
870.58	15043
870.71	15104
870.84	15055
870.97	15028
871.1	15032
871.23	15127
871.36	15241
871.489	15135
871.619	15294
871.749	15275
871.879	15222
872.008	15325
872.138	15241
872.267	15116
872.397	15119
872.526	15013
872.656	15093
872.785	15116
872.915	15184
873.044	15325
873.173	15298
873.303	15260
873.432	15268
873.561	15279
873.69	15367
873.819	15275
873.948	15386
874.077	15336
874.206	15199
874.335	15298
874.464	15428
874.593	15511
874.722	15549
874.851	15633
874.979	15652
875.108	15606
875.237	15545
875.365	15519
875.494	15523
875.623	15652
875.751	15561
875.88	15717
876.008	15739
876.136	15812
876.265	15983
876.393	16204
876.521	16029
876.65	16006
876.778	16021
876.906	15987
877.034	15857
877.162	15941
877.29	15972
877.418	15972
877.546	16051
877.674	16021
877.802	16013
877.93	15987
878.058	15922
878.185	15892
878.313	16021
878.441	16078
878.568	15911
878.696	16071
878.824	16059
878.951	16139
879.079	16276
879.206	16382
879.333	16261
879.461	16101
879.588	16238
879.715	16223
879.842	16360
879.97	16154
880.097	15953
880.224	15953
880.351	15968
880.478	15975
880.605	15838
880.732	15865
880.859	16131
880.986	15892
881.112	16002
881.239	15663
881.366	15644
881.493	15591
881.619	15481
881.746	15530
881.872	15530
881.999	15553
882.125	15435
882.252	15526
882.378	15599
882.505	15603
882.631	15378
882.757	15340
882.883	15416
883.01	15447
883.136	15249
883.262	15222
883.388	15218
883.514	15439
883.64	15443
883.766	15310
883.892	15146
884.018	15207
884.143	15332
884.269	15389
884.395	15062
884.52	15032
884.646	15138
884.772	14941
884.897	14982
885.023	15127
885.148	15195
885.274	15218
885.399	15138
885.524	15070
885.65	15070
885.775	15093
885.9	14944
886.025	15173
886.15	15024
886.275	15001
886.4	14910
886.525	14982
886.65	15017
886.775	15020
886.9	15127
887.025	15207
887.149	14952
887.274	14941
887.399	14788
887.523	14804
887.648	14777
887.773	14739
887.897	14925
888.021	14925
888.146	14883
888.27	15017
888.395	15036
888.519	14872
888.643	14906
888.767	15032
888.891	14830
889.015	14754
889.139	14754
889.263	14686
889.387	14883
889.511	14986
889.635	14804
889.759	14590
889.883	14667
890.006	14762
890.13	14743
890.254	14602
890.377	14712
890.501	14507
890.624	14514
890.748	14640
890.871	14526
890.995	14351
891.118	14286
891.241	14366
891.364	14336
891.488	14518
891.611	14377
891.734	14484
891.857	14537
891.98	14454
892.103	14396
892.226	14484
892.349	14374
892.471	14301
892.594	14309
892.717	14393
892.839	14366
892.962	14434
893.085	14450
893.207	14446
893.33	14168
893.452	14343
893.575	14495
893.697	14355
893.819	14473
893.941	14667
894.064	14610
894.186	14294
894.308	14305
894.43	14579
894.552	14511
894.674	14537
894.796	14282
894.918	14370
895.04	14552
895.161	14495
895.283	14503
895.405	14317
895.526	14533
895.648	14518
895.769	14473
895.891	14533
896.012	14693
896.134	14564
896.255	14575
896.376	14537
896.498	14568
896.619	14549
896.74	14579
896.861	14644
896.982	14891
897.103	15032
897.224	14902
897.345	14781
897.466	14678
897.587	14834
897.708	14941
897.828	14792
897.949	14743
898.07	14731
898.19	14842
898.311	14880
898.431	14921
898.552	14933
898.672	14998
898.792	15039
898.913	14819
899.033	14720
899.153	14785
899.273	14708
899.393	14689
899.513	14796
899.633	14769
899.753	14819
899.873	14602
899.993	14750
900.113	14731
900.232	14731
900.352	14693
900.472	14686
900.591	14617
900.711	14651
900.83	14594
900.95	14712
901.069	14689
901.189	14617
901.308	14267
901.427	14172
901.546	14199
901.665	14347
901.784	14351
901.904	14142
902.023	14027
902.141	13940
902.26	13814
902.379	13898
902.498	13894
902.617	13765
902.735	13871
902.854	13868
902.973	13849
903.091	13628
903.21	13540
903.328	13582
903.446	13472
903.565	13483
903.683	13510
903.801	13278
903.919	13445
904.038	13308
904.156	13225
904.274	13362
904.392	13194
904.51	13225
904.627	13175
904.745	13240
904.863	13343
904.981	13175
905.098	12947
905.216	12897
905.334	12989
905.451	12871
905.569	12920
905.686	12932
905.803	12939
905.921	12779
906.038	12821
906.155	12787
906.272	12536
906.389	12646
906.506	12555
906.623	12506
906.74	12502
906.857	12399
906.974	12372
907.091	12559
907.208	12608
907.324	12570
907.441	12315
907.557	12266
907.674	12205
907.79	12186
907.907	12296
908.023	12213
908.139	12270
908.256	12197
908.372	12163
908.488	12125
908.604	12034
908.72	12045
908.836	12003
908.952	12011
909.068	11999
909.184	12129
909.3	11946
909.415	12034
909.531	11916
909.647	11634
909.762	11817
909.878	11805
909.993	11760
910.108	11771
910.224	11695
910.339	11745
910.454	11722
910.57	11722
910.685	11577
910.8	11798
910.915	11802
911.03	11680
911.145	11493
911.259	11501
911.374	11474
911.489	11482
911.604	11376
911.718	11212
911.833	11216
911.947	11132
912.062	10995
912.176	11178
912.291	11288
912.405	11216
912.519	11402
912.633	11383
912.748	11288
912.862	11166
912.976	11124
913.09	11067
913.204	11029
913.318	11094
913.431	11204
913.545	11162
913.659	11174
913.772	11094
913.886	10957
914	10873
914.113	11010
914.226	11117
914.34	10949
914.453	10927
914.566	11048
914.68	10957
914.793	10953
914.906	10809
915.019	10706
915.132	10603
915.245	10656
915.358	10691
915.47	10778
915.583	10771
915.696	10736
915.809	10892
915.921	10797
916.034	10634
916.146	10679
916.259	10634
916.371	10706
916.483	10736
916.595	10641
916.708	10714
916.82	10702
916.932	10649
917.044	10649
917.156	10656
917.268	10462
917.38	10489
917.491	10516
917.603	10504
917.715	10607
917.826	10660
917.938	10440
918.049	10462
918.161	10497
918.272	10611
918.384	10687
918.495	10611
918.606	10398
918.717	10348
918.828	10485
918.939	10447
919.05	10280
919.161	10352
919.272	10150
919.383	10280
919.494	10440
919.604	10542
919.715	10466
919.826	10329
919.936	10375
920.047	10497
920.157	10386
920.267	10653
920.378	10466
920.488	10440
920.598	10649
920.708	10805
920.818	10580
920.928	10634
921.038	10797
921.148	10710
921.258	10440
921.368	10344
921.477	10318
921.587	10280
921.697	10158
921.806	10333
921.916	10177
922.025	9956
922.134	9979
922.244	9888
922.353	10036
922.462	9819
922.571	9808
922.68	9656
922.789	9713
922.898	9667
923.007	9618
923.116	9701
923.224	9671
923.333	9652
923.442	9595
923.55	9504
923.659	9538
923.767	9648
923.876	9496
923.984	9591
924.092	9477
924.201	9386
924.309	9507
924.417	9534
924.525	9412
924.633	9389
924.741	10371
924.849	9291
924.956	9367
925.064	9336
925.172	9294
925.279	9279
925.387	9291
925.494	9340
925.602	9447
925.709	9450
925.816	9256
925.924	9298
926.031	9355
926.138	9310
926.245	9416
926.352	9237
926.459	9317
926.566	9393
926.673	9241
926.779	9127
926.886	9100
926.993	9032
927.099	8952
927.206	9013
927.312	8921
927.419	9005
927.525	8971
927.631	9020
927.737	8914
927.843	8891
927.95	8746
928.056	8914
928.162	8990
928.267	8933
928.373	9572
928.479	8986
928.585	8766
928.69	8941
928.796	8986
928.901	8838
929.007	8617
929.112	8826
929.218	8823
929.323	8716
929.428	8727
929.533	8804
929.638	8659
929.743	8743
929.848	8762
929.953	8716
930.058	8606
930.163	8438
930.267	8488
930.372	8636
930.477	8507
930.581	8693
930.685	8545
930.79	8396
930.894	8419
930.998	8465
931.103	8526
931.207	8244
931.311	8172
931.415	8149
931.519	7970
931.623	7898
