Data from test_V78500241_220.txt Node
Date: Fri Mar 25 14:35:15 CST 2022
User: usil
Spectrometer: V785-0024
Trigger mode: 0
Integration Time (sec): 4.000000E-1
Scans to average: 1
Nonlinearity correction enabled: false
Boxcar width: 0
Storing dark spectrum: false
XAxis mode: Wavelengths
Number of Pixels in Spectrum: 1024
>>>>>Begin Spectral Data<<<<<
801.071	27953
801.214	27770
801.356	27534
801.499	27424
801.641	27386
801.783	27359
801.926	27317
802.068	27211
802.211	27165
802.353	27119
802.496	26998
802.638	26960
802.78	26868
802.923	26876
803.065	26686
803.208	26765
803.35	26758
803.492	26758
803.635	26960
803.777	26830
803.919	26880
804.061	27112
804.204	26910
804.346	26811
804.488	26674
804.63	26727
804.773	26606
804.915	26705
805.057	26800
805.199	26697
805.341	26811
805.483	26925
805.626	26727
805.768	26735
805.91	26933
806.052	26868
806.194	26823
806.336	27051
806.478	26899
806.62	26883
806.762	26940
806.904	27001
807.046	27214
807.188	27283
807.33	27199
807.472	27340
807.614	27176
807.756	27344
807.898	27169
808.04	27028
808.182	27302
808.324	27283
808.465	27329
808.607	27637
808.749	27644
808.891	27892
809.033	27934
809.174	27762
809.316	27846
809.458	27762
809.6	27507
809.741	27637
809.883	27431
810.025	27629
810.166	27686
810.308	27591
810.45	27671
810.591	27458
810.733	27344
810.875	27317
811.016	27222
811.158	27070
811.299	27233
811.441	27393
811.582	27329
811.724	27074
811.865	27138
812.007	27302
812.148	27207
812.29	27313
812.431	27363
812.573	27504
812.714	27663
812.855	27667
812.997	27827
813.138	27842
813.279	27842
813.421	27797
813.562	27523
813.703	27454
813.845	27310
813.986	27017
814.127	26902
814.268	26940
814.41	26861
814.551	26754
814.692	26693
814.833	26686
814.974	26701
815.115	26701
815.256	26488
815.397	26621
815.539	26579
815.68	26465
815.821	26358
815.962	26507
816.103	26473
816.244	26271
816.385	26214
816.526	26313
816.666	26008
816.807	25772
816.948	26001
817.089	26016
817.23	25982
817.371	25879
817.512	25852
817.653	25822
817.793	25776
817.934	25795
818.075	25845
818.216	25772
818.356	25757
818.497	25715
818.638	25677
818.778	25537
818.919	25487
819.06	25548
819.2	25708
819.341	25647
819.481	25822
819.622	25993
819.762	26088
819.903	25986
820.043	25799
820.184	25818
820.324	25799
820.465	25841
820.605	25852
820.746	25613
820.886	25620
821.026	25731
821.167	25689
821.307	25822
821.447	25685
821.588	25605
821.728	25491
821.868	25377
822.008	25369
822.149	25221
822.289	25168
822.429	25034
822.569	24814
822.709	24833
822.849	24768
822.99	24582
823.13	24654
823.27	24593
823.41	24426
823.55	24395
823.69	24521
823.83	24486
823.97	24376
824.11	24315
824.25	24197
824.389	24304
824.529	24338
824.669	24281
824.809	24418
824.949	24277
825.089	24361
825.228	24277
825.368	24030
825.508	24102
825.648	24136
825.787	24060
825.927	24053
826.067	24007
826.206	23920
826.346	24076
826.485	24026
826.625	23946
826.765	24076
826.904	23980
827.044	23676
827.183	23783
827.323	23585
827.462	23680
827.601	23775
827.741	23646
827.88	23653
828.02	23573
828.159	23501
828.298	23573
828.437	23722
828.577	23737
828.716	23630
828.855	23436
828.994	23318
829.134	23444
829.273	23349
829.412	23307
829.551	23356
829.69	23402
829.829	23353
829.968	23429
830.107	23482
830.246	23288
830.385	23280
830.524	23208
830.663	23094
830.802	23060
830.941	22991
831.08	23014
831.219	23094
831.357	22987
831.496	23052
831.635	22866
831.774	22896
831.913	22763
832.051	22660
832.19	22679
832.329	22656
832.467	22611
832.606	22527
832.744	22538
832.883	22535
833.022	22588
833.16	22512
833.299	22611
833.437	22634
833.576	22622
833.714	22615
833.852	22618
833.991	22584
834.129	22679
834.267	22596
834.406	22443
834.544	22569
834.682	22580
834.821	22550
834.959	22771
835.097	22481
835.235	22527
835.373	22645
835.511	22508
835.65	22394
835.788	22386
835.926	22322
836.064	22207
836.202	22230
836.34	22363
836.478	22554
836.615	22379
836.753	22432
836.891	22512
837.029	22481
837.167	22314
837.305	22215
837.443	22120
837.58	22226
837.718	22268
837.856	22185
837.993	22131
838.131	22310
838.269	22322
838.406	22158
838.544	22029
838.681	21854
838.819	21720
838.956	21603
839.094	21660
839.231	21766
839.369	21865
839.506	22074
839.643	21876
839.781	21736
839.918	21618
840.055	21603
840.193	21580
840.33	21507
840.467	21549
840.604	21622
840.742	21842
840.879	21439
841.016	21500
841.153	21401
841.29	21599
841.427	21568
841.564	21549
841.701	21526
841.838	21386
841.975	21382
842.112	21504
842.249	21264
842.385	21359
842.522	21443
842.659	21222
842.796	21264
842.933	21157
843.069	21176
843.206	21256
843.343	21180
843.479	21310
843.616	21313
843.752	20952
843.889	21009
844.025	21135
844.162	20948
844.298	21028
844.435	20975
844.571	21074
844.708	21100
844.844	21085
844.98	21241
845.117	21066
845.253	21024
845.389	20876
845.525	21100
845.661	21146
845.798	21169
845.934	21370
846.07	21230
846.206	21325
846.342	21317
846.478	21085
846.614	20746
846.75	20590
846.886	20549
847.022	20522
847.158	20663
847.294	20454
847.429	20484
847.565	20541
847.701	20689
847.837	20145
847.972	20119
848.108	20183
848.244	20206
848.379	20043
848.515	20035
848.65	19974
848.786	19997
848.921	20054
849.057	20134
849.192	20069
849.328	20024
849.463	20062
849.598	20001
849.734	19890
849.869	19791
850.004	19795
850.14	19753
850.275	19757
850.41	19609
850.545	19601
850.68	19616
850.815	19662
850.95	19807
851.085	19776
851.22	19837
851.355	19799
851.49	19811
851.625	19715
851.76	19704
851.895	19582
852.03	19677
852.165	19651
852.299	19772
852.434	19811
852.569	19635
852.703	19715
852.838	19677
852.973	19909
853.107	19890
853.242	19632
853.376	19590
853.511	19411
853.645	19518
853.78	19556
853.914	19487
854.048	19540
854.183	19449
854.317	19544
854.451	19632
854.585	19487
854.72	19632
854.854	19460
854.988	19415
855.122	19525
855.256	19460
855.39	19415
855.524	19483
855.658	19620
855.792	19419
855.926	19571
856.06	19559
856.194	19594
856.327	19544
856.461	19510
856.595	19514
856.729	19544
856.862	19578
856.996	19506
857.13	19616
857.263	19700
857.397	19590
857.53	19476
857.664	19586
857.797	19529
857.931	19559
858.064	19460
858.197	19559
858.331	19457
858.464	19384
858.597	19343
858.731	19457
858.864	19392
858.997	19502
859.13	19358
859.263	19605
859.396	19521
859.529	19362
859.662	19346
859.795	19415
859.928	19441
860.061	19525
860.194	19601
860.327	19381
860.46	19441
860.592	19556
860.725	19441
860.858	19578
860.99	19441
861.123	19354
861.256	19251
861.388	19434
861.521	20024
861.653	19297
861.786	19301
861.918	19396
862.05	19365
862.183	19362
862.315	19529
862.447	19419
862.58	19445
862.712	19095
862.844	19156
862.976	19240
863.108	19228
863.24	19495
863.372	19107
863.504	19095
863.636	19175
863.768	19160
863.9	19179
864.032	19008
864.164	19183
864.296	19198
864.428	19274
864.559	19221
864.691	19206
864.823	19050
864.954	19027
865.086	19179
865.217	19031
865.349	18981
865.48	19187
865.612	19110
865.743	19175
865.875	19034
866.006	19042
866.137	19042
866.269	19118
866.4	18989
866.531	19091
866.662	18954
866.793	18996
866.924	19038
867.055	19008
867.186	18981
867.317	19008
867.448	18993
867.579	18951
867.71	18894
867.841	18947
867.972	19050
868.103	18871
868.233	19027
868.364	19046
868.495	19107
868.625	19217
868.756	19209
868.886	19168
869.017	19202
869.147	19293
869.278	19297
869.408	19213
869.539	19232
869.669	19312
869.799	19206
869.929	19270
870.06	19362
870.19	19548
870.32	19518
870.45	19559
870.58	19643
870.71	19757
870.84	19700
870.97	19529
871.1	19693
871.23	19769
871.36	19731
871.489	19803
871.619	19757
871.749	19746
871.879	19913
872.008	19906
872.138	19841
872.267	19734
872.397	19681
872.526	19738
872.656	19651
872.785	19609
872.915	19845
873.044	19917
873.173	19814
873.303	19860
873.432	19894
873.561	19849
873.69	19818
873.819	19727
873.948	19849
874.077	19894
874.206	19818
874.335	19860
874.464	20012
874.593	20111
874.722	20081
874.851	20176
874.979	20221
875.108	20130
875.237	20149
875.365	20031
875.494	20058
875.623	20107
875.751	20134
875.88	20145
876.008	20389
876.136	20465
876.265	20579
876.393	20590
876.521	20575
876.65	20655
876.778	20625
876.906	20484
877.034	20191
877.162	20473
877.29	20427
877.418	20552
877.546	20556
877.674	20533
877.802	20503
877.93	20556
878.058	20530
878.185	20434
878.313	20465
878.441	20598
878.568	20415
878.696	20476
878.824	20522
878.951	20727
879.079	20769
879.206	20921
879.333	20853
879.461	20956
879.588	20895
879.715	20941
879.842	20952
879.97	20788
880.097	20495
880.224	20419
880.351	20484
880.478	20552
880.605	20499
880.732	20381
880.859	20644
880.986	20473
881.112	20259
881.239	20301
881.366	20100
881.493	20134
881.619	19989
881.746	19902
881.872	19978
881.999	19852
882.125	19955
882.252	20092
882.378	20046
882.505	20092
882.631	19936
882.757	19860
882.883	19807
883.01	19723
883.136	19723
883.262	19624
883.388	19639
883.514	19734
883.64	19704
883.766	19681
883.892	19609
884.018	19586
884.143	19689
884.269	19788
884.395	19460
884.52	19362
884.646	19491
884.772	19339
884.897	19236
885.023	19411
885.148	19525
885.274	19548
885.399	19540
885.524	19392
885.65	19480
885.775	19358
885.9	19312
886.025	19544
886.15	19457
886.275	19209
886.4	19244
886.525	19362
886.65	19255
886.775	19331
886.9	19460
887.025	19468
887.149	19263
887.274	19076
887.399	19171
887.523	19072
887.648	19053
887.773	19027
887.897	19232
888.021	19053
888.146	19118
888.27	19228
888.395	19206
888.519	19057
888.643	19122
888.767	19202
888.891	18886
889.015	18825
889.139	19046
889.263	18954
889.387	18928
889.511	19110
889.635	18958
889.759	18783
889.883	18863
890.006	18935
890.13	19103
890.254	18825
890.377	18909
890.501	18719
890.624	18639
890.748	18715
890.871	18498
890.995	18559
891.118	18460
891.241	18498
891.364	18513
891.488	18593
891.611	18646
891.734	18559
891.857	18422
891.98	18589
892.103	18601
892.226	18585
892.349	18467
892.471	18277
892.594	18433
892.717	18479
892.839	18509
892.962	18391
893.085	18544
893.207	18357
893.33	18422
893.452	18270
893.575	18532
893.697	18334
893.819	18578
893.941	18696
894.064	18601
894.186	18395
894.308	18395
894.43	18433
894.552	18506
894.674	18467
894.796	18365
894.918	18448
895.04	18433
895.161	18608
895.283	18464
895.405	18365
895.526	18448
895.648	18346
895.769	18490
895.891	18448
896.012	18563
896.134	18555
896.255	18483
896.376	18448
896.498	18528
896.619	18566
896.74	18388
896.861	18639
896.982	18833
897.103	18981
897.224	18779
897.345	18692
897.466	18612
897.587	18745
897.708	18932
897.828	18768
897.949	18722
898.07	18730
898.19	18677
898.311	18700
898.431	18635
898.552	18738
898.672	18707
898.792	18802
898.913	18757
899.033	18673
899.153	18437
899.273	18395
899.393	18429
899.513	18528
899.633	18490
899.753	18464
899.873	18418
899.993	18365
900.113	18441
900.232	18414
900.352	18403
900.472	18350
900.591	18197
900.711	18289
900.83	18220
900.95	18471
901.069	18327
901.189	18171
901.308	18019
901.427	17946
901.546	17965
901.665	18026
901.784	17961
901.904	17882
902.023	17615
902.141	17600
902.26	17406
902.379	17512
902.498	17493
902.617	17425
902.735	17482
902.854	17318
902.973	17341
903.091	17090
903.21	17025
903.328	17056
903.446	17094
903.565	16995
903.683	17045
903.801	16797
903.919	16850
904.038	16835
904.156	16713
904.274	16752
904.392	16672
904.51	16668
904.627	16607
904.745	16702
904.863	16752
904.981	16531
905.098	16379
905.216	16447
905.334	16276
905.451	16265
905.569	16207
905.686	16318
905.803	16276
905.921	16200
906.038	16226
906.155	16067
906.272	16002
906.389	15994
906.506	15869
906.623	15793
906.74	15972
906.857	15846
906.974	15713
907.091	15941
907.208	15956
907.324	15835
907.441	15751
907.557	15542
907.674	15526
907.79	15492
907.907	15587
908.023	15504
908.139	15504
908.256	15534
908.372	15576
908.488	15363
908.604	15351
908.72	15317
908.836	15188
908.952	15169
909.068	15310
909.184	15291
909.3	15176
909.415	15256
909.531	15131
909.647	14956
909.762	14891
909.878	14952
909.993	15013
910.108	14918
910.224	14910
910.339	14982
910.454	14872
910.57	14712
910.685	14769
910.8	15020
910.915	14876
911.03	14864
911.145	14625
911.259	14648
911.374	14568
911.489	14412
911.604	14507
911.718	14290
911.833	14313
911.947	14183
912.062	14180
912.176	14301
912.291	14233
912.405	14313
912.519	14454
912.633	14503
912.748	14408
912.862	14259
912.976	14187
913.09	14069
913.204	14115
913.318	14134
913.431	14199
913.545	14168
913.659	14298
913.772	14084
913.886	13989
914	13917
914.113	14123
914.226	14046
914.34	14054
914.453	13845
914.566	14054
914.68	13852
914.793	13856
914.906	13712
915.019	13628
915.132	13525
915.245	13647
915.358	13662
915.47	13636
915.583	13647
915.696	13616
915.809	13727
915.921	13750
916.034	13476
916.146	13495
916.259	13590
916.371	13597
916.483	13571
916.595	13460
916.708	13491
916.82	13544
916.932	13502
917.044	13434
917.156	13426
917.268	13350
917.38	13362
917.491	13308
917.603	13312
917.715	13369
917.826	13384
917.938	13358
918.049	13236
918.161	13236
918.272	13460
918.384	13464
918.495	13255
918.606	13107
918.717	13110
918.828	13164
918.939	13152
919.05	12951
919.161	13053
919.272	12829
919.383	12882
919.494	12970
919.604	13206
919.715	13042
919.826	13012
919.936	13057
920.047	13084
920.157	13126
920.267	13251
920.378	13015
920.488	13008
920.598	13114
920.708	13392
920.818	13190
920.928	13175
921.038	13346
921.148	13225
921.258	12932
921.368	12989
921.477	12924
921.587	12878
921.697	12654
921.806	12776
921.916	12711
922.025	12574
922.134	12456
922.244	12490
922.353	12521
922.462	12403
922.571	12304
922.68	12243
922.789	12110
922.898	12110
923.007	12136
923.116	12098
923.224	12136
923.333	12083
923.442	12026
923.55	11954
923.659	12034
923.767	12045
923.876	11901
923.984	12038
924.092	11897
924.201	11863
924.309	11889
924.417	11946
924.525	11809
924.633	11866
924.741	12734
924.849	11668
924.956	11855
925.064	11611
925.172	11589
925.279	11634
925.387	11638
925.494	11646
925.602	11657
925.709	11684
925.816	11509
925.924	11535
926.031	11592
926.138	11608
926.245	11623
926.352	11505
926.459	11668
926.566	11642
926.673	11512
926.779	11391
926.886	11364
926.993	11315
927.099	11204
927.206	11220
927.312	11128
927.419	11368
927.525	11239
927.631	11227
927.737	11132
927.843	11193
927.95	10942
928.056	11060
928.162	11048
928.267	11124
928.373	11592
928.479	11204
928.585	10904
928.69	11071
928.796	11060
928.901	10843
929.007	10843
929.112	10896
929.218	10991
929.323	10930
929.428	10729
929.533	10934
929.638	10839
929.743	10820
929.848	10858
929.953	10752
930.058	10683
930.163	10470
930.267	10603
930.372	10664
930.477	10413
930.581	10668
930.685	10546
930.79	10470
930.894	10421
930.998	10398
931.103	10519
931.207	10185
931.311	10112
931.415	10071
931.519	9800
931.623	9842
