Data from test_V78500241_1806.txt Node
Date: Fri Mar 25 14:46:17 CST 2022
User: usil
Spectrometer: V785-0024
Trigger mode: 0
Integration Time (sec): 4.000000E-1
Scans to average: 1
Nonlinearity correction enabled: false
Boxcar width: 0
Storing dark spectrum: false
XAxis mode: Wavelengths
Number of Pixels in Spectrum: 1024
>>>>>Begin Spectral Data<<<<<
801.071	22230
801.214	22021
801.356	21804
801.499	21747
801.641	21644
801.783	21488
801.926	21462
802.068	21420
802.211	21321
802.353	21348
802.496	21104
802.638	21081
802.78	20948
802.923	20948
803.065	20941
803.208	20861
803.35	20929
803.492	21062
803.635	20960
803.777	20785
803.919	20941
804.061	21176
804.204	21047
804.346	20857
804.488	20727
804.63	20788
804.773	20727
804.915	20777
805.057	20902
805.199	20765
805.341	20868
805.483	20933
805.626	20880
805.768	20739
805.91	20838
806.052	20872
806.194	20720
806.336	20948
806.478	20731
806.62	20697
806.762	20872
806.904	21017
807.046	21192
807.188	21077
807.33	21142
807.472	21131
807.614	21093
807.756	21020
807.898	20941
808.04	20830
808.182	20819
808.324	20807
808.465	20895
808.607	21005
808.749	21150
808.891	21336
809.033	21382
809.174	21207
809.316	21119
809.458	21074
809.6	21165
809.741	21207
809.883	21176
810.025	21268
810.166	21332
810.308	21317
810.45	21233
810.591	21169
810.733	21089
810.875	20899
811.016	20845
811.158	20849
811.299	21009
811.441	21135
811.582	21070
811.724	20891
811.865	20948
812.007	20918
812.148	20963
812.29	21024
812.431	20994
812.573	21233
812.714	21454
812.855	21450
812.997	21728
813.138	21561
813.279	21606
813.421	21485
813.562	21344
813.703	21203
813.845	21100
813.986	20910
814.127	20564
814.268	20533
814.41	20602
814.551	20473
814.692	20575
814.833	20442
814.974	20457
815.115	20514
815.256	20381
815.397	20362
815.539	20427
815.68	20301
815.821	20244
815.962	20210
816.103	20161
816.244	19986
816.385	19978
816.526	19917
816.666	19856
816.807	19742
816.948	19704
817.089	19860
817.23	19651
817.371	19753
817.512	19719
817.653	19658
817.793	19605
817.934	19647
818.075	19658
818.216	19715
818.356	19548
818.497	19422
818.638	19289
818.778	19365
818.919	19343
819.06	19202
819.2	19411
819.341	19556
819.481	19609
819.622	19734
819.762	19868
819.903	19791
820.043	19738
820.184	19662
820.324	19407
820.465	19632
820.605	19586
820.746	19590
820.886	19472
821.026	19556
821.167	19578
821.307	19651
821.447	19609
821.588	19499
821.728	19403
821.868	19168
822.008	19046
822.149	18958
822.289	19099
822.429	18757
822.569	18779
822.709	18703
822.849	18506
822.99	18585
823.13	18536
823.27	18471
823.41	18315
823.55	18220
823.69	18391
823.83	18369
823.97	18182
824.11	18163
824.25	18098
824.389	18060
824.529	18167
824.669	18098
824.809	18083
824.949	18060
825.089	18129
825.228	18114
825.368	18003
825.508	17859
825.648	18011
825.787	17920
825.927	17809
826.067	17878
826.206	17821
826.346	17931
826.485	17893
826.625	17912
826.765	17904
826.904	17923
827.044	17707
827.183	17547
827.323	17493
827.462	17589
827.601	17570
827.741	17509
827.88	17646
828.02	17524
828.159	17486
828.298	17600
828.437	17634
828.577	17493
828.716	17646
828.855	17501
828.994	17288
829.134	17395
829.273	17296
829.412	17212
829.551	17102
829.69	17303
829.829	17311
829.968	17372
830.107	17315
830.246	17353
830.385	17189
830.524	17284
830.663	17178
830.802	16961
830.941	17014
831.08	16953
831.219	17064
831.357	16965
831.496	17132
831.635	16938
831.774	16919
831.913	16771
832.051	16786
832.19	16713
832.329	16740
832.467	16721
832.606	16554
832.744	16603
832.883	16694
833.022	16538
833.16	16558
833.299	16744
833.437	16725
833.576	16706
833.714	16725
833.852	16702
833.991	16664
834.129	16706
834.267	16805
834.406	16660
834.544	16736
834.682	16664
834.821	16744
834.959	16828
835.097	16653
835.235	16733
835.373	16729
835.511	16706
835.65	16554
835.788	16592
835.926	16417
836.064	16519
836.202	16344
836.34	16634
836.478	16740
836.615	16569
836.753	16550
836.891	16607
837.029	16584
837.167	16565
837.305	16535
837.443	16577
837.58	16402
837.718	16508
837.856	16371
837.993	16398
838.131	16440
838.269	16360
838.406	16417
838.544	16242
838.681	16150
838.819	16166
838.956	15983
839.094	15975
839.231	16067
839.369	16166
839.506	16337
839.643	16166
839.781	16036
839.918	15968
840.055	16010
840.193	16002
840.33	15892
840.467	16006
840.604	16013
840.742	16204
840.879	15785
841.016	15865
841.153	15956
841.29	16074
841.427	16101
841.564	15994
841.701	15964
841.838	16055
841.975	15907
842.112	15922
842.249	15808
842.385	15838
842.522	15975
842.659	15713
842.796	15930
842.933	15869
843.069	15781
843.206	15732
843.343	15831
843.479	15873
843.616	15797
843.752	15679
843.889	15557
844.025	15766
844.162	15530
844.298	15587
844.435	15648
844.571	15530
844.708	15667
844.844	15698
844.98	15831
845.117	15686
845.253	15485
845.389	15477
845.525	15561
845.661	15386
845.798	15389
845.934	15359
846.07	15268
846.206	15488
846.342	15507
846.478	15302
846.614	15237
846.75	15195
846.886	15146
847.022	15195
847.158	15131
847.294	15104
847.429	15279
847.565	15226
847.701	15351
847.837	14876
847.972	14880
848.108	15077
848.244	14891
848.379	14826
848.515	14800
848.65	14693
848.786	14659
848.921	14724
849.057	14819
849.192	14823
849.328	14800
849.463	14785
849.598	14773
849.734	14689
849.869	14606
850.004	14522
850.14	14602
850.275	14495
850.41	14385
850.545	14396
850.68	14488
850.815	14412
850.95	14511
851.085	14590
851.22	14621
851.355	14488
851.49	14484
851.625	14526
851.76	14442
851.895	14431
852.03	14396
852.165	14454
852.299	14545
852.434	14583
852.569	14556
852.703	14602
852.838	14579
852.973	14739
853.107	14651
853.242	14442
853.376	14396
853.511	14320
853.645	14263
853.78	14511
853.914	14336
854.048	14370
854.183	14252
854.317	14313
854.451	14617
854.585	14355
854.72	14328
854.854	14389
854.988	14286
855.122	14290
855.256	14233
855.39	14400
855.524	14511
855.658	14374
855.792	14412
855.926	14415
856.06	14480
856.194	14454
856.327	14351
856.461	14271
856.595	14233
856.729	14332
856.862	14465
856.996	14476
857.13	14431
857.263	14415
857.397	14560
857.53	14427
857.664	14427
857.797	14412
857.931	14457
858.064	14446
858.197	14575
858.331	14370
858.464	14324
858.597	14199
858.731	14511
858.864	14366
858.997	14415
859.13	14507
859.263	14408
859.396	14526
859.529	14320
859.662	14290
859.795	14370
859.928	14366
860.061	14549
860.194	14583
860.327	14434
860.46	14362
860.592	14434
860.725	14549
860.858	14556
860.99	14339
861.123	14317
861.256	14294
861.388	14347
861.521	15005
861.653	14240
861.786	14263
861.918	14271
862.05	14271
862.183	14423
862.315	14358
862.447	14400
862.58	14332
862.712	14153
862.844	14054
862.976	14180
863.108	14149
863.24	14552
863.372	14027
863.504	14058
863.636	14145
863.768	14210
863.9	14123
864.032	14103
864.164	14012
864.296	14123
864.428	14237
864.559	14202
864.691	14328
864.823	14183
864.954	14142
865.086	14256
865.217	14195
865.349	13970
865.48	14218
865.612	14149
865.743	14362
865.875	14168
866.006	14077
866.137	14111
866.269	14142
866.4	14092
866.531	14073
866.662	14130
866.793	14096
866.924	14103
867.055	14145
867.186	14187
867.317	14100
867.448	14081
867.579	14058
867.71	14062
867.841	14096
867.972	14191
868.103	14172
868.233	14172
868.364	14126
868.495	14225
868.625	14317
868.756	14412
868.886	14259
869.017	14358
869.147	14488
869.278	14454
869.408	14412
869.539	14377
869.669	14438
869.799	14396
869.929	14518
870.06	14415
870.19	14648
870.32	14644
870.45	14815
870.58	14705
870.71	14868
870.84	14861
870.97	14640
871.1	14731
871.23	15039
871.36	15017
871.489	14868
871.619	14990
871.749	15009
871.879	15020
872.008	15131
872.138	14918
872.267	15005
872.397	14804
872.526	14834
872.656	14777
872.785	14899
872.915	15077
873.044	14979
873.173	15024
873.303	15036
873.432	15036
873.561	15097
873.69	15055
873.819	15138
873.948	15081
874.077	15058
874.206	15077
874.335	15104
874.464	15146
874.593	15260
874.722	15275
874.851	15450
874.979	15310
875.108	15416
875.237	15313
875.365	15302
875.494	15264
875.623	15458
875.751	15355
875.88	15389
876.008	15485
876.136	15591
876.265	15728
876.393	15857
876.521	15739
876.65	15884
876.778	15739
876.906	15797
877.034	15732
877.162	15789
877.29	15591
877.418	15945
877.546	15682
877.674	15774
877.802	15797
877.93	15789
878.058	15671
878.185	15629
878.313	15652
878.441	15770
878.568	15755
878.696	15743
878.824	15865
878.951	15793
879.079	15842
879.206	16120
879.333	15857
879.461	15812
879.588	15838
879.715	15945
879.842	15994
879.97	15861
880.097	15599
880.224	15584
880.351	15675
880.478	15728
880.605	15584
880.732	15622
880.859	15819
880.986	15648
881.112	15694
881.239	15526
881.366	15329
881.493	15313
881.619	15389
881.746	15370
881.872	15302
881.999	15165
882.125	15184
882.252	15264
882.378	15272
882.505	15401
882.631	15207
882.757	15055
882.883	15157
883.01	15119
883.136	14986
883.262	15036
883.388	14979
883.514	15093
883.64	15013
883.766	14910
883.892	14849
884.018	15013
884.143	15108
884.269	15146
884.395	14887
884.52	14674
884.646	14777
884.772	14701
884.897	14640
885.023	14906
885.148	14891
885.274	14986
885.399	14933
885.524	14769
885.65	14807
885.775	14724
885.9	14762
886.025	14921
886.15	14857
886.275	14693
886.4	14686
886.525	14708
886.65	14674
886.775	14731
886.9	14838
887.025	14971
887.149	14727
887.274	14594
887.399	14598
887.523	14617
887.648	14602
887.773	14514
887.897	14651
888.021	14781
888.146	14678
888.27	14686
888.395	14773
888.519	14720
888.643	14606
888.767	14678
888.891	14533
889.015	14427
889.139	14587
889.263	14480
889.387	14640
889.511	14644
889.635	14613
889.759	14355
889.883	14446
890.006	14499
890.13	14564
890.254	14434
890.377	14450
890.501	14259
890.624	14202
890.748	14374
890.871	14176
890.995	14195
891.118	14142
891.241	14244
891.364	14172
891.488	14290
891.611	14218
891.734	14298
891.857	14221
891.98	14176
892.103	14210
892.226	14187
892.349	14092
892.471	14043
892.594	14183
892.717	14107
892.839	14145
892.962	14103
893.085	14282
893.207	14123
893.33	14062
893.452	14084
893.575	14172
893.697	14123
893.819	14389
893.941	14442
894.064	14320
894.186	14153
894.308	13963
894.43	14343
894.552	14305
894.674	14336
894.796	14145
894.918	14233
895.04	14240
895.161	14301
895.283	14210
895.405	14202
895.526	14339
895.648	14313
895.769	14343
895.891	14339
896.012	14412
896.134	14301
896.255	14320
896.376	14294
896.498	14263
896.619	14309
896.74	14320
896.861	14343
896.982	14636
897.103	14849
897.224	14629
897.345	14663
897.466	14488
897.587	14629
897.708	14697
897.828	14651
897.949	14575
898.07	14560
898.19	14549
898.311	14682
898.431	14629
898.552	14663
898.672	14823
898.792	14735
898.913	14731
899.033	14693
899.153	14571
899.273	14396
899.393	14431
899.513	14629
899.633	14461
899.753	14625
899.873	14495
899.993	14602
900.113	14461
900.232	14663
900.352	14545
900.472	14495
900.591	14332
900.711	14415
900.83	14362
900.95	14488
901.069	14564
901.189	14415
901.308	14046
901.427	14008
901.546	14043
901.665	14039
901.784	14096
901.904	13856
902.023	13818
902.141	13723
902.26	13746
902.379	13753
902.498	13616
902.617	13647
902.735	13655
902.854	13677
902.973	13575
903.091	13358
903.21	13381
903.328	13274
903.446	13365
903.565	13137
903.683	13244
903.801	13145
903.919	13141
904.038	13194
904.156	13031
904.274	13118
904.392	13004
904.51	13000
904.627	12973
904.745	13015
904.863	13129
904.981	12791
905.098	12738
905.216	12787
905.334	12753
905.451	12707
905.569	12719
905.686	12722
905.803	12711
905.921	12585
906.038	12700
906.155	12650
906.272	12342
906.389	12494
906.506	12330
906.623	12410
906.74	12308
906.857	12159
906.974	12289
907.091	12475
907.208	12452
907.324	12407
907.441	12243
907.557	12030
907.674	12224
907.79	11996
907.907	12057
908.023	12117
908.139	12083
908.256	11996
908.372	12015
908.488	11996
908.604	11863
908.72	11745
908.836	11824
908.952	11859
909.068	11805
909.184	11961
909.3	11821
909.415	11828
909.531	11809
909.647	11592
909.762	11585
909.878	11543
909.993	11615
910.108	11539
910.224	11646
910.339	11585
910.454	11505
910.57	11509
910.685	11356
910.8	11707
910.915	11543
911.03	11535
911.145	11311
911.259	11299
911.374	11284
911.489	11204
911.604	11090
911.718	11067
911.833	11041
911.947	10991
912.062	10896
912.176	11075
912.291	11003
912.405	11098
912.519	11208
912.633	11174
912.748	11052
912.862	11029
912.976	10900
913.09	10797
913.204	10873
913.318	10900
913.431	11083
913.545	10866
913.659	11045
913.772	10892
913.886	10812
914	10733
914.113	10904
914.226	10961
914.34	10930
914.453	10771
914.566	10831
914.68	10748
914.793	10790
914.906	10500
915.019	10584
915.132	10432
915.245	10523
915.358	10554
915.47	10561
915.583	10561
915.696	10645
915.809	10706
915.921	10721
916.034	10489
916.146	10470
916.259	10542
916.371	10626
916.483	10527
916.595	10470
916.708	10470
916.82	10481
916.932	10462
917.044	10379
917.156	10512
917.268	10402
917.38	10341
917.491	10306
917.603	10413
917.715	10523
917.826	10382
917.938	10329
918.049	10310
918.161	10363
918.272	10474
918.384	10550
918.495	10409
918.606	10204
918.717	10181
918.828	10333
918.939	10322
919.05	10173
919.161	10261
919.272	10086
919.383	10177
919.494	10306
919.604	10504
919.715	10280
919.826	10238
919.936	10295
920.047	10352
920.157	10303
920.267	10519
920.378	10333
920.488	10310
920.598	10432
920.708	10611
920.818	10512
920.928	10428
921.038	10668
921.148	10577
921.258	10242
921.368	10166
921.477	10131
921.587	10185
921.697	9960
921.806	10139
921.916	9968
922.025	9880
922.134	9781
922.244	9812
922.353	9857
922.462	9759
922.571	9603
922.68	9591
922.789	9466
922.898	9526
923.007	9462
923.116	9606
923.224	9469
923.333	9447
923.442	9401
923.55	9450
923.659	9393
923.767	9389
923.876	9397
923.984	9488
924.092	9302
924.201	9359
924.309	9367
924.417	9428
924.525	9283
924.633	9332
924.741	10280
924.849	9116
924.956	9344
925.064	9165
925.172	9085
925.279	9192
925.387	9127
925.494	9169
925.602	9310
925.709	9279
925.816	9100
925.924	9180
926.031	9237
926.138	9188
926.245	9173
926.352	9154
926.459	9184
926.566	9279
926.673	9154
926.779	9001
926.886	9009
926.993	8918
927.099	8929
927.206	8823
927.312	8845
927.419	8895
927.525	8800
927.631	8876
927.737	8857
927.843	8754
927.95	8629
928.056	8766
928.162	8735
928.267	8807
928.373	9416
928.479	8899
928.585	8632
928.69	8811
928.796	8746
928.901	8724
929.007	8552
929.112	8716
929.218	8697
929.323	8617
929.428	8526
929.533	8708
929.638	8507
929.743	8613
929.848	8606
929.953	8541
930.058	8507
930.163	8377
930.267	8427
930.372	8427
930.477	8313
930.581	8537
930.685	8461
930.79	8358
930.894	8244
930.998	8320
931.103	8480
931.207	8206
931.311	8039
931.415	8005
931.519	7860
931.623	7814
