Data from test_V78500241_2258.txt Node
Date: Fri Mar 25 14:49:26 CST 2022
User: usil
Spectrometer: V785-0024
Trigger mode: 0
Integration Time (sec): 4.000000E-1
Scans to average: 1
Nonlinearity correction enabled: false
Boxcar width: 0
Storing dark spectrum: false
XAxis mode: Wavelengths
Number of Pixels in Spectrum: 1024
>>>>>Begin Spectral Data<<<<<
801.071	22166
801.214	22036
801.356	21907
801.499	21732
801.641	21679
801.783	21561
801.926	21606
802.068	21629
802.211	21450
802.353	21260
802.496	21173
802.638	21062
802.78	21013
802.923	20960
803.065	20754
803.208	20735
803.35	20864
803.492	20960
803.635	21043
803.777	20937
803.919	20975
804.061	21325
804.204	20982
804.346	20887
804.488	20762
804.63	20743
804.773	20769
804.915	20883
805.057	20956
805.199	20785
805.341	20792
805.483	20864
805.626	20880
805.768	20708
805.91	20705
806.052	20891
806.194	20750
806.336	20941
806.478	20819
806.62	20746
806.762	20929
806.904	20883
807.046	21241
807.188	21142
807.33	21184
807.472	21199
807.614	21089
807.756	21127
807.898	20899
808.04	20788
808.182	20906
808.324	20929
808.465	21001
808.607	21218
808.749	21199
808.891	21279
809.033	21294
809.174	21279
809.316	21321
809.458	21199
809.6	21203
809.741	21146
809.883	21374
810.025	21542
810.166	21336
810.308	21386
810.45	21222
810.591	21192
810.733	21081
810.875	20998
811.016	20914
811.158	20971
811.299	21036
811.441	21062
811.582	21058
811.724	20975
811.865	21077
812.007	20975
812.148	20960
812.29	21077
812.431	21089
812.573	21279
812.714	21443
812.855	21663
812.997	21633
813.138	21682
813.279	21663
813.421	21420
813.562	21397
813.703	21260
813.845	21146
813.986	20876
814.127	20606
814.268	20655
814.41	20522
814.551	20518
814.692	20377
814.833	20431
814.974	20339
815.115	20556
815.256	20309
815.397	20377
815.539	20332
815.68	20317
815.821	20324
815.962	20237
816.103	20115
816.244	20142
816.385	19963
816.526	20027
816.666	19932
816.807	19696
816.948	19772
817.089	19753
817.23	19723
817.371	19662
817.512	19575
817.653	19670
817.793	19601
817.934	19738
818.075	19590
818.216	19662
818.356	19624
818.497	19529
818.638	19343
818.778	19331
818.919	19365
819.06	19358
819.2	19502
819.341	19491
819.481	19537
819.622	19746
819.762	19906
819.903	19849
820.043	19635
820.184	19559
820.324	19628
820.465	19696
820.605	19556
820.746	19597
820.886	19582
821.026	19635
821.167	19681
821.307	19624
821.447	19582
821.588	19453
821.728	19343
821.868	19088
822.008	19065
822.149	19053
822.289	19057
822.429	18783
822.569	18757
822.709	18722
822.849	18547
822.99	18574
823.13	18456
823.27	18559
823.41	18296
823.55	18171
823.69	18262
823.83	18350
823.97	18205
824.11	18106
824.25	18136
824.389	18019
824.529	18228
824.669	18068
824.809	18133
824.949	18163
825.089	18186
825.228	18015
825.368	17988
825.508	17920
825.648	17897
825.787	17843
825.927	17935
826.067	17889
826.206	17798
826.346	17923
826.485	17870
826.625	17904
826.765	17984
826.904	17859
827.044	17623
827.183	17668
827.323	17497
827.462	17615
827.601	17528
827.741	17535
827.88	17539
828.02	17493
828.159	17478
828.298	17528
828.437	17627
828.577	17482
828.716	17767
828.855	17573
828.994	17318
829.134	17280
829.273	17436
829.412	17216
829.551	17296
829.69	17307
829.829	17353
829.968	17410
830.107	17421
830.246	17368
830.385	17155
830.524	17254
830.663	17166
830.802	17029
830.941	16919
831.08	16915
831.219	17018
831.357	17067
831.496	17143
831.635	16927
831.774	16866
831.913	16725
832.051	16668
832.19	16702
832.329	16729
832.467	16535
832.606	16565
832.744	16527
832.883	16542
833.022	16508
833.16	16569
833.299	16603
833.437	16721
833.576	16622
833.714	16592
833.852	16687
833.991	16698
834.129	16580
834.267	16679
834.406	16691
834.544	16656
834.682	16622
834.821	16630
834.959	16824
835.097	16523
835.235	16774
835.373	16630
835.511	16580
835.65	16489
835.788	16440
835.926	16398
836.064	16295
836.202	16436
836.34	16596
836.478	16618
836.615	16523
836.753	16653
836.891	16592
837.029	16603
837.167	16542
837.305	16409
837.443	16432
837.58	16417
837.718	16466
837.856	16382
837.993	16485
838.131	16295
838.269	16246
838.406	16284
838.544	16287
838.681	16162
838.819	16025
838.956	16006
839.094	15964
839.231	15968
839.369	16025
839.506	16375
839.643	16207
839.781	15934
839.918	16006
840.055	15937
840.193	15915
840.33	15994
840.467	15804
840.604	16093
840.742	16139
840.879	15797
841.016	15884
841.153	15861
841.29	16097
841.427	15975
841.564	16025
841.701	15945
841.838	15846
841.975	15857
842.112	15774
842.249	15781
842.385	15644
842.522	15827
842.659	15736
842.796	15656
842.933	15618
843.069	15629
843.206	15587
843.343	15732
843.479	15717
843.616	15739
843.752	15500
843.889	15450
844.025	15599
844.162	15511
844.298	15629
844.435	15519
844.571	15473
844.708	15519
844.844	15652
844.98	15618
845.117	15488
845.253	15481
845.389	15340
845.525	15458
845.661	15393
845.798	15332
845.934	15401
846.07	15264
846.206	15401
846.342	15359
846.478	15279
846.614	15135
846.75	15017
846.886	14956
847.022	15085
847.158	14990
847.294	15066
847.429	15108
847.565	15047
847.701	15218
847.837	14777
847.972	14788
848.108	14952
848.244	14758
848.379	14746
848.515	14667
848.65	14697
848.786	14644
848.921	14670
849.057	14731
849.192	14701
849.328	14648
849.463	14689
849.598	14602
849.734	14552
849.869	14461
850.004	14457
850.14	14514
850.275	14450
850.41	14275
850.545	14339
850.68	14355
850.815	14389
850.95	14290
851.085	14602
851.22	14617
851.355	14454
851.49	14389
851.625	14381
851.76	14423
851.895	14221
852.03	14317
852.165	14400
852.299	14522
852.434	14526
852.569	14457
852.703	14434
852.838	14545
852.973	14530
853.107	14518
853.242	14415
853.376	14332
853.511	14073
853.645	14271
853.78	14511
853.914	14320
854.048	14248
854.183	14267
854.317	14362
854.451	14457
854.585	14366
854.72	14298
854.854	14381
854.988	14233
855.122	14317
855.256	14153
855.39	14347
855.524	14415
855.658	14431
855.792	14419
855.926	14317
856.06	14358
856.194	14484
856.327	14450
856.461	14210
856.595	14233
856.729	14225
856.862	14343
856.996	14412
857.13	14408
857.263	14370
857.397	14446
857.53	14259
857.664	14465
857.797	14431
857.931	14480
858.064	14343
858.197	14389
858.331	14339
858.464	14240
858.597	14252
858.731	14355
858.864	14328
858.997	14271
859.13	14313
859.263	14366
859.396	14473
859.529	14301
859.662	14240
859.795	14336
859.928	14404
860.061	14499
860.194	14446
860.327	14358
860.46	14282
860.592	14473
860.725	14446
860.858	14480
860.99	14400
861.123	14221
861.256	14309
861.388	14415
861.521	14895
861.653	14183
861.786	14092
861.918	14142
862.05	14233
862.183	14252
862.315	14294
862.447	14252
862.58	14271
862.712	14069
862.844	14073
862.976	14138
863.108	14119
863.24	14484
863.372	14020
863.504	14142
863.636	14081
863.768	14096
863.9	14115
864.032	14054
864.164	14073
864.296	14100
864.428	14206
864.559	14176
864.691	14244
864.823	14084
864.954	14149
865.086	14191
865.217	14111
865.349	13955
865.48	14100
865.612	14096
865.743	14218
865.875	14065
866.006	14142
866.137	14145
866.269	14130
866.4	14096
866.531	14012
866.662	14046
866.793	13997
866.924	14073
867.055	14138
867.186	14149
867.317	13989
867.448	14020
867.579	14035
867.71	13932
867.841	13940
867.972	14012
868.103	14111
868.233	14035
868.364	14092
868.495	14142
868.625	14263
868.756	14347
868.886	14248
869.017	14320
869.147	14317
869.278	14404
869.408	14408
869.539	14301
869.669	14408
869.799	14396
869.929	14530
870.06	14400
870.19	14731
870.32	14762
870.45	14746
870.58	14689
870.71	14758
870.84	14796
870.97	14674
871.1	14663
871.23	14834
871.36	14918
871.489	14800
871.619	14887
871.749	14960
871.879	14994
872.008	15047
872.138	14861
872.267	14941
872.397	14746
872.526	14804
872.656	14796
872.785	14705
872.915	15028
873.044	15127
873.173	14982
873.303	14948
873.432	15051
873.561	15093
873.69	15039
873.819	14925
873.948	15081
874.077	14971
874.206	15028
874.335	15005
874.464	15055
874.593	15279
874.722	15226
874.851	15329
874.979	15272
875.108	15363
875.237	15332
875.365	15081
875.494	15165
875.623	15405
875.751	15249
875.88	15310
876.008	15477
876.136	15568
876.265	15667
876.393	15873
876.521	15789
876.65	15728
876.778	15762
876.906	15713
877.034	15644
877.162	15648
877.29	15591
877.418	15751
877.546	15663
877.674	15690
877.802	15808
877.93	15724
878.058	15656
878.185	15561
878.313	15724
878.441	15728
878.568	15523
878.696	15622
878.824	15808
878.951	15682
879.079	15903
879.206	15953
879.333	15823
879.461	15713
879.588	15873
879.715	15831
879.842	15934
879.97	15823
880.097	15542
880.224	15469
880.351	15564
880.478	15576
880.605	15500
880.732	15523
880.859	15743
880.986	15481
881.112	15526
881.239	15450
881.366	15291
881.493	15188
881.619	15108
881.746	15241
881.872	15184
881.999	15135
882.125	15154
882.252	15275
882.378	15237
882.505	15393
882.631	15135
882.757	15028
882.883	15074
883.01	15009
883.136	14937
883.262	14762
883.388	14864
883.514	15169
883.64	15005
883.766	15009
883.892	14899
884.018	14800
884.143	15062
884.269	15127
884.395	14807
884.52	14670
884.646	14720
884.772	14651
884.897	14598
885.023	14746
885.148	14769
885.274	14804
885.399	14849
885.524	14594
885.65	14746
885.775	14735
885.9	14815
886.025	14906
886.15	14708
886.275	14697
886.4	14670
886.525	14625
886.65	14705
886.775	14606
886.9	14823
887.025	14956
887.149	14781
887.274	14594
887.399	14583
887.523	14469
887.648	14530
887.773	14454
887.897	14682
888.021	14610
888.146	14552
888.27	14655
888.395	14625
888.519	14674
888.643	14579
888.767	14655
888.891	14514
889.015	14484
889.139	14381
889.263	14355
889.387	14514
889.511	14552
889.635	14549
889.759	14457
889.883	14362
890.006	14518
890.13	14552
890.254	14412
890.377	14454
890.501	14259
890.624	14248
890.748	14374
890.871	14221
890.995	13997
891.118	14043
891.241	14088
891.364	14172
891.488	14225
891.611	14126
891.734	14187
891.857	14286
891.98	14142
892.103	14145
892.226	14126
892.349	14062
892.471	13993
892.594	14111
892.717	14096
892.839	14161
892.962	14103
893.085	14237
893.207	14180
893.33	13928
893.452	14107
893.575	14176
893.697	14123
893.819	14233
893.941	14328
894.064	14214
894.186	14115
894.308	14100
894.43	14229
894.552	14351
894.674	14298
894.796	14153
894.918	14191
895.04	14096
895.161	14225
895.283	14286
895.405	14195
895.526	14153
895.648	14225
895.769	14218
895.891	14301
896.012	14454
896.134	14278
896.255	14256
896.376	14286
896.498	14305
896.619	14298
896.74	14320
896.861	14381
896.982	14651
897.103	14773
897.224	14625
897.345	14541
897.466	14560
897.587	14575
897.708	14644
897.828	14693
897.949	14549
898.07	14457
898.19	14533
898.311	14731
898.431	14610
898.552	14689
898.672	14743
898.792	14819
898.913	14617
899.033	14594
899.153	14602
899.273	14324
899.393	14385
899.513	14575
899.633	14480
899.753	14484
899.873	14476
899.993	14583
900.113	14457
900.232	14507
900.352	14381
900.472	14431
900.591	14362
900.711	14298
900.83	14362
900.95	14583
901.069	14507
901.189	14400
901.308	14126
901.427	14065
901.546	14001
901.665	14100
901.784	14107
901.904	13818
902.023	13791
902.141	13677
902.26	13632
902.379	13662
902.498	13632
902.617	13548
902.735	13647
902.854	13632
902.973	13483
903.091	13339
903.21	13324
903.328	13308
903.446	13240
903.565	13129
903.683	13202
903.801	13088
903.919	13118
904.038	13168
904.156	12947
904.274	13103
904.392	12981
904.51	12981
904.627	12977
904.745	13034
904.863	13118
904.981	12814
905.098	12787
905.216	12715
905.334	12703
905.451	12642
905.569	12654
905.686	12673
905.803	12722
905.921	12521
906.038	12612
906.155	12547
906.272	12365
906.389	12486
906.506	12296
906.623	12213
906.74	12235
906.857	12175
906.974	12171
907.091	12338
907.208	12403
907.324	12266
907.441	12194
907.557	12022
907.674	12041
907.79	11977
907.907	11965
908.023	12003
908.139	12022
908.256	11916
908.372	11950
908.488	11912
908.604	11893
908.72	11779
908.836	11729
908.952	11714
909.068	11813
909.184	11965
909.3	11688
909.415	11878
909.531	11802
909.647	11596
909.762	11558
909.878	11497
909.993	11581
910.108	11524
910.224	11539
910.339	11551
910.454	11444
910.57	11383
910.685	11303
910.8	11558
910.915	11570
911.03	11429
911.145	11337
911.259	11231
911.374	11227
911.489	11147
911.604	11170
911.718	11025
911.833	11045
911.947	10908
912.062	10774
912.176	10991
912.291	11060
912.405	11014
912.519	11235
912.633	11227
912.748	11052
912.862	11029
912.976	10946
913.09	10744
913.204	10881
913.318	10877
913.431	10923
913.545	10953
913.659	11022
913.772	10824
913.886	10812
914	10774
914.113	10869
914.226	10965
914.34	10892
914.453	10797
914.566	10854
914.68	10706
914.793	10752
914.906	10493
915.019	10455
915.132	10455
915.245	10451
915.358	10538
915.47	10611
915.583	10535
915.696	10527
915.809	10656
915.921	10561
916.034	10508
916.146	10504
916.259	10413
916.371	10523
916.483	10462
916.595	10455
916.708	10443
916.82	10409
916.932	10421
917.044	10478
917.156	10459
917.268	10291
917.38	10344
917.491	10325
917.603	10329
917.715	10405
917.826	10436
917.938	10303
918.049	10215
918.161	10394
918.272	10440
918.384	10417
918.495	10265
918.606	10280
918.717	10177
918.828	10299
918.939	10219
919.05	10112
919.161	10204
919.272	10013
919.383	10109
919.494	10272
919.604	10356
919.715	10272
919.826	10192
919.936	10173
920.047	10291
920.157	10249
920.267	10432
920.378	10185
920.488	10196
920.598	10466
920.708	10573
920.818	10405
920.928	10443
921.038	10527
921.148	10500
921.258	10249
921.368	10181
921.477	10063
921.587	10150
921.697	9873
921.806	10032
921.916	9937
922.025	9838
922.134	9751
922.244	9679
922.353	9846
922.462	9747
922.571	9667
922.68	9477
922.789	9412
922.898	9420
923.007	9405
923.116	9435
923.224	9466
923.333	9492
923.442	9450
923.55	9393
923.659	9424
923.767	9428
923.876	9363
923.984	9393
924.092	9291
924.201	9370
924.309	9256
924.417	9458
924.525	9355
924.633	9306
924.741	10238
924.849	9161
924.956	9291
925.064	9146
925.172	9070
925.279	9081
925.387	9214
925.494	9108
925.602	9256
925.709	9154
925.816	9066
925.924	9093
926.031	9287
926.138	9112
926.245	9097
926.352	9001
926.459	9165
926.566	9241
926.673	9104
926.779	9024
926.886	8994
926.993	8880
927.099	8800
927.206	8838
927.312	8750
927.419	8861
927.525	8838
927.631	8864
927.737	8762
927.843	8758
927.95	8667
928.056	8724
928.162	8750
928.267	8788
928.373	9370
928.479	8834
928.585	8663
928.69	8750
928.796	8788
928.901	8663
929.007	8583
929.112	8716
929.218	8602
929.323	8518
929.428	8602
929.533	8720
929.638	8507
929.743	8556
929.848	8606
929.953	8545
930.058	8488
930.163	8347
930.267	8298
930.372	8488
930.477	8355
930.581	8682
930.685	8415
930.79	8332
930.894	8229
930.998	8237
931.103	8427
931.207	8092
931.311	8024
931.415	7925
931.519	7814
931.623	7780
