Data from test_V78500241_981.txt Node
Date: Fri Mar 25 14:40:32 CST 2022
User: usil
Spectrometer: V785-0024
Trigger mode: 0
Integration Time (sec): 4.000000E-1
Scans to average: 1
Nonlinearity correction enabled: false
Boxcar width: 0
Storing dark spectrum: false
XAxis mode: Wavelengths
Number of Pixels in Spectrum: 1024
>>>>>Begin Spectral Data<<<<<
801.071	23292
801.214	23223
801.356	22984
801.499	22774
801.641	22615
801.783	22630
801.926	22630
802.068	22603
802.211	22440
802.353	22424
802.496	22082
802.638	22131
802.78	21987
802.923	22013
803.065	22074
803.208	21953
803.35	21972
803.492	22086
803.635	22017
803.777	22051
803.919	22177
804.061	22398
804.204	22048
804.346	21937
804.488	21850
804.63	21972
804.773	21774
804.915	21850
805.057	21934
805.199	21869
805.341	22067
805.483	22204
805.626	22044
805.768	21850
805.91	21888
806.052	21922
806.194	21964
806.336	22204
806.478	22013
806.62	22090
806.762	22063
806.904	22135
807.046	22519
807.188	22421
807.33	22588
807.472	22584
807.614	22497
807.756	22554
807.898	22592
808.04	22622
808.182	22618
808.324	22828
808.465	23151
808.607	23520
808.749	23821
808.891	23984
809.033	24015
809.174	23756
809.316	23520
809.458	23398
809.6	23094
809.741	22968
809.883	22946
810.025	22919
810.166	22843
810.308	22759
810.45	22649
810.591	22660
810.733	22481
810.875	22424
811.016	22390
811.158	22158
811.299	22352
811.441	22299
811.582	22295
811.724	22158
811.865	22177
812.007	22112
812.148	22070
812.29	22223
812.431	22375
812.573	22512
812.714	22656
812.855	22592
812.997	22790
813.138	22949
813.279	22835
813.421	22755
813.562	22637
813.703	22478
813.845	22318
813.986	22090
814.127	21899
814.268	21831
814.41	21751
814.551	21831
814.692	21739
814.833	21629
814.974	21713
815.115	21739
815.256	21644
815.397	21568
815.539	21526
815.68	21401
815.821	21389
815.962	21424
816.103	21424
816.244	21256
816.385	21203
816.526	21116
816.666	20967
816.807	20819
816.948	20967
817.089	20933
817.23	20914
817.371	20891
817.512	20842
817.653	20727
817.793	20910
817.934	20868
818.075	20857
818.216	20853
818.356	20750
818.497	20678
818.638	20530
818.778	20571
818.919	20533
819.06	20594
819.2	20621
819.341	20807
819.481	20594
819.622	20853
819.762	21036
819.903	21009
820.043	20834
820.184	20804
820.324	20861
820.465	20895
820.605	20758
820.746	20720
820.886	20720
821.026	20712
821.167	20811
821.307	20868
821.447	20659
821.588	20613
821.728	20457
821.868	20320
822.008	20259
822.149	20233
822.289	20054
822.429	19860
822.569	19822
822.709	19818
822.849	19712
822.99	19662
823.13	19586
823.27	19518
823.41	19571
823.55	19362
823.69	19495
823.83	19392
823.97	19468
824.11	19228
824.25	19247
824.389	19320
824.529	19293
824.669	19202
824.809	19392
824.949	19449
825.089	19487
825.228	19335
825.368	18989
825.508	19095
825.648	19084
825.787	19057
825.927	19084
826.067	19027
826.206	18958
826.346	19137
826.485	19152
826.625	18996
826.765	19080
826.904	19065
827.044	18772
827.183	18798
827.323	18722
827.462	18863
827.601	18764
827.741	18631
827.88	18688
828.02	18585
828.159	18772
828.298	18745
828.437	18852
828.577	18673
828.716	18821
828.855	18654
828.994	18506
829.134	18399
829.273	18483
829.412	18452
829.551	18407
829.69	18399
829.829	18509
829.968	18513
830.107	18448
830.246	18517
830.385	18365
830.524	18342
830.663	18308
830.802	18083
830.941	18060
831.08	18007
831.219	18125
831.357	18136
831.496	18205
831.635	18019
831.774	18019
831.913	18068
832.051	17775
832.19	17813
832.329	17961
832.467	17851
832.606	17741
832.744	17695
832.883	17805
833.022	17786
833.16	17832
833.299	17710
833.437	17798
833.576	17828
833.714	17980
833.852	17927
833.991	17950
834.129	18011
834.267	17977
834.406	17821
834.544	17908
834.682	17805
834.821	17817
834.959	17908
835.097	17824
835.235	17802
835.373	17771
835.511	17817
835.65	17699
835.788	17668
835.926	17486
836.064	17391
836.202	17554
836.34	17718
836.478	17737
836.615	17611
836.753	17714
836.891	17805
837.029	17798
837.167	17642
837.305	17623
837.443	17547
837.58	17444
837.718	17543
837.856	17570
837.993	17509
838.131	17589
838.269	17429
838.406	17532
838.544	17505
838.681	17250
838.819	17151
838.956	17105
839.094	16999
839.231	17018
839.369	17284
839.506	17383
839.643	17311
839.781	17094
839.918	17079
840.055	17022
840.193	17071
840.33	17025
840.467	17067
840.604	17018
840.742	17334
840.879	16900
841.016	17045
841.153	16919
841.29	17121
841.427	17079
841.564	17037
841.701	17045
841.838	16957
841.975	16839
842.112	16889
842.249	16862
842.385	16816
842.522	16991
842.659	16850
842.796	16759
842.933	16828
843.069	16786
843.206	16645
843.343	16782
843.479	16759
843.616	16835
843.752	16561
843.889	16607
844.025	16733
844.162	16630
844.298	16649
844.435	16611
844.571	16573
844.708	16755
844.844	16774
844.98	16900
845.117	16816
845.253	16744
845.389	16805
845.525	17018
845.661	17372
845.798	17703
845.934	18011
846.07	18213
846.206	18205
846.342	18076
846.478	17566
846.614	16938
846.75	16565
846.886	16352
847.022	16394
847.158	16382
847.294	16215
847.429	16226
847.565	16147
847.701	16367
847.837	15884
847.972	15895
848.108	15915
848.244	15903
848.379	15816
848.515	15793
848.65	15762
848.786	15701
848.921	15561
849.057	15774
849.192	15888
849.328	15732
849.463	15709
849.598	15770
849.734	15587
849.869	15591
850.004	15530
850.14	15587
850.275	15515
850.41	15443
850.545	15431
850.68	15370
850.815	15473
850.95	15428
851.085	15610
851.22	15610
851.355	15538
851.49	15355
851.625	15450
851.76	15439
851.895	15348
852.03	15408
852.165	15523
852.299	15587
852.434	15564
852.569	15584
852.703	15511
852.838	15679
852.973	15633
853.107	15568
853.242	15485
853.376	15393
853.511	15218
853.645	15321
853.78	15473
853.914	15359
854.048	15264
854.183	15374
854.317	15351
854.451	15412
854.585	15420
854.72	15348
854.854	15477
854.988	15336
855.122	15408
855.256	15165
855.39	15359
855.524	15382
855.658	15329
855.792	15412
855.926	15329
856.06	15420
856.194	15405
856.327	15336
856.461	15272
856.595	15367
856.729	15302
856.862	15386
856.996	15382
857.13	15439
857.263	15416
857.397	15519
857.53	15317
857.664	15542
857.797	15439
857.931	15481
858.064	15332
858.197	15412
858.331	15321
858.464	15306
858.597	15279
858.731	15302
858.864	15401
858.997	15332
859.13	15386
859.263	15329
859.396	15466
859.529	15363
859.662	15298
859.795	15302
859.928	15393
860.061	15561
860.194	15534
860.327	15458
860.46	15241
860.592	15416
860.725	15496
860.858	15443
860.99	15340
861.123	15176
861.256	15317
861.388	15233
861.521	15922
861.653	15214
861.786	15131
861.918	15142
862.05	15233
862.183	15313
862.315	15256
862.447	15405
862.58	15199
862.712	15051
862.844	15123
862.976	15161
863.108	15123
863.24	15610
863.372	15032
863.504	15047
863.636	15081
863.768	15100
863.9	15017
864.032	15028
864.164	14929
864.296	15074
864.428	15294
864.559	15119
864.691	15184
864.823	15135
864.954	15070
865.086	15097
865.217	15116
865.349	15020
865.48	15100
865.612	15093
865.743	15146
865.875	15081
866.006	15047
866.137	15070
866.269	15077
866.4	15036
866.531	15005
866.662	14948
866.793	15074
866.924	15028
867.055	14982
867.186	14944
867.317	15017
867.448	14990
867.579	15047
867.71	15001
867.841	14952
867.972	15009
868.103	14952
868.233	15017
868.364	15043
868.495	15062
868.625	15135
868.756	15526
868.886	15241
869.017	15264
869.147	15397
869.278	15344
869.408	15329
869.539	15272
869.669	15405
869.799	15272
869.929	15386
870.06	15382
870.19	15580
870.32	15633
870.45	15622
870.58	15656
870.71	15808
870.84	15846
870.97	15644
871.1	15705
871.23	15842
871.36	15941
871.489	15793
871.619	15861
871.749	15930
871.879	15941
872.008	15911
872.138	15911
872.267	15800
872.397	15774
872.526	15682
872.656	15770
872.785	15812
872.915	15968
873.044	15987
873.173	15869
873.303	15983
873.432	15994
873.561	16067
873.69	15941
873.819	15991
873.948	15994
874.077	15983
874.206	15937
874.335	15964
874.464	15987
874.593	16230
874.722	16238
874.851	16284
874.979	16329
875.108	16341
875.237	16287
875.365	16162
875.494	16333
875.623	16367
875.751	16249
875.88	16306
876.008	16386
876.136	16504
876.265	16698
876.393	16847
876.521	16740
876.65	16831
876.778	16630
876.906	16721
877.034	16637
877.162	16679
877.29	16664
877.418	16660
877.546	16759
877.674	16782
877.802	16660
877.93	16877
878.058	16691
878.185	16733
878.313	16812
878.441	16820
878.568	16675
878.696	16869
878.824	16946
878.951	17143
879.079	17292
879.206	17573
879.333	17543
879.461	17604
879.588	17726
879.715	17775
879.842	17893
879.97	17474
880.097	17079
880.224	16968
880.351	16831
880.478	16873
880.605	16793
880.732	16843
880.859	17071
880.986	16809
881.112	16725
881.239	16554
881.366	16554
881.493	16447
881.619	16390
881.746	16516
881.872	16390
881.999	16344
882.125	16253
882.252	16421
882.378	16413
882.505	16607
882.631	16348
882.757	16242
882.883	16234
883.01	16173
883.136	16234
883.262	16135
883.388	16025
883.514	16234
883.64	16276
883.766	16219
883.892	16116
884.018	16044
884.143	16154
884.269	16325
884.395	15911
884.52	15937
884.646	15930
884.772	15812
884.897	15846
885.023	15941
885.148	16002
885.274	16082
885.399	15918
885.524	15941
885.65	15903
885.775	15888
885.9	15892
886.025	15979
886.15	15956
886.275	15751
886.4	15823
886.525	15812
886.65	15781
886.775	15747
886.9	15899
887.025	16032
887.149	15861
887.274	15671
887.399	15618
887.523	15622
887.648	15614
887.773	15545
887.897	15709
888.021	15618
888.146	15637
888.27	15671
888.395	15751
888.519	15698
888.643	15675
888.767	15637
888.891	15488
889.015	15336
889.139	15439
889.263	15382
889.387	15469
889.511	15732
889.635	15606
889.759	15473
889.883	15378
890.006	15393
890.13	15523
890.254	15283
890.377	15302
890.501	15264
890.624	15233
890.748	15340
890.871	15085
890.995	15066
891.118	14956
891.241	15062
891.364	15100
891.488	15233
891.611	15108
891.734	15135
891.857	15203
891.98	14971
892.103	15062
892.226	15154
892.349	15055
892.471	14982
892.594	14960
892.717	15100
892.839	15043
892.962	15097
893.085	15123
893.207	15009
893.33	14952
893.452	14998
893.575	15195
893.697	15070
893.819	15173
893.941	15252
894.064	15119
894.186	15017
894.308	14990
894.43	15119
894.552	15260
894.674	15127
894.796	15093
894.918	15085
895.04	14944
895.161	15135
895.283	15161
895.405	14990
895.526	15100
895.648	15070
895.769	15116
895.891	15097
896.012	15154
896.134	15218
896.255	15233
896.376	15138
896.498	15131
896.619	15157
896.74	15192
896.861	15310
896.982	15431
897.103	15637
897.224	15450
897.345	15275
897.466	15393
897.587	15447
897.708	15633
897.828	15511
897.949	15481
898.07	15237
898.19	15473
898.311	15538
898.431	15477
898.552	15515
898.672	15557
898.792	15603
898.913	15511
899.033	15507
899.153	15351
899.273	15291
899.393	15329
899.513	15332
899.633	15355
899.753	15412
899.873	15222
899.993	15428
900.113	15431
900.232	15325
900.352	15272
900.472	15283
900.591	15188
900.711	15325
900.83	15070
900.95	15252
901.069	15439
901.189	15104
901.308	15051
901.427	14876
901.546	14804
901.665	14880
901.784	14906
901.904	14845
902.023	14762
902.141	14469
902.26	14480
902.379	14598
902.498	14419
902.617	14377
902.735	14404
902.854	14400
902.973	14358
903.091	14035
903.21	14096
903.328	14039
903.446	14092
903.565	13902
903.683	14001
903.801	13799
903.919	13940
904.038	13944
904.156	13753
904.274	13860
904.392	13727
904.51	13662
904.627	13696
904.745	13856
904.863	13833
904.981	13616
905.098	13373
905.216	13495
905.334	13460
905.451	13400
905.569	13487
905.686	13457
905.803	13476
905.921	13285
906.038	13343
906.155	13221
906.272	13251
906.389	13095
906.506	13000
906.623	12966
906.74	12848
906.857	12909
906.974	12928
907.091	12939
907.208	13084
907.324	12973
907.441	12966
907.557	12764
907.674	12741
907.79	12707
907.907	12703
908.023	12707
908.139	12719
908.256	12616
908.372	12582
908.488	12635
908.604	12593
908.72	12506
908.836	12456
908.952	12391
909.068	12467
909.184	12566
909.3	12433
909.415	12544
909.531	12498
909.647	12216
909.762	12171
909.878	12270
909.993	12216
910.108	12220
910.224	12232
910.339	12308
910.454	12117
910.57	12038
910.685	12003
910.8	12258
910.915	12300
911.03	12079
911.145	11961
911.259	11882
911.374	11927
911.489	11908
911.604	11767
911.718	11707
911.833	11786
911.947	11581
912.062	11524
912.176	11703
912.291	11733
912.405	11703
912.519	11882
912.633	11923
912.748	11756
912.862	11649
912.976	11570
913.09	11512
913.204	11512
913.318	11608
913.431	11634
913.545	11596
913.659	11737
913.772	11608
913.886	11383
914	11436
914.113	11596
914.226	11589
914.34	11474
914.453	11341
914.566	11474
914.68	11425
914.793	11337
914.906	11258
915.019	11189
915.132	11090
915.245	11189
915.358	11265
915.47	11136
915.583	11208
915.696	11265
915.809	11299
915.921	11254
916.034	11105
916.146	11109
916.259	11098
916.371	11231
916.483	11189
916.595	11075
916.708	11140
916.82	11090
916.932	11067
917.044	11178
917.156	10995
917.268	10949
917.38	10938
917.491	11045
917.603	10965
917.715	11094
917.826	11098
917.938	11006
918.049	10869
918.161	10915
918.272	11140
918.384	11113
918.495	10968
918.606	10869
918.717	10759
918.828	10812
918.939	10824
919.05	10755
919.161	10801
919.272	10645
919.383	10698
919.494	10908
919.604	11197
919.715	10831
919.826	10786
919.936	10824
920.047	10911
920.157	10873
920.267	11045
920.378	10927
920.488	10812
920.598	11136
920.708	11178
920.818	10942
920.928	11033
921.038	11136
921.148	11128
921.258	10877
921.368	10828
921.477	10740
921.587	10729
921.697	10580
921.806	10714
921.916	10512
922.025	10382
922.134	10329
922.244	10379
922.353	10382
922.462	10341
922.571	10162
922.68	10071
922.789	10051
922.898	10128
923.007	10071
923.116	10128
923.224	10021
923.333	10010
923.442	9972
923.55	9968
923.659	9915
923.767	10013
923.876	9941
923.984	10006
924.092	9804
924.201	9876
924.309	9899
924.417	9911
924.525	9857
924.633	9918
924.741	10828
924.849	9652
924.956	9812
925.064	9728
925.172	9622
925.279	9641
925.387	9705
925.494	9728
925.602	9835
925.709	9831
925.816	9622
925.924	9698
926.031	9762
926.138	9705
926.245	9759
926.352	9603
926.459	9720
926.566	9698
926.673	9580
926.779	9511
926.886	9523
926.993	9435
927.099	9401
927.206	9321
927.312	9275
927.419	9496
927.525	9382
927.631	9386
927.737	9279
927.843	9264
927.95	9195
928.056	9241
928.162	9302
928.267	9363
928.373	9827
928.479	9336
928.585	9116
928.69	9325
928.796	9336
928.901	9165
929.007	9005
929.112	9176
929.218	9180
929.323	9180
929.428	9055
929.533	9222
929.638	9108
929.743	9058
929.848	9142
929.953	9028
930.058	9009
930.163	8781
930.267	8872
930.372	8956
930.477	8823
930.581	9047
930.685	8937
930.79	8777
930.894	8792
930.998	8819
931.103	8929
931.207	8518
931.311	8434
931.415	8484
931.519	8256
931.623	8294
