Data from test_V78500241_130.txt Node
Date: Fri Mar 25 14:34:37 CST 2022
User: usil
Spectrometer: V785-0024
Trigger mode: 0
Integration Time (sec): 4.000000E-1
Scans to average: 1
Nonlinearity correction enabled: false
Boxcar width: 0
Storing dark spectrum: false
XAxis mode: Wavelengths
Number of Pixels in Spectrum: 1024
>>>>>Begin Spectral Data<<<<<
801.071	29935
801.214	29714
801.356	29570
801.499	29551
801.641	29410
801.783	29105
801.926	29444
802.068	29178
802.211	29223
802.353	29098
802.496	29044
802.638	28923
802.78	28854
802.923	28896
803.065	28809
803.208	28873
803.35	28877
803.492	29151
803.635	29185
803.777	29113
803.919	29041
804.061	29425
804.204	29185
804.346	29159
804.488	29143
804.63	29212
804.773	29124
804.915	29368
805.057	29406
805.199	29269
805.341	29482
805.483	29611
805.626	29707
805.768	29668
805.91	29764
806.052	29874
806.194	29809
806.336	30372
806.478	30144
806.62	30186
806.762	30441
806.904	30897
807.046	31247
807.188	31556
807.33	31822
807.472	32324
807.614	32655
807.756	33557
807.898	34253
808.04	35269
808.182	36783
808.324	38689
808.465	40873
808.607	43114
808.749	45287
808.891	46664
809.033	46634
809.174	45367
809.316	43327
809.458	40892
809.6	38290
809.741	36372
809.883	34778
810.025	33884
810.166	33135
810.308	32537
810.45	32020
810.591	31563
810.733	31384
810.875	30894
811.016	30802
811.158	30407
811.299	30498
811.441	30574
811.582	30315
811.724	30136
811.865	29950
812.007	30011
812.148	29878
812.29	29988
812.431	29992
812.573	30152
812.714	30155
812.855	30289
812.997	30228
813.138	30380
813.279	30384
813.421	30121
813.562	29973
813.703	30060
813.845	29760
813.986	29547
814.127	29227
814.268	28972
814.41	29094
814.551	29010
814.692	29083
814.833	28854
814.974	28949
815.115	28850
815.256	28816
815.397	28752
815.539	28649
815.68	28702
815.821	28512
815.962	28618
816.103	28508
816.244	28318
816.385	28394
816.526	28303
816.666	28154
816.807	27728
816.948	27960
817.089	27907
817.23	27907
817.371	27835
817.512	27835
817.653	27770
817.793	27694
817.934	27759
818.075	27914
818.216	27751
818.356	27747
818.497	27610
818.638	27443
818.778	27450
818.919	27481
819.06	27485
819.2	27667
819.341	27622
819.481	27751
819.622	27819
819.762	27972
819.903	27983
820.043	27812
820.184	27641
820.324	27717
820.465	27671
820.605	27679
820.746	27652
820.886	27458
821.026	27606
821.167	27534
821.307	27637
821.447	27454
821.588	27431
821.728	27340
821.868	26937
822.008	26895
822.149	26956
822.289	27005
822.429	26632
822.569	26644
822.709	26587
822.849	26149
822.99	26480
823.13	26187
823.27	26278
823.41	26153
823.55	25932
823.69	26202
823.83	25993
823.97	26016
824.11	25944
824.25	25830
824.389	25894
824.529	25849
824.669	25982
824.809	25966
824.949	25974
825.089	26020
825.228	25963
825.368	25734
825.508	25704
825.648	25780
825.787	25685
825.927	25582
826.067	25712
826.206	25681
826.346	25871
826.485	25712
826.625	25643
826.765	25890
826.904	25696
827.044	25491
827.183	25434
827.323	25301
827.462	25445
827.601	25346
827.741	25301
827.88	25324
828.02	25194
828.159	25403
828.298	25244
828.437	25392
828.577	25327
828.716	25316
828.855	25194
828.994	25103
829.134	25015
829.273	25095
829.412	24973
829.551	24981
829.69	24973
829.829	24928
829.968	25061
830.107	25034
830.246	24932
830.385	24894
830.524	24901
830.663	24677
830.802	24547
830.941	24604
831.08	24601
831.219	24620
831.357	24544
831.496	24745
831.635	24532
831.774	24494
831.913	24536
832.051	24467
832.19	24327
832.329	24346
832.467	24266
832.606	24285
832.744	24315
832.883	24323
833.022	24353
833.16	24475
833.299	24513
833.437	24646
833.576	24734
833.714	24848
833.852	24962
833.991	25091
834.129	25145
834.267	25183
834.406	25012
834.544	24939
834.682	24814
834.821	24867
834.959	25023
835.097	24555
835.235	24681
835.373	24620
835.511	24410
835.65	24300
835.788	24228
835.926	24026
836.064	23885
836.202	23961
836.34	24064
836.478	24125
836.615	23992
836.753	23920
836.891	24148
837.029	24083
837.167	23855
837.305	23847
837.443	23824
837.58	23809
837.718	23748
837.856	23950
837.993	23699
838.131	23805
838.269	23714
838.406	23646
838.544	23585
838.681	23368
838.819	23429
838.956	23185
839.094	23220
839.231	23227
839.369	23231
839.506	23535
839.643	23372
839.781	23124
839.918	23124
840.055	23174
840.193	23086
840.33	22942
840.467	23086
840.604	23140
840.742	23341
840.879	22987
841.016	23048
841.153	22908
841.29	23174
841.427	22976
841.564	22976
841.701	23022
841.838	23037
841.975	22949
842.112	22999
842.249	23037
842.385	22957
842.522	22873
842.659	22805
842.796	22835
842.933	22710
843.069	22911
843.206	22812
843.343	23105
843.479	22919
843.616	22896
843.752	22641
843.889	22736
844.025	22923
844.162	22759
844.298	23105
844.435	22984
844.571	23181
844.708	23455
844.844	23779
844.98	24057
845.117	24388
845.253	25126
845.389	26453
845.525	28927
845.661	33024
845.798	38035
845.934	41927
846.07	43240
846.206	42304
846.342	38979
846.478	34048
846.614	29741
846.75	26823
846.886	25217
847.022	24258
847.158	23509
847.294	23124
847.429	22854
847.565	22546
847.701	22763
847.837	22166
847.972	22063
848.108	22093
848.244	22021
848.379	21762
848.515	21736
848.65	21736
848.786	21720
848.921	21732
849.057	21766
849.192	21705
849.328	21819
849.463	21724
849.598	21507
849.734	21576
849.869	21378
850.004	21329
850.14	21374
850.275	21351
850.41	21252
850.545	21237
850.68	21302
850.815	21363
850.95	21283
851.085	21466
851.22	21386
851.355	21264
851.49	21283
851.625	21275
851.76	21176
851.895	21154
852.03	21184
852.165	21256
852.299	21298
852.434	21416
852.569	21416
852.703	21412
852.838	21469
852.973	21367
853.107	21412
853.242	21405
853.376	21211
853.511	21245
853.645	21237
853.78	21389
853.914	21351
854.048	21313
854.183	21272
854.317	21374
854.451	21679
854.585	21412
854.72	21408
854.854	21492
854.988	21268
855.122	21214
855.256	21161
855.39	21264
855.524	21340
855.658	21310
855.792	21138
855.926	21230
856.06	21169
856.194	21146
856.327	21142
856.461	21017
856.595	21058
856.729	20975
856.862	21039
856.996	21096
857.13	21039
857.263	21226
857.397	21108
857.53	21074
857.664	20971
857.797	20979
857.931	21146
858.064	21028
858.197	21032
858.331	20929
858.464	20990
858.597	20853
858.731	20998
858.864	20910
858.997	21024
859.13	21009
859.263	20876
859.396	21001
859.529	20921
859.662	20861
859.795	20971
859.928	20853
860.061	20998
860.194	21100
860.327	20845
860.46	20910
860.592	20872
860.725	21058
860.858	20952
860.99	20807
861.123	20815
861.256	20819
861.388	20838
861.521	21583
861.653	20689
861.786	20716
861.918	20731
862.05	20826
862.183	20868
862.315	20906
862.447	21001
862.58	21001
862.712	20712
862.844	20670
862.976	20686
863.108	20716
863.24	21104
863.372	20541
863.504	20495
863.636	20484
863.768	20590
863.9	20533
864.032	20526
864.164	20465
864.296	20693
864.428	20526
864.559	20609
864.691	20648
864.823	20587
864.954	20625
865.086	20629
865.217	20442
865.349	20473
865.48	20503
865.612	20556
865.743	20537
865.875	20404
866.006	20385
866.137	20461
866.269	20457
866.4	20503
866.531	20298
866.662	20332
866.793	20434
866.924	20427
867.055	20507
867.186	20374
867.317	20423
867.448	20256
867.579	20389
867.71	20385
867.841	20248
867.972	20374
868.103	20461
868.233	20446
868.364	20518
868.495	20571
868.625	20678
868.756	20731
868.886	20484
869.017	20693
869.147	20792
869.278	20674
869.408	20594
869.539	20598
869.669	20739
869.799	20686
869.929	20644
870.06	20777
870.19	20979
870.32	20952
870.45	20948
870.58	21077
870.71	21218
870.84	21005
870.97	21066
871.1	21135
871.23	21180
871.36	21180
871.489	21188
871.619	21218
871.749	21272
871.879	21397
872.008	21526
872.138	21424
872.267	21355
872.397	21226
872.526	21207
872.656	21154
872.785	21226
872.915	21462
873.044	21538
873.173	21374
873.303	21443
873.432	21530
873.561	21564
873.69	21458
873.819	21625
873.948	21629
874.077	21606
874.206	21652
874.335	21583
874.464	21804
874.593	21816
874.722	21869
874.851	21991
874.979	21998
875.108	22082
875.237	21888
875.365	22002
875.494	22063
875.623	22093
875.751	22090
875.88	22070
876.008	22268
876.136	22417
876.265	22721
876.393	22744
876.521	22774
876.65	22896
876.778	22862
876.906	22752
877.034	22778
877.162	22923
877.29	22942
877.418	23037
877.546	23124
877.674	23109
877.802	23117
877.93	23330
878.058	23497
878.185	23467
878.313	23790
878.441	24110
878.568	24178
878.696	24555
878.824	25274
878.951	26065
879.079	27397
879.206	28790
879.333	30342
879.461	31643
879.588	32526
879.715	32404
879.842	31822
879.97	30353
880.097	28733
880.224	27447
880.351	26568
880.478	26062
880.605	25696
880.732	25266
880.859	25308
880.986	25164
881.112	25008
881.239	24726
881.366	24612
881.493	24525
881.619	24494
881.746	24559
881.872	24532
881.999	24677
882.125	24456
882.252	24623
882.378	24578
882.505	24745
882.631	24521
882.757	24350
882.883	24410
883.01	24414
883.136	24376
883.262	24285
883.388	24155
883.514	24369
883.64	24254
883.766	24342
883.892	24152
884.018	24186
884.143	24247
884.269	24346
884.395	24121
884.52	24102
884.646	24079
884.772	23958
884.897	24011
885.023	24254
885.148	24068
885.274	24201
885.399	23950
885.524	23794
885.65	23676
885.775	23733
885.9	23528
886.025	23722
886.15	23471
886.275	23216
886.4	23044
886.525	23060
886.65	22854
886.775	22771
886.9	22953
887.025	22873
887.149	22508
887.274	22375
887.399	22440
887.523	22318
887.648	22154
887.773	22093
887.897	22158
888.021	22021
888.146	21911
888.27	22070
888.395	22207
888.519	21953
888.643	21873
888.767	21831
888.891	21717
889.015	21564
889.139	21637
889.263	21469
889.387	21595
889.511	21682
889.635	21561
889.759	21393
889.883	21351
890.006	21317
890.13	21378
890.254	21074
890.377	21203
890.501	21085
890.624	20857
890.748	20994
890.871	20944
890.995	20735
891.118	20613
891.241	20625
891.364	20773
891.488	20773
891.611	20689
891.734	20552
891.857	20640
891.98	20625
892.103	20606
892.226	20518
892.349	20366
892.471	20343
892.594	20434
892.717	20404
892.839	20438
892.962	20427
893.085	20484
893.207	20275
893.33	20161
893.452	20298
893.575	20240
893.697	20256
893.819	20336
893.941	20317
894.064	20347
894.186	20138
894.308	20088
894.43	20142
894.552	20313
894.674	20267
894.796	19978
894.918	20024
895.04	20065
895.161	20062
895.283	20088
895.405	19932
895.526	19978
895.648	19883
895.769	19993
895.891	20001
896.012	20027
896.134	19959
896.255	20039
896.376	19993
896.498	19967
896.619	20065
896.74	20039
896.861	20145
896.982	20366
897.103	20347
897.224	20176
897.345	20096
897.466	20100
897.587	20126
897.708	20298
897.828	20115
897.949	20084
898.07	19963
898.19	20077
898.311	20168
898.431	20081
898.552	20103
898.672	20202
898.792	20119
898.913	20088
899.033	19993
899.153	19887
899.273	19734
899.393	19788
899.513	19864
899.633	19871
899.753	19784
899.873	19704
899.993	19898
900.113	19769
900.232	19704
900.352	19685
900.472	19582
900.591	19540
900.711	19575
900.83	19552
900.95	19734
901.069	19723
901.189	19411
901.308	19304
901.427	19114
901.546	19206
901.665	19263
901.784	19266
901.904	19027
902.023	18875
902.141	18711
902.26	18661
902.379	18730
902.498	18665
902.617	18658
902.735	18547
902.854	18426
902.973	18414
903.091	18308
903.21	18247
903.328	18121
903.446	18186
903.565	18064
903.683	18022
903.801	17843
903.919	17916
904.038	17920
904.156	17752
904.274	17874
904.392	17752
904.51	17794
904.627	17783
904.745	17695
904.863	17680
904.981	17459
905.098	17414
905.216	17490
905.334	17471
905.451	17315
905.569	17330
905.686	17463
905.803	17406
905.921	17109
906.038	17269
906.155	17197
906.272	17022
906.389	16999
906.506	16942
906.623	16820
906.74	16809
906.857	16748
906.974	16782
907.091	16949
907.208	16995
907.324	16892
907.441	16683
907.557	16611
907.674	16664
907.79	16516
907.907	16565
908.023	16550
908.139	16519
908.256	16489
908.372	16405
908.488	16428
908.604	16363
908.72	16280
908.836	16234
908.952	16200
909.068	16318
909.184	16356
909.3	16162
909.415	16215
909.531	16181
909.647	15930
909.762	15960
909.878	15892
909.993	16063
910.108	15991
910.224	15907
910.339	15876
910.454	15812
910.57	15755
910.685	15728
910.8	15945
910.915	15899
911.03	15736
911.145	15538
911.259	15580
911.374	15454
911.489	15473
911.604	15431
911.718	15325
911.833	15332
911.947	15302
912.062	15146
912.176	15222
912.291	15313
912.405	15291
912.519	15397
912.633	15408
912.748	15211
912.862	15249
912.976	15074
913.09	15074
913.204	15074
913.318	15112
913.431	15184
913.545	15119
913.659	15161
913.772	15055
913.886	14944
914	14834
914.113	14979
914.226	14994
914.34	14902
914.453	14891
914.566	15024
914.68	14845
914.793	14853
914.906	14606
915.019	14598
915.132	14560
915.245	14575
915.358	14533
915.47	14530
915.583	14530
915.696	14602
915.809	14708
915.921	14800
916.034	14461
916.146	14415
916.259	14514
916.371	14655
916.483	14590
916.595	14404
916.708	14332
916.82	14518
916.932	14484
917.044	14511
917.156	14328
917.268	14294
917.38	14244
917.491	14157
917.603	14161
917.715	14259
917.826	14271
917.938	14202
918.049	14065
918.161	14043
918.272	14313
918.384	14218
918.495	14043
918.606	14035
918.717	13940
918.828	13982
918.939	13974
919.05	13978
919.161	13871
919.272	13746
919.383	13734
919.494	13997
919.604	14103
919.715	13932
919.826	13868
919.936	13826
920.047	13925
920.157	13871
920.267	14100
920.378	13967
920.488	13856
920.598	13978
920.708	14263
920.818	13993
920.928	13986
921.038	14126
921.148	14100
921.258	13883
921.368	13818
921.477	13655
921.587	13597
921.697	13510
921.806	13628
921.916	13468
922.025	13301
922.134	13270
922.244	13103
922.353	13346
922.462	13141
922.571	13072
922.68	12939
922.789	12958
922.898	12966
923.007	12844
923.116	12966
923.224	12890
923.333	12916
923.442	12745
923.55	12776
923.659	12730
923.767	12795
923.876	12650
923.984	12700
924.092	12623
924.201	12738
924.309	12665
924.417	12597
924.525	12551
924.633	12593
924.741	13537
924.849	12334
924.956	12513
925.064	12437
925.172	12304
925.279	12365
925.387	12357
925.494	12350
925.602	12464
925.709	12422
925.816	12171
925.924	12403
926.031	12323
926.138	12327
926.245	12342
926.352	12148
926.459	12323
926.566	12372
926.673	12167
926.779	12106
926.886	12087
926.993	11931
927.099	12003
927.206	11847
927.312	11882
927.419	11942
927.525	11874
927.631	11893
927.737	11882
927.843	11794
927.95	11794
928.056	11707
928.162	11802
928.267	11863
928.373	12346
928.479	11832
928.585	11600
928.69	11722
928.796	11783
928.901	11600
929.007	11463
929.112	11642
929.218	11551
929.323	11551
929.428	11410
929.533	11642
929.638	11421
929.743	11440
929.848	11493
929.953	11478
930.058	11353
930.163	11261
930.267	11265
930.372	11356
930.477	11174
930.581	11406
930.685	11277
930.79	11041
930.894	11136
930.998	11124
931.103	11254
931.207	10873
931.311	10786
931.415	10725
931.519	10417
931.623	10462
