Data from test_V78500241_2467.txt Node
Date: Fri Mar 25 14:50:53 CST 2022
User: usil
Spectrometer: V785-0024
Trigger mode: 0
Integration Time (sec): 4.000000E-1
Scans to average: 1
Nonlinearity correction enabled: false
Boxcar width: 0
Storing dark spectrum: false
XAxis mode: Wavelengths
Number of Pixels in Spectrum: 1024
>>>>>Begin Spectral Data<<<<<
801.071	22173
801.214	22002
801.356	21709
801.499	21671
801.641	21511
801.783	21374
801.926	21500
802.068	21477
802.211	21420
802.353	21351
802.496	21169
802.638	20960
802.78	20902
802.923	20895
803.065	20739
803.208	20853
803.35	20834
803.492	20895
803.635	20845
803.777	20849
803.919	20960
804.061	21302
804.204	20815
804.346	20708
804.488	20682
804.63	20716
804.773	20636
804.915	20701
805.057	20739
805.199	20659
805.341	20758
805.483	20731
805.626	20708
805.768	20765
805.91	20754
806.052	20765
806.194	20629
806.336	20819
806.478	20648
806.62	20735
806.762	20781
806.904	20876
807.046	21207
807.188	20975
807.33	21039
807.472	20990
807.614	21009
807.756	20952
807.898	20815
808.04	20941
808.182	20823
808.324	20788
808.465	20796
808.607	20994
808.749	20979
808.891	21264
809.033	21203
809.174	21116
809.316	20971
809.458	21055
809.6	20998
809.741	21214
809.883	21123
810.025	21298
810.166	21154
810.308	21207
810.45	21169
810.591	21127
810.733	21005
810.875	20750
811.016	20800
811.158	20811
811.299	20819
811.441	21024
811.582	20967
811.724	20853
811.865	20948
812.007	20857
812.148	20750
812.29	20910
812.431	20982
812.573	21089
812.714	21275
812.855	21424
812.997	21348
813.138	21583
813.279	21477
813.421	21367
813.562	21260
813.703	21207
813.845	20937
813.986	20739
814.127	20530
814.268	20396
814.41	20457
814.551	20408
814.692	20438
814.833	20355
814.974	20446
815.115	20389
815.256	20282
815.397	20225
815.539	20210
815.68	20092
815.821	20092
815.962	20153
816.103	20176
816.244	20005
816.385	19868
816.526	19936
816.666	19746
816.807	19521
816.948	19635
817.089	19712
817.23	19643
817.371	19582
817.512	19601
817.653	19651
817.793	19483
817.934	19457
818.075	19556
818.216	19529
818.356	19533
818.497	19308
818.638	19225
818.778	19213
818.919	19206
819.06	19304
819.2	19400
819.341	19438
819.481	19476
819.622	19601
819.762	19750
819.903	19715
820.043	19540
820.184	19521
820.324	19419
820.465	19674
820.605	19529
820.746	19502
820.886	19403
821.026	19445
821.167	19556
821.307	19441
821.447	19411
821.588	19392
821.728	19213
821.868	19148
822.008	18996
822.149	19019
822.289	18837
822.429	18604
822.569	18566
822.709	18616
822.849	18365
822.99	18353
823.13	18403
823.27	18407
823.41	18319
823.55	18121
823.69	18270
823.83	18220
823.97	18167
824.11	17973
824.25	17992
824.389	17999
824.529	18095
824.669	18064
824.809	18068
824.949	18144
825.089	18110
825.228	17931
825.368	17775
825.508	17809
825.648	17805
825.787	17840
825.927	17756
826.067	17752
826.206	17790
826.346	17832
826.485	17809
826.625	17745
826.765	17802
826.904	17726
827.044	17608
827.183	17630
827.323	17501
827.462	17570
827.601	17600
827.741	17414
827.88	17410
828.02	17379
828.159	17406
828.298	17467
828.437	17543
828.577	17296
828.716	17653
828.855	17383
828.994	17239
829.134	17227
829.273	17341
829.412	17185
829.551	17071
829.69	17246
829.829	17277
829.968	17391
830.107	17208
830.246	17220
830.385	17094
830.524	17033
830.663	16976
830.802	16953
830.941	16908
831.08	16797
831.219	16877
831.357	17003
831.496	16984
831.635	16968
831.774	16793
831.913	16839
832.051	16698
832.19	16538
832.329	16786
832.467	16519
832.606	16481
832.744	16493
832.883	16455
833.022	16519
833.16	16565
833.299	16565
833.437	16698
833.576	16500
833.714	16508
833.852	16599
833.991	16588
834.129	16698
834.267	16660
834.406	16508
834.544	16611
834.682	16637
834.821	16470
834.959	16717
835.097	16584
835.235	16596
835.373	16630
835.511	16580
835.65	16428
835.788	16402
835.926	16291
836.064	16322
836.202	16291
836.34	16485
836.478	16580
836.615	16440
836.753	16512
836.891	16527
837.029	16550
837.167	16405
837.305	16348
837.443	16413
837.58	16352
837.718	16443
837.856	16337
837.993	16257
838.131	16310
838.269	16287
838.406	16207
838.544	16147
838.681	15941
838.819	16036
838.956	15857
839.094	15854
839.231	15956
839.369	16013
839.506	16287
839.643	16055
839.781	15857
839.918	15899
840.055	15861
840.193	15861
840.33	15770
840.467	15922
840.604	15873
840.742	16097
840.879	15823
841.016	15755
841.153	15835
841.29	16006
841.427	15937
841.564	15903
841.701	15922
841.838	15774
841.975	15755
842.112	15751
842.249	15667
842.385	15686
842.522	15884
842.659	15781
842.796	15610
842.933	15679
843.069	15572
843.206	15679
843.343	15679
843.479	15660
843.616	15641
843.752	15435
843.889	15511
844.025	15679
844.162	15428
844.298	15572
844.435	15458
844.571	15317
844.708	15523
844.844	15557
844.98	15568
845.117	15652
845.253	15393
845.389	15310
845.525	15367
845.661	15405
845.798	15165
845.934	15218
846.07	15294
846.206	15291
846.342	15256
846.478	15272
846.614	15062
846.75	14982
846.886	15024
847.022	15138
847.158	14998
847.294	15116
847.429	15024
847.565	15055
847.701	15230
847.837	14739
847.972	14735
848.108	14891
848.244	14792
848.379	14648
848.515	14682
848.65	14594
848.786	14564
848.921	14644
849.057	14705
849.192	14689
849.328	14610
849.463	14629
849.598	14590
849.734	14610
849.869	14598
850.004	14396
850.14	14507
850.275	14404
850.41	14275
850.545	14385
850.68	14267
850.815	14332
850.95	14377
851.085	14571
851.22	14454
851.355	14366
851.49	14400
851.625	14427
851.76	14408
851.895	14240
852.03	14199
852.165	14358
852.299	14473
852.434	14476
852.569	14355
852.703	14408
852.838	14412
852.973	14518
853.107	14640
853.242	14484
853.376	14278
853.511	14130
853.645	14214
853.78	14362
853.914	14240
854.048	14183
854.183	14191
854.317	14324
854.451	14396
854.585	14271
854.72	14214
854.854	14252
854.988	14149
855.122	14214
855.256	14153
855.39	14301
855.524	14320
855.658	14244
855.792	14263
855.926	14290
856.06	14362
856.194	14385
856.327	14358
856.461	14199
856.595	14191
856.729	14282
856.862	14339
856.996	14408
857.13	14313
857.263	14351
857.397	14408
857.53	14225
857.664	14317
857.797	14370
857.931	14415
858.064	14298
858.197	14431
858.331	14294
858.464	14225
858.597	14210
858.731	14252
858.864	14248
858.997	14210
859.13	14320
859.263	14218
859.396	14351
859.529	14282
859.662	14256
859.795	14210
859.928	14145
860.061	14419
860.194	14366
860.327	14351
860.46	14225
860.592	14320
860.725	14454
860.858	14263
860.99	14282
861.123	14191
861.256	14237
861.388	14336
861.521	14800
861.653	14126
861.786	14164
861.918	14081
862.05	14206
862.183	14153
862.315	14233
862.447	14229
862.58	14202
862.712	14035
862.844	14065
862.976	14069
863.108	14058
863.24	14313
863.372	14046
863.504	14005
863.636	13993
863.768	14020
863.9	14065
864.032	14001
864.164	13974
864.296	14008
864.428	14161
864.559	14111
864.691	14172
864.823	14088
864.954	14043
865.086	14092
865.217	13951
865.349	13906
865.48	13963
865.612	14039
865.743	14145
865.875	14062
866.006	13970
866.137	13947
866.269	14012
866.4	13993
866.531	13978
866.662	13887
866.793	13936
866.924	14008
867.055	14020
867.186	14020
867.317	13959
867.448	13913
867.579	13902
867.71	14012
867.841	13959
867.972	14039
868.103	13959
868.233	13928
868.364	14024
868.495	14081
868.625	14130
868.756	14400
868.886	14210
869.017	14244
869.147	14309
869.278	14480
869.408	14282
869.539	14225
869.669	14199
869.799	14385
869.929	14336
870.06	14336
870.19	14670
870.32	14461
870.45	14762
870.58	14682
870.71	14674
870.84	14769
870.97	14705
871.1	14716
871.23	14853
871.36	14811
871.489	14754
871.619	14868
871.749	14918
871.879	14864
872.008	15009
872.138	14804
872.267	14765
872.397	14731
872.526	14739
872.656	14663
872.785	14682
872.915	14880
873.044	15017
873.173	14857
873.303	14967
873.432	15017
873.561	14914
873.69	14868
873.819	14902
873.948	15020
874.077	14910
874.206	14853
874.335	14963
874.464	15013
874.593	15119
874.722	15214
874.851	15279
874.979	15226
875.108	15306
875.237	15180
875.365	15032
875.494	15268
875.623	15367
875.751	15184
875.88	15211
876.008	15412
876.136	15393
876.265	15698
876.393	15709
876.521	15778
876.65	15816
876.778	15595
876.906	15720
877.034	15641
877.162	15584
877.29	15496
877.418	15667
877.546	15747
877.674	15580
877.802	15770
877.93	15660
878.058	15545
878.185	15545
878.313	15622
878.441	15610
878.568	15591
878.696	15641
878.824	15660
878.951	15804
879.079	15785
879.206	15926
879.333	15778
879.461	15766
879.588	15717
879.715	15823
879.842	16006
879.97	15732
880.097	15431
880.224	15568
880.351	15492
880.478	15538
880.605	15477
880.732	15496
880.859	15793
880.986	15374
881.112	15542
881.239	15447
881.366	15336
881.493	15310
881.619	15066
881.746	15176
881.872	15154
881.999	15180
882.125	15199
882.252	15260
882.378	15336
882.505	15386
882.631	15127
882.757	15017
882.883	15100
883.01	14979
883.136	14975
883.262	14948
883.388	14868
883.514	15001
883.64	14986
883.766	14929
883.892	14929
884.018	14864
884.143	15119
884.269	15192
884.395	14807
884.52	14720
884.646	14735
884.772	14579
884.897	14640
885.023	14762
885.148	14845
885.274	14845
885.399	14811
885.524	14765
885.65	14689
885.775	14758
885.9	14686
886.025	14933
886.15	14781
886.275	14678
886.4	14720
886.525	14663
886.65	14716
886.775	14655
886.9	14823
887.025	14861
887.149	14678
887.274	14526
887.399	14549
887.523	14564
887.648	14446
887.773	14503
887.897	14727
888.021	14716
888.146	14473
888.27	14629
888.395	14750
888.519	14670
888.643	14598
888.767	14571
888.891	14465
889.015	14347
889.139	14476
889.263	14290
889.387	14568
889.511	14602
889.635	14556
889.759	14389
889.883	14370
890.006	14492
890.13	14419
890.254	14317
890.377	14415
890.501	14210
890.624	14225
890.748	14229
890.871	14202
890.995	14084
891.118	13963
891.241	14115
891.364	14016
891.488	14256
891.611	14096
891.734	14126
891.857	14176
891.98	14172
892.103	14138
892.226	14073
892.349	14115
892.471	14027
892.594	14119
892.717	14123
892.839	14065
892.962	14069
893.085	14176
893.207	14161
893.33	13913
893.452	14031
893.575	14259
893.697	14020
893.819	14202
893.941	14385
894.064	14157
894.186	14001
894.308	14161
894.43	14237
894.552	14248
894.674	14252
894.796	14020
894.918	14092
895.04	14130
895.161	14259
895.283	14229
895.405	14092
895.526	14145
895.648	14180
895.769	14290
895.891	14263
896.012	14298
896.134	14180
896.255	14229
896.376	14244
896.498	14332
896.619	14377
896.74	14176
896.861	14347
896.982	14522
897.103	14788
897.224	14602
897.345	14552
897.466	14488
897.587	14564
897.708	14598
897.828	14568
897.949	14473
898.07	14419
898.19	14507
898.311	14636
898.431	14552
898.552	14663
898.672	14739
898.792	14667
898.913	14727
899.033	14503
899.153	14446
899.273	14298
899.393	14400
899.513	14385
899.633	14556
899.753	14590
899.873	14476
899.993	14488
900.113	14476
900.232	14518
900.352	14522
900.472	14488
900.591	14294
900.711	14480
900.83	14324
900.95	14476
901.069	14571
901.189	14267
901.308	14058
901.427	13860
901.546	14024
901.665	14100
901.784	14065
901.904	13940
902.023	13871
902.141	13693
902.26	13537
902.379	13670
902.498	13609
902.617	13525
902.735	13586
902.854	13552
902.973	13521
903.091	13335
903.21	13312
903.328	13354
903.446	13244
903.565	13221
903.683	13149
903.801	13088
903.919	13202
904.038	13149
904.156	13107
904.274	13050
904.392	12954
904.51	13061
904.627	12871
904.745	13133
904.863	13084
904.981	12814
905.098	12612
905.216	12646
905.334	12757
905.451	12730
905.569	12642
905.686	12677
905.803	12658
905.921	12532
906.038	12620
906.155	12528
906.272	12384
906.389	12384
906.506	12220
906.623	12266
906.74	12266
906.857	12125
906.974	12140
907.091	12323
907.208	12338
907.324	12319
907.441	12247
907.557	12026
907.674	12026
907.79	11984
907.907	12038
908.023	12091
908.139	11977
908.256	11965
908.372	11950
908.488	11984
908.604	11695
908.72	11726
908.836	11722
908.952	11752
909.068	11783
909.184	11885
909.3	11703
909.415	11817
909.531	11752
909.647	11589
909.762	11570
909.878	11478
909.993	11573
910.108	11547
910.224	11471
910.339	11505
910.454	11482
910.57	11398
910.685	11356
910.8	11596
910.915	11512
911.03	11417
911.145	11220
911.259	11181
911.374	11231
911.489	11113
911.604	11155
911.718	10980
911.833	10987
911.947	10972
912.062	10831
912.176	10991
912.291	11010
912.405	10858
912.519	11204
912.633	11155
912.748	11094
912.862	11003
912.976	10847
913.09	10786
913.204	10847
913.318	10885
913.431	10949
913.545	10968
913.659	11018
913.772	10797
913.886	10812
914	10672
914.113	10866
914.226	10885
914.34	10793
914.453	10611
914.566	10862
914.68	10725
914.793	10702
914.906	10554
915.019	10527
915.132	10402
915.245	10485
915.358	10462
915.47	10462
915.583	10523
915.696	10519
915.809	10660
915.921	10649
916.034	10497
916.146	10470
916.259	10481
916.371	10554
916.483	10596
916.595	10432
916.708	10443
916.82	10386
916.932	10356
917.044	10398
917.156	10348
917.268	10272
917.38	10276
917.491	10303
917.603	10398
917.715	10428
917.826	10409
917.938	10276
918.049	10223
918.161	10398
918.272	10447
918.384	10459
918.495	10413
918.606	10223
918.717	10086
918.828	10234
918.939	10249
919.05	10063
919.161	10204
919.272	9956
919.383	10086
919.494	10249
919.604	10474
919.715	10181
919.826	10166
919.936	10185
920.047	10238
920.157	10200
920.267	10459
920.378	10310
920.488	10211
920.598	10447
920.708	10577
920.818	10352
920.928	10390
921.038	10535
921.148	10550
921.258	10246
921.368	10120
921.477	10097
921.587	10029
921.697	9987
921.806	10162
921.916	9930
922.025	9838
922.134	9838
922.244	9770
922.353	9835
922.462	9682
922.571	9614
922.68	9481
922.789	9412
922.898	9526
923.007	9405
923.116	9534
923.224	9557
923.333	9530
923.442	9329
923.55	9336
923.659	9386
923.767	9367
923.876	9359
923.984	9477
924.092	9336
924.201	9408
924.309	9420
924.417	9321
924.525	9321
924.633	9336
924.741	10025
924.849	9043
924.956	9275
925.064	9119
925.172	9077
925.279	9074
925.387	9108
925.494	9127
925.602	9291
925.709	9253
925.816	9051
925.924	9104
926.031	9268
926.138	9131
926.245	9157
926.352	9150
926.459	9161
926.566	9272
926.673	9032
926.779	8941
926.886	9036
926.993	8861
927.099	8830
927.206	8838
927.312	8773
927.419	8868
927.525	8895
927.631	8967
927.737	8811
927.843	8708
927.95	8568
928.056	8674
928.162	8739
928.267	8777
928.373	9348
928.479	8883
928.585	8682
928.69	8754
928.796	8811
928.901	8644
929.007	8495
929.112	8594
929.218	8632
929.323	8568
929.428	8545
929.533	8610
929.638	8499
929.743	8518
929.848	8632
929.953	8579
930.058	8476
930.163	8301
930.267	8320
930.372	8511
930.477	8271
930.581	8545
930.685	8339
930.79	8313
930.894	8332
930.998	8298
931.103	8408
931.207	8035
931.311	8016
931.415	7928
931.519	7731
931.623	7803
