Data from test_V78500241_3125.txt Node
Date: Fri Mar 25 14:55:28 CST 2022
User: usil
Spectrometer: V785-0024
Trigger mode: 0
Integration Time (sec): 4.000000E-1
Scans to average: 1
Nonlinearity correction enabled: false
Boxcar width: 0
Storing dark spectrum: false
XAxis mode: Wavelengths
Number of Pixels in Spectrum: 1024
>>>>>Begin Spectral Data<<<<<
801.071	22135
801.214	22017
801.356	21671
801.499	21572
801.641	21553
801.783	21389
801.926	21515
802.068	21393
802.211	21386
802.353	21116
802.496	20872
802.638	20975
802.78	20861
802.923	20743
803.065	20762
803.208	20716
803.35	20693
803.492	20921
803.635	20849
803.777	20640
803.919	20864
804.061	21066
804.204	20826
804.346	20712
804.488	20659
804.63	20739
804.773	20678
804.915	20609
805.057	20842
805.199	20636
805.341	20686
805.483	20598
805.626	20678
805.768	20674
805.91	20682
806.052	20701
806.194	20602
806.336	20632
806.478	20560
806.62	20708
806.762	20735
806.904	20769
807.046	21081
807.188	21055
807.33	20979
807.472	21051
807.614	20864
807.756	20781
807.898	20807
808.04	20754
808.182	20781
808.324	20796
808.465	20659
808.607	20948
808.749	20960
808.891	21195
809.033	21268
809.174	21058
809.316	21024
809.458	21013
809.6	20990
809.741	21062
809.883	21123
810.025	21264
810.166	21249
810.308	21131
810.45	21058
810.591	21184
810.733	20952
810.875	20762
811.016	20590
811.158	20697
811.299	20868
811.441	20921
811.582	20880
811.724	20990
811.865	20632
812.007	20815
812.148	20872
812.29	20800
812.431	20975
812.573	21013
812.714	21146
812.855	21268
812.997	21336
813.138	21496
813.279	21355
813.421	21408
813.562	21260
813.703	21009
813.845	20948
813.986	20697
814.127	20480
814.268	20358
814.41	20461
814.551	20400
814.692	20454
814.833	20191
814.974	20294
815.115	20377
815.256	20176
815.397	20199
815.539	20191
815.68	20088
815.821	20054
815.962	20027
816.103	20088
816.244	20008
816.385	19677
816.526	19704
816.666	19658
816.807	19453
816.948	19457
817.089	19575
817.23	19438
817.371	19438
817.512	19411
817.653	19449
817.793	19312
817.934	19487
818.075	19460
818.216	19548
818.356	19400
818.497	19259
818.638	19118
818.778	19202
818.919	19209
819.06	19179
819.2	19293
819.341	19441
819.481	19354
819.622	19472
819.762	19643
819.903	19506
820.043	19567
820.184	19510
820.324	19415
820.465	19457
820.605	19487
820.746	19445
820.886	19308
821.026	19377
821.167	19381
821.307	19415
821.447	19255
821.588	19198
821.728	19095
821.868	19050
822.008	18806
822.149	18863
822.289	18833
822.429	18544
822.569	18601
822.709	18498
822.849	18399
822.99	18350
823.13	18319
823.27	18289
823.41	18178
823.55	18060
823.69	18228
823.83	18167
823.97	18091
824.11	18022
824.25	17783
824.389	17908
824.529	18003
824.669	17999
824.809	18064
824.949	18053
825.089	17977
825.228	17920
825.368	17786
825.508	17771
825.648	17722
825.787	17783
825.927	17722
826.067	17691
826.206	17668
826.346	17707
826.485	17699
826.625	17691
826.765	17866
826.904	17741
827.044	17478
827.183	17482
827.323	17421
827.462	17532
827.601	17398
827.741	17345
827.88	17398
828.02	17402
828.159	17349
828.298	17322
828.437	17471
828.577	17326
828.716	17512
828.855	17322
828.994	17162
829.134	17128
829.273	17326
829.412	17185
829.551	17113
829.69	17181
829.829	17124
829.968	17166
830.107	17235
830.246	17178
830.385	17117
830.524	17056
830.663	16934
830.802	16946
830.941	16778
831.08	16717
831.219	16797
831.357	16866
831.496	17006
831.635	16812
831.774	16668
831.913	16771
832.051	16531
832.19	16531
832.329	16611
832.467	16417
832.606	16363
832.744	16527
832.883	16459
833.022	16428
833.16	16558
833.299	16519
833.437	16428
833.576	16402
833.714	16558
833.852	16504
833.991	16527
834.129	16577
834.267	16603
834.406	16561
834.544	16474
834.682	16527
834.821	16516
834.959	16710
835.097	16432
835.235	16538
835.373	16573
835.511	16470
835.65	16360
835.788	16344
835.926	16246
836.064	16280
836.202	16192
836.34	16508
836.478	16432
836.615	16268
836.753	16428
836.891	16451
837.029	16500
837.167	16390
837.305	16325
837.443	16352
837.58	16238
837.718	16432
837.856	16223
837.993	16169
838.131	16341
838.269	16188
838.406	16230
838.544	16105
838.681	16067
838.819	15975
838.956	15888
839.094	15850
839.231	15915
839.369	15972
839.506	16215
839.643	16116
839.781	15808
839.918	15690
840.055	15842
840.193	15823
840.33	15785
840.467	15755
840.604	15797
840.742	16177
840.879	15766
841.016	15743
841.153	15743
841.29	15930
841.427	15804
841.564	15808
841.701	15793
841.838	15854
841.975	15743
842.112	15728
842.249	15519
842.385	15450
842.522	15690
842.659	15625
842.796	15622
842.933	15542
843.069	15431
843.206	15545
843.343	15591
843.479	15595
843.616	15629
843.752	15287
843.889	15386
844.025	15439
844.162	15359
844.298	15458
844.435	15367
844.571	15348
844.708	15447
844.844	15660
844.98	15557
845.117	15519
845.253	15424
845.389	15355
845.525	15310
845.661	15272
845.798	15165
845.934	15230
846.07	15108
846.206	15180
846.342	15370
846.478	15154
846.614	15055
846.75	14948
846.886	14971
847.022	15058
847.158	15039
847.294	15005
847.429	15020
847.565	14994
847.701	15135
847.837	14731
847.972	14648
848.108	14807
848.244	14754
848.379	14533
848.515	14522
848.65	14537
848.786	14522
848.921	14545
849.057	14625
849.192	14640
849.328	14648
849.463	14541
849.598	14507
849.734	14499
849.869	14476
850.004	14256
850.14	14408
850.275	14309
850.41	14210
850.545	14271
850.68	14366
850.815	14313
850.95	14309
851.085	14541
851.22	14469
851.355	14309
851.49	14237
851.625	14324
851.76	14267
851.895	14256
852.03	14199
852.165	14301
852.299	14347
852.434	14427
852.569	14400
852.703	14339
852.838	14389
852.973	14427
853.107	14465
853.242	14317
853.376	14210
853.511	14157
853.645	14164
853.78	14332
853.914	14218
854.048	14229
854.183	14138
854.317	14233
854.451	14404
854.585	14172
854.72	14183
854.854	14233
854.988	14161
855.122	14202
855.256	14050
855.39	14126
855.524	14320
855.658	14214
855.792	14248
855.926	14183
856.06	14263
856.194	14206
856.327	14282
856.461	14130
856.595	14172
856.729	14153
856.862	14374
856.996	14298
857.13	14309
857.263	14176
857.397	14328
857.53	14252
857.664	14153
857.797	14317
857.931	14237
858.064	14142
858.197	14275
858.331	14244
858.464	14084
858.597	14069
858.731	14233
858.864	14187
858.997	14153
859.13	14210
859.263	14218
859.396	14210
859.529	14172
859.662	14168
859.795	14111
859.928	14286
860.061	14339
860.194	14355
860.327	14305
860.46	14355
860.592	14305
860.725	14457
860.858	14252
860.99	14214
861.123	14259
861.256	14164
861.388	14237
861.521	14857
861.653	14043
861.786	14039
861.918	14069
862.05	14092
862.183	14172
862.315	14210
862.447	14298
862.58	14130
862.712	13936
862.844	13822
862.976	14008
863.108	14050
863.24	14259
863.372	13917
863.504	13963
863.636	13932
863.768	14016
863.9	14058
864.032	13887
864.164	13909
864.296	13986
864.428	14035
864.559	14031
864.691	14043
864.823	14031
864.954	13986
865.086	13940
865.217	13989
865.349	13887
865.48	14035
865.612	13909
865.743	14073
865.875	13932
866.006	13963
866.137	14058
866.269	13970
866.4	13986
866.531	13974
866.662	13864
866.793	13909
866.924	13947
867.055	13906
867.186	13963
867.317	13837
867.448	13837
867.579	13970
867.71	13902
867.841	14005
867.972	13959
868.103	13887
868.233	13917
868.364	13947
868.495	14012
868.625	14214
868.756	14351
868.886	14069
869.017	14176
869.147	14332
869.278	14351
869.408	14199
869.539	14267
869.669	14320
869.799	14248
869.929	14366
870.06	14446
870.19	14613
870.32	14438
870.45	14594
870.58	14632
870.71	14796
870.84	14746
870.97	14495
871.1	14533
871.23	14781
871.36	14754
871.489	14705
871.619	14765
871.749	14773
871.879	14788
872.008	14895
872.138	14849
872.267	14804
872.397	14640
872.526	14594
872.656	14560
872.785	14636
872.915	14819
873.044	14956
873.173	14872
873.303	14914
873.432	14994
873.561	15013
873.69	14785
873.819	14929
873.948	14861
874.077	14975
874.206	14807
874.335	14948
874.464	14967
874.593	15218
874.722	15055
874.851	15203
874.979	15188
875.108	15142
875.237	15169
875.365	15062
875.494	15138
875.623	15131
875.751	15161
875.88	15230
876.008	15348
876.136	15450
876.265	15564
876.393	15747
876.521	15610
876.65	15724
876.778	15526
876.906	15511
877.034	15458
877.162	15595
877.29	15511
877.418	15610
877.546	15557
877.674	15420
877.802	15625
877.93	15553
878.058	15496
878.185	15473
878.313	15511
878.441	15545
878.568	15344
878.696	15500
878.824	15564
878.951	15705
879.079	15800
879.206	15892
879.333	15720
879.461	15675
879.588	15644
879.715	15819
879.842	15880
879.97	15599
880.097	15431
880.224	15348
880.351	15416
880.478	15469
880.605	15378
880.732	15344
880.859	15641
880.986	15515
881.112	15374
881.239	15332
881.366	15184
881.493	15150
881.619	15104
881.746	15089
881.872	15169
881.999	15043
882.125	15081
882.252	15062
882.378	15150
882.505	15264
882.631	15058
882.757	14937
882.883	14944
883.01	14967
883.136	14834
883.262	14750
883.388	14765
883.514	14902
883.64	14998
883.766	14819
883.892	14716
884.018	14792
884.143	14937
884.269	14979
884.395	14659
884.52	14579
884.646	14610
884.772	14530
884.897	14454
885.023	14678
885.148	14712
885.274	14864
885.399	14727
885.524	14621
885.65	14568
885.775	14693
885.9	14625
886.025	14705
886.15	14686
886.275	14610
886.4	14457
886.525	14716
886.65	14568
886.775	14587
886.9	14720
887.025	14826
887.149	14724
887.274	14518
887.399	14347
887.523	14503
887.648	14377
887.773	14256
887.897	14495
888.021	14461
888.146	14412
888.27	14545
888.395	14545
888.519	14450
888.643	14526
888.767	14511
888.891	14374
889.015	14313
889.139	14294
889.263	14214
889.387	14385
889.511	14492
889.635	14434
889.759	14290
889.883	14221
890.006	14305
890.13	14522
890.254	14172
890.377	14271
890.501	14024
890.624	14126
890.748	14191
890.871	14016
890.995	13997
891.118	13947
891.241	13997
891.364	14043
891.488	14050
891.611	13959
891.734	14046
891.857	14100
891.98	13997
892.103	14012
892.226	14138
892.349	14043
892.471	13906
892.594	14027
892.717	14027
892.839	14005
892.962	13963
893.085	14092
893.207	13986
893.33	13909
893.452	13909
893.575	14077
893.697	13947
893.819	14157
893.941	14252
894.064	14157
894.186	14081
894.308	13997
894.43	14191
894.552	14180
894.674	14138
894.796	14069
894.918	14081
895.04	14126
895.161	14168
895.283	14031
895.405	14043
895.526	14123
895.648	14111
895.769	14138
895.891	14111
896.012	14202
896.134	14206
896.255	14176
896.376	14187
896.498	14183
896.619	14168
896.74	14252
896.861	14290
896.982	14549
897.103	14708
897.224	14503
897.345	14480
897.466	14431
897.587	14419
897.708	14590
897.828	14522
897.949	14484
898.07	14396
898.19	14298
898.311	14590
898.431	14492
898.552	14575
898.672	14636
898.792	14712
898.913	14571
899.033	14442
899.153	14355
899.273	14347
899.393	14275
899.513	14438
899.633	14393
899.753	14484
899.873	14404
899.993	14396
900.113	14454
900.232	14465
900.352	14332
900.472	14336
900.591	14111
900.711	14275
900.83	14290
900.95	14393
901.069	14419
901.189	14256
901.308	13978
901.427	13921
901.546	13959
901.665	13925
901.784	13879
901.904	13837
902.023	13765
902.141	13616
902.26	13499
902.379	13594
902.498	13510
902.617	13483
902.735	13590
902.854	13472
902.973	13521
903.091	13270
903.21	13278
903.328	13251
903.446	13225
903.565	13046
903.683	13164
903.801	12981
903.919	13046
904.038	13042
904.156	12894
904.274	13019
904.392	12833
904.51	12947
904.627	12875
904.745	12928
904.863	12947
904.981	12639
905.098	12681
905.216	12578
905.334	12620
905.451	12574
905.569	12555
905.686	12658
905.803	12540
905.921	12380
906.038	12490
906.155	12467
906.272	12296
906.389	12281
906.506	12186
906.623	12209
906.74	12247
906.857	12083
906.974	12072
907.091	12258
907.208	12380
907.324	12194
907.441	12114
907.557	11874
907.674	11817
907.79	11817
907.907	11923
908.023	11908
908.139	12019
908.256	11863
908.372	11786
908.488	11859
908.604	11775
908.72	11657
908.836	11699
908.952	11630
909.068	11703
909.184	11798
909.3	11714
909.415	11722
909.531	11718
909.647	11444
909.762	11448
909.878	11391
909.993	11425
910.108	11436
910.224	11444
910.339	11463
910.454	11292
910.57	11334
910.685	11242
910.8	11539
910.915	11486
911.03	11353
911.145	11147
911.259	11178
911.374	11067
911.489	11041
911.604	10965
911.718	10881
911.833	10911
911.947	10889
912.062	10763
912.176	10824
912.291	10904
912.405	10915
912.519	11159
912.633	11143
912.748	10927
912.862	10930
912.976	10790
913.09	10599
913.204	10721
913.318	10717
913.431	10930
913.545	10904
913.659	10900
913.772	10710
913.886	10679
914	10630
914.113	10736
914.226	10824
914.34	10702
914.453	10656
914.566	10729
914.68	10630
914.793	10607
914.906	10478
915.019	10443
915.132	10409
915.245	10413
915.358	10394
915.47	10409
915.583	10405
915.696	10440
915.809	10523
915.921	10493
916.034	10413
916.146	10371
916.259	10356
916.371	10394
916.483	10440
916.595	10325
916.708	10398
916.82	10356
916.932	10348
917.044	10428
917.156	10314
917.268	10287
917.38	10211
917.491	10230
917.603	10265
917.715	10371
917.826	10337
917.938	10310
918.049	10101
918.161	10253
918.272	10337
918.384	10352
918.495	10310
918.606	10131
918.717	10032
918.828	10185
918.939	10204
919.05	10055
919.161	10074
919.272	9880
919.383	9975
919.494	10162
919.604	10379
919.715	10128
919.826	10109
919.936	10169
920.047	10215
920.157	10143
920.267	10329
920.378	10188
920.488	10090
920.598	10329
920.708	10500
920.818	10348
920.928	10363
921.038	10462
921.148	10527
921.258	10196
921.368	10032
921.477	9987
921.587	9972
921.697	9865
921.806	10006
921.916	9956
922.025	9755
922.134	9720
922.244	9652
922.353	9770
922.462	9679
922.571	9587
922.68	9393
922.789	9412
922.898	9428
923.007	9393
923.116	9389
923.224	9370
923.333	9382
923.442	9253
923.55	9310
923.659	9344
923.767	9386
923.876	9256
923.984	9428
924.092	9279
924.201	9249
924.309	9233
924.417	9332
924.525	9249
924.633	9253
924.741	10166
924.849	9081
924.956	9222
925.064	9077
925.172	8990
925.279	9108
925.387	9123
925.494	9146
925.602	9207
925.709	9142
925.816	9028
925.924	9047
926.031	9214
926.138	9081
926.245	9135
926.352	8948
926.459	9108
926.566	9207
926.673	9020
926.779	8868
926.886	8914
926.993	8804
927.099	8796
927.206	8727
927.312	8682
927.419	8834
927.525	8857
927.631	8902
927.737	8689
927.843	8716
927.95	8617
928.056	8640
928.162	8769
928.267	8674
928.373	9211
928.479	8712
928.585	8560
928.69	8689
928.796	8693
928.901	8621
929.007	8461
929.112	8533
929.218	8552
929.323	8526
929.428	8461
929.533	8670
929.638	8499
929.743	8480
929.848	8507
929.953	8469
930.058	8385
930.163	8275
930.267	8225
930.372	8454
930.477	8256
930.581	8473
930.685	8305
930.79	8183
930.894	8305
930.998	8195
931.103	8336
931.207	8081
931.311	7986
931.415	7879
931.519	7715
931.623	7750
