Data from test_V78500241_443.txt Node
Date: Fri Mar 25 14:36:48 CST 2022
User: usil
Spectrometer: V785-0024
Trigger mode: 0
Integration Time (sec): 4.000000E-1
Scans to average: 1
Nonlinearity correction enabled: false
Boxcar width: 0
Storing dark spectrum: false
XAxis mode: Wavelengths
Number of Pixels in Spectrum: 1024
>>>>>Begin Spectral Data<<<<<
801.071	26503
801.214	26450
801.356	26183
801.499	26248
801.641	26176
801.783	25974
801.926	26027
802.068	25879
802.211	25803
802.353	25909
802.496	25632
802.638	25563
802.78	25670
802.923	25415
803.065	25468
803.208	25559
803.35	25487
803.492	25639
803.635	25590
803.777	25575
803.919	25708
804.061	25879
804.204	25620
804.346	25571
804.488	25533
804.63	25578
804.773	25339
804.915	25540
805.057	25628
805.199	25529
805.341	25457
805.483	25677
805.626	25514
805.768	25487
805.91	25476
806.052	25521
806.194	25468
806.336	25655
806.478	25700
806.62	25575
806.762	25643
806.904	25970
807.046	25974
807.188	25902
807.33	25951
807.472	25944
807.614	25947
807.756	25864
807.898	25708
808.04	25761
808.182	25609
808.324	25677
808.465	25681
808.607	25742
808.749	25890
808.891	26100
809.033	26259
809.174	26103
809.316	26020
809.458	26043
809.6	25978
809.741	26065
809.883	26077
810.025	26275
810.166	26206
810.308	26229
810.45	26180
810.591	26187
810.733	25974
810.875	25932
811.016	25864
811.158	25719
811.299	25868
811.441	26020
811.582	26092
811.724	25887
811.865	25902
812.007	25780
812.148	26001
812.29	25936
812.431	25936
812.573	26043
812.714	26122
812.855	26271
812.997	26446
813.138	26720
813.279	26431
813.421	26317
813.562	26381
813.703	26122
813.845	26054
813.986	25738
814.127	25563
814.268	25540
814.41	25422
814.551	25487
814.692	25388
814.833	25293
814.974	25483
815.115	25426
815.256	25228
815.397	25240
815.539	25266
815.68	25091
815.821	25103
815.962	25247
816.103	25148
816.244	25137
816.385	24829
816.526	24821
816.666	24635
816.807	24722
816.948	24627
817.089	24703
817.23	24540
817.371	24566
817.512	24661
817.653	24528
817.793	24448
817.934	24528
818.075	24494
818.216	24563
818.356	24570
818.497	24376
818.638	24251
818.778	24285
818.919	24209
819.06	24182
819.2	24464
819.341	24429
819.481	24570
819.622	24547
819.762	24783
819.903	24650
820.043	24608
820.184	24696
820.324	24593
820.465	24544
820.605	24574
820.746	24528
820.886	24384
821.026	24578
821.167	24391
821.307	24566
821.447	24528
821.588	24235
821.728	24194
821.868	23984
822.008	23939
822.149	23931
822.289	23836
822.429	23687
822.569	23509
822.709	23520
822.849	23379
822.99	23307
823.13	23204
823.27	23292
823.41	23288
823.55	23033
823.69	23128
823.83	23022
823.97	22976
824.11	22911
824.25	22835
824.389	22908
824.529	22881
824.669	22946
824.809	22816
824.949	22957
825.089	22934
825.228	22980
825.368	22577
825.508	22672
825.648	22672
825.787	22801
825.927	22763
826.067	22679
826.206	22653
826.346	22611
826.485	22797
826.625	22675
826.765	22744
826.904	22649
827.044	22367
827.183	22466
827.323	22375
827.462	22455
827.601	22367
827.741	22230
827.88	22394
828.02	22204
828.159	22287
828.298	22230
828.437	22272
828.577	22310
828.716	22474
828.855	22299
828.994	21994
829.134	22154
829.273	22093
829.412	22036
829.551	22055
829.69	22044
829.829	22067
829.968	22192
830.107	22048
830.246	22021
830.385	21994
830.524	21994
830.663	21827
830.802	21804
830.941	21739
831.08	21595
831.219	21701
831.357	21736
831.496	21930
831.635	21652
831.774	21447
831.913	21466
832.051	21462
832.19	21424
832.329	21519
832.467	21313
832.606	21370
832.744	21386
832.883	21317
833.022	21272
833.16	21306
833.299	21291
833.437	21310
833.576	21298
833.714	21329
833.852	21386
833.991	21431
834.129	21443
834.267	21386
834.406	21245
834.544	21397
834.682	21211
834.821	21310
834.959	21336
835.097	21199
835.235	21382
835.373	21264
835.511	21351
835.65	21123
835.788	21226
835.926	21112
836.064	20994
836.202	20982
836.34	21157
836.478	21245
836.615	21154
836.753	21211
836.891	21161
837.029	21252
837.167	21112
837.305	21043
837.443	21116
837.58	21043
837.718	21024
837.856	21157
837.993	21001
838.131	21081
838.269	20910
838.406	20948
838.544	20880
838.681	20765
838.819	20545
838.956	20442
839.094	20465
839.231	20495
839.369	20583
839.506	20670
839.643	20674
839.781	20541
839.918	20377
840.055	20412
840.193	20545
840.33	20385
840.467	20450
840.604	20313
840.742	20663
840.879	20183
841.016	20252
841.153	20214
841.29	20499
841.427	20343
841.564	20446
841.701	20355
841.838	20351
841.975	20324
842.112	20149
842.249	20100
842.385	20077
842.522	20290
842.659	20168
842.796	20046
842.933	20115
843.069	20046
843.206	20005
843.343	20199
843.479	20164
843.616	20142
843.752	19791
843.889	19917
844.025	19864
844.162	19826
844.298	19928
844.435	19765
844.571	19864
844.708	19868
844.844	19955
844.98	19921
845.117	19967
845.253	19746
845.389	19734
845.525	19868
845.661	19742
845.798	19552
845.934	19685
846.07	19674
846.206	19632
846.342	19746
846.478	19738
846.614	19350
846.75	19358
846.886	19308
847.022	19422
847.158	19453
847.294	19369
847.429	19400
847.565	19304
847.701	19586
847.837	19118
847.972	19031
848.108	19228
848.244	19015
848.379	18996
848.515	18829
848.65	18882
848.786	18920
848.921	18962
849.057	18943
849.192	18989
849.328	18951
849.463	18821
849.598	18894
849.734	18669
849.869	18665
850.004	18688
850.14	18703
850.275	18612
850.41	18585
850.545	18578
850.68	18551
850.815	18635
850.95	18616
851.085	18776
851.22	18764
851.355	18532
851.49	18608
851.625	18528
851.76	18582
851.895	18456
852.03	18521
852.165	18661
852.299	18604
852.434	18791
852.569	18559
852.703	18582
852.838	18798
852.973	18658
853.107	18726
853.242	18570
853.376	18437
853.511	18445
853.645	18391
853.78	18570
853.914	18426
854.048	18391
854.183	18376
854.317	18486
854.451	18722
854.585	18395
854.72	18506
854.854	18517
854.988	18342
855.122	18509
855.256	18273
855.39	18452
855.524	18532
855.658	18403
855.792	18445
855.926	18369
856.06	18486
856.194	18521
856.327	18551
856.461	18395
856.595	18384
856.729	18498
856.862	18658
856.996	18547
857.13	18517
857.263	18456
857.397	18521
857.53	18391
857.664	18452
857.797	18376
857.931	18506
858.064	18445
858.197	18426
858.331	18452
858.464	18353
858.597	18300
858.731	18357
858.864	18300
858.997	18338
859.13	18445
859.263	18372
859.396	18589
859.529	18270
859.662	18266
859.795	18300
859.928	18350
860.061	18490
860.194	18506
860.327	18384
860.46	18304
860.592	18445
860.725	18414
860.858	18513
860.99	18277
861.123	18296
861.256	18369
861.388	18376
861.521	19008
861.653	18330
861.786	18098
861.918	18296
862.05	18311
862.183	18448
862.315	18441
862.447	18475
862.58	18338
862.712	18129
862.844	18087
862.976	18205
863.108	18228
863.24	18559
863.372	18019
863.504	18232
863.636	18114
863.768	18178
863.9	18117
864.032	18125
864.164	18060
864.296	18083
864.428	18194
864.559	18102
864.691	18083
864.823	18041
864.954	18144
865.086	18098
865.217	18060
865.349	17855
865.48	18026
865.612	18038
865.743	18163
865.875	17992
866.006	17999
866.137	17980
866.269	18079
866.4	18041
866.531	18072
866.662	17923
866.793	17927
866.924	17931
867.055	17946
867.186	17954
867.317	17828
867.448	17817
867.579	17798
867.71	17961
867.841	17961
867.972	18026
868.103	17942
868.233	17980
868.364	18011
868.495	18167
868.625	18239
868.756	18239
868.886	18129
869.017	18163
869.147	18262
869.278	18281
869.408	18224
869.539	18114
869.669	18194
869.799	18285
869.929	18338
870.06	18224
870.19	18521
870.32	18517
870.45	18559
870.58	18597
870.71	18715
870.84	18745
870.97	18654
871.1	18669
871.23	18753
871.36	18745
871.489	18646
871.619	18772
871.749	18810
871.879	18749
872.008	18943
872.138	18867
872.267	18837
872.397	18684
872.526	18559
872.656	18536
872.785	18555
872.915	18745
873.044	18856
873.173	18863
873.303	18700
873.432	18920
873.561	18863
873.69	18783
873.819	18905
873.948	18928
874.077	18924
874.206	18779
874.335	18814
874.464	18973
874.593	19141
874.722	18890
874.851	19126
874.979	19065
875.108	19217
875.237	18996
875.365	18943
875.494	18977
875.623	19206
875.751	19091
875.88	19110
876.008	19251
876.136	19373
876.265	19487
876.393	19597
876.521	19518
876.65	19693
876.778	19693
876.906	19499
877.034	19533
877.162	19369
877.29	19358
877.418	19453
877.546	19480
877.674	19487
877.802	19472
877.93	19609
878.058	19449
878.185	19358
878.313	19430
878.441	19453
878.568	19343
878.696	19403
878.824	19460
878.951	19472
879.079	19616
879.206	19883
879.333	19590
879.461	19502
879.588	19765
879.715	19708
879.842	19727
879.97	19533
880.097	19362
880.224	19343
880.351	19320
880.478	19377
880.605	19217
880.732	19350
880.859	19571
880.986	19358
881.112	19377
881.239	19171
881.366	19160
881.493	18958
881.619	19065
881.746	19031
881.872	18924
881.999	18810
882.125	18932
882.252	18939
882.378	18981
882.505	18920
882.631	18802
882.757	18707
882.883	18738
883.01	18631
883.136	18726
883.262	18490
883.388	18589
883.514	18703
883.64	18749
883.766	18631
883.892	18578
884.018	18528
884.143	18673
884.269	18913
884.395	18391
884.52	18372
884.646	18452
884.772	18285
884.897	18243
885.023	18483
885.148	18422
885.274	18456
885.399	18509
885.524	18361
885.65	18433
885.775	18357
885.9	18289
886.025	18490
886.15	18502
886.275	18308
886.4	18251
886.525	18311
886.65	18353
886.775	18213
886.9	18521
887.025	18525
887.149	18258
887.274	18148
887.399	18171
887.523	18144
887.648	17961
887.773	18117
887.897	18239
888.021	18106
888.146	18072
888.27	18159
888.395	18232
888.519	18216
888.643	18213
888.767	18178
888.891	17946
889.015	17855
889.139	17939
889.263	17893
889.387	18022
889.511	18167
889.635	18034
889.759	17923
889.883	17920
890.006	17912
890.13	17958
890.254	17859
890.377	17965
890.501	17745
890.624	17653
890.748	17901
890.871	17543
890.995	17600
891.118	17467
891.241	17501
891.364	17581
891.488	17710
891.611	17630
891.734	17589
891.857	17630
891.98	17585
892.103	17570
892.226	17627
892.349	17509
892.471	17364
892.594	17459
892.717	17421
892.839	17490
892.962	17463
893.085	17600
893.207	17547
893.33	17376
893.452	17406
893.575	17516
893.697	17573
893.819	17687
893.941	17691
894.064	17528
894.186	17581
894.308	17478
894.43	17672
894.552	17733
894.674	17649
894.796	17467
894.918	17547
895.04	17547
895.161	17562
895.283	17558
895.405	17505
895.526	17535
895.648	17554
895.769	17642
895.891	17604
896.012	17573
896.134	17649
896.255	17551
896.376	17547
896.498	17638
896.619	17695
896.74	17634
896.861	17714
896.982	17866
897.103	18197
897.224	17866
897.345	17866
897.466	17790
897.587	17901
897.708	17969
897.828	17843
897.949	17695
898.07	17703
898.19	17653
898.311	17885
898.431	17718
898.552	17882
898.672	17958
898.792	17950
898.913	17904
899.033	17729
899.153	17547
899.273	17490
899.393	17585
899.513	17661
899.633	17535
899.753	17608
899.873	17539
899.993	17649
900.113	17490
900.232	17566
900.352	17539
900.472	17509
900.591	17315
900.711	17573
900.83	17444
900.95	17535
901.069	17528
901.189	17429
901.308	17178
901.427	17048
901.546	17075
901.665	17098
901.784	17239
901.904	17033
902.023	16896
902.141	16698
902.26	16580
902.379	16656
902.498	16641
902.617	16443
902.735	16527
902.854	16527
902.973	16405
903.091	16299
903.21	16204
903.328	16356
903.446	16246
903.565	16131
903.683	16097
903.801	16006
903.919	16063
904.038	16071
904.156	15888
904.274	16067
904.392	15884
904.51	15934
904.627	15892
904.745	15949
904.863	15835
904.981	15625
905.098	15561
905.216	15542
905.334	15481
905.451	15622
905.569	15557
905.686	15591
905.803	15523
905.921	15450
906.038	15420
906.155	15412
906.272	15252
906.389	15302
906.506	15131
906.623	15017
906.74	15085
906.857	15051
906.974	15066
907.091	15199
907.208	15222
907.324	15047
907.441	15036
907.557	14849
907.674	14853
907.79	14777
907.907	14819
908.023	14872
908.139	14853
908.256	14731
908.372	14705
908.488	14644
908.604	14560
908.72	14518
908.836	14583
908.952	14488
909.068	14507
909.184	14571
909.3	14492
909.415	14511
909.531	14488
909.647	14347
909.762	14301
909.878	14214
909.993	14309
910.108	14202
910.224	14225
910.339	14275
910.454	14081
910.57	14024
910.685	13944
910.8	14286
910.915	14206
911.03	14069
911.145	13875
911.259	13909
911.374	13879
911.489	13799
911.604	13807
911.718	13655
911.833	13613
911.947	13540
912.062	13499
912.176	13567
912.291	13628
912.405	13556
912.519	13791
912.633	13750
912.748	13655
912.862	13575
912.976	13495
913.09	13358
913.204	13384
913.318	13495
913.431	13605
913.545	13510
913.659	13548
913.772	13468
913.886	13335
914	13316
914.113	13373
914.226	13396
914.34	13377
914.453	13232
914.566	13301
914.68	13213
914.793	13209
914.906	13027
915.019	13042
915.132	12852
915.245	12962
915.358	12943
915.47	12977
915.583	12954
915.696	13004
915.809	13034
915.921	13038
916.034	12993
916.146	12943
916.259	12905
916.371	12962
916.483	12901
916.595	12798
916.708	12852
916.82	12806
916.932	12722
917.044	12844
917.156	12798
917.268	12711
917.38	12688
917.491	12684
917.603	12711
917.715	12722
917.826	12669
917.938	12692
918.049	12525
918.161	12665
918.272	12882
918.384	12768
918.495	12715
918.606	12528
918.717	12410
918.828	12532
918.939	12532
919.05	12403
919.161	12521
919.272	12315
919.383	12235
919.494	12517
919.604	12692
919.715	12521
919.826	12422
919.936	12441
920.047	12483
920.157	12456
920.267	12612
920.378	12502
920.488	12410
920.598	12563
920.708	12814
920.818	12578
920.928	12540
921.038	12814
921.148	12768
921.258	12422
921.368	12350
921.477	12292
921.587	12224
921.697	12087
921.806	12197
921.916	12098
922.025	11946
922.134	11946
922.244	11897
922.353	11961
922.462	11840
922.571	11786
922.68	11642
922.789	11596
922.898	11627
923.007	11520
923.116	11551
923.224	11570
923.333	11611
923.442	11444
923.55	11467
923.659	11383
923.767	11398
923.876	11383
923.984	11395
924.092	11277
924.201	11379
924.309	11296
924.417	11330
924.525	11261
924.633	11303
924.741	12304
924.849	11045
924.956	11254
925.064	11105
925.172	11014
925.279	11060
925.387	10991
925.494	11147
925.602	11155
925.709	11220
925.816	11003
925.924	11029
926.031	11162
926.138	11022
926.245	11117
926.352	10972
926.459	11105
926.566	11121
926.673	11014
926.779	10873
926.886	10828
926.993	10790
927.099	10763
927.206	10717
927.312	10630
927.419	10755
927.525	10641
927.631	10801
927.737	10645
927.843	10626
927.95	10538
928.056	10603
928.162	10622
928.267	10561
928.373	11242
928.479	10618
928.585	10409
928.69	10508
928.796	10584
928.901	10493
929.007	10325
929.112	10432
929.218	10363
929.323	10405
929.428	10291
929.533	10455
929.638	10272
929.743	10356
929.848	10363
929.953	10382
930.058	10276
930.163	10067
930.267	10086
930.372	10234
930.477	10036
930.581	10181
930.685	10150
930.79	9915
930.894	9880
930.998	9956
931.103	10116
931.207	9720
931.311	9694
931.415	9610
931.519	9416
931.623	9412
