Data from test_V78500241_1475.txt Node
Date: Fri Mar 25 14:43:59 CST 2022
User: usil
Spectrometer: V785-0024
Trigger mode: 0
Integration Time (sec): 4.000000E-1
Scans to average: 1
Nonlinearity correction enabled: false
Boxcar width: 0
Storing dark spectrum: false
XAxis mode: Wavelengths
Number of Pixels in Spectrum: 1024
>>>>>Begin Spectral Data<<<<<
801.071	22303
801.214	22215
801.356	22082
801.499	21934
801.641	21720
801.783	21732
801.926	21717
802.068	21591
802.211	21519
802.353	21488
802.496	21367
802.638	21222
802.78	21195
802.923	21100
803.065	21199
803.208	21135
803.35	21043
803.492	21230
803.635	21176
803.777	21131
803.919	21260
804.061	21473
804.204	21218
804.346	21032
804.488	20982
804.63	21032
804.773	20956
804.915	21047
805.057	21230
805.199	21017
805.341	21195
805.483	21161
805.626	21150
805.768	20963
805.91	20986
806.052	20933
806.194	20948
806.336	21127
806.478	21028
806.62	21005
806.762	21207
806.904	21264
807.046	21488
807.188	21435
807.33	21401
807.472	21450
807.614	21386
807.756	21325
807.898	21237
808.04	21096
808.182	21203
808.324	21249
808.465	21317
808.607	21485
808.749	21599
808.891	21698
809.033	21812
809.174	21660
809.316	21637
809.458	21583
809.6	21321
809.741	21576
809.883	21572
810.025	21701
810.166	21519
810.308	21557
810.45	21492
810.591	21443
810.733	21447
810.875	21275
811.016	21173
811.158	21154
811.299	21176
811.441	21317
811.582	21412
811.724	21211
811.865	21260
812.007	21275
812.148	21241
812.29	21252
812.431	21332
812.573	21580
812.714	21614
812.855	21705
812.997	21892
813.138	21838
813.279	21778
813.421	21736
813.562	21542
813.703	21496
813.845	21424
813.986	21093
814.127	20956
814.268	20758
814.41	20819
814.551	20762
814.692	20785
814.833	20697
814.974	20758
815.115	20651
815.256	20693
815.397	20575
815.539	20667
815.68	20473
815.821	20499
815.962	20492
816.103	20503
816.244	20355
816.385	20229
816.526	20248
816.666	20035
816.807	19940
816.948	19849
817.089	20001
817.23	19913
817.371	19871
817.512	19890
817.653	19856
817.793	19753
817.934	19807
818.075	19883
818.216	19906
818.356	19906
818.497	19746
818.638	19632
818.778	19643
818.919	19605
819.06	19639
819.2	19727
819.341	19822
819.481	19753
819.622	19799
819.762	20073
819.903	20100
820.043	19894
820.184	19879
820.324	19921
820.465	20024
820.605	19826
820.746	19849
820.886	19696
821.026	19925
821.167	19864
821.307	19894
821.447	19776
821.588	19742
821.728	19563
821.868	19358
822.008	19285
822.149	19304
822.289	19301
822.429	19099
822.569	18993
822.709	19065
822.849	18844
822.99	18795
823.13	18681
823.27	18719
823.41	18612
823.55	18582
823.69	18593
823.83	18589
823.97	18391
824.11	18384
824.25	18365
824.389	18350
824.529	18460
824.669	18376
824.809	18490
824.949	18528
825.089	18403
825.228	18437
825.368	18079
825.508	18205
825.648	18117
825.787	18197
825.927	18239
826.067	18079
826.206	18110
826.346	18174
826.485	18186
826.625	18083
826.765	18235
826.904	18197
827.044	17999
827.183	17882
827.323	17733
827.462	17950
827.601	17847
827.741	17847
827.88	17817
828.02	17794
828.159	17824
828.298	17973
828.437	17794
828.577	17748
828.716	17897
828.855	17752
828.994	17558
829.134	17528
829.273	17592
829.412	17562
829.551	17570
829.69	17490
829.829	17497
829.968	17695
830.107	17608
830.246	17528
830.385	17471
830.524	17459
830.663	17379
830.802	17406
830.941	17105
831.08	17277
831.219	17239
831.357	17288
831.496	17493
831.635	17273
831.774	17056
831.913	17003
832.051	16828
832.19	17018
832.329	16862
832.467	16877
832.606	16866
832.744	16900
832.883	16877
833.022	16881
833.16	16877
833.299	16877
833.437	16877
833.576	16911
833.714	16934
833.852	16949
833.991	16915
834.129	17041
834.267	17003
834.406	16942
834.544	17037
834.682	17022
834.821	16923
834.959	17083
835.097	16839
835.235	16999
835.373	16991
835.511	16889
835.65	16752
835.788	16866
835.926	16809
836.064	16538
836.202	16702
836.34	16885
836.478	16972
836.615	16812
836.753	16919
836.891	17006
837.029	16831
837.167	16702
837.305	16740
837.443	16774
837.58	16736
837.718	16797
837.856	16660
837.993	16622
838.131	16649
838.269	16725
838.406	16554
838.544	16474
838.681	16379
838.819	16443
838.956	16284
839.094	16166
839.231	16257
839.369	16424
839.506	16546
839.643	16474
839.781	16200
839.918	16101
840.055	16291
840.193	16272
840.33	16261
840.467	16158
840.604	16303
840.742	16436
840.879	16139
841.016	16101
841.153	16177
841.29	16291
841.427	16303
841.564	16246
841.701	16211
841.838	16135
841.975	16173
842.112	16105
842.249	16071
842.385	15975
842.522	16166
842.659	16002
842.796	15895
842.933	16021
843.069	15911
843.206	15991
843.343	16074
843.479	15884
843.616	16059
843.752	15728
843.889	15816
844.025	15865
844.162	15846
844.298	15884
844.435	15842
844.571	15686
844.708	15873
844.844	15892
844.98	15941
845.117	15926
845.253	15747
845.389	15652
845.525	15823
845.661	15804
845.798	15785
845.934	15915
846.07	15945
846.206	15812
846.342	16059
846.478	15728
846.614	15447
846.75	15397
846.886	15359
847.022	15382
847.158	15412
847.294	15344
847.429	15481
847.565	15397
847.701	15572
847.837	15100
847.972	15070
848.108	15256
848.244	15146
848.379	15028
848.515	14941
848.65	14921
848.786	15001
848.921	14975
849.057	15116
849.192	15108
849.328	14960
849.463	15058
849.598	14891
849.734	14853
849.869	14823
850.004	14750
850.14	14819
850.275	14716
850.41	14765
850.545	14735
850.68	14754
850.815	14724
850.95	14720
851.085	14880
851.22	14716
851.355	14842
851.49	14724
851.625	14670
851.76	14724
851.895	14571
852.03	14663
852.165	14648
852.299	14746
852.434	14864
852.569	14739
852.703	14769
852.838	14804
852.973	14872
853.107	14880
853.242	14621
853.376	14651
853.511	14423
853.645	14629
853.78	14716
853.914	14598
854.048	14571
854.183	14583
854.317	14663
854.451	14705
854.585	14579
854.72	14526
854.854	14610
854.988	14575
855.122	14533
855.256	14442
855.39	14571
855.524	14583
855.658	14640
855.792	14632
855.926	14590
856.06	14716
856.194	14716
856.327	14598
856.461	14522
856.595	14621
856.729	14564
856.862	14648
856.996	14667
857.13	14617
857.263	14750
857.397	14765
857.53	14530
857.664	14621
857.797	14701
857.931	14727
858.064	14613
858.197	14705
858.331	14648
858.464	14564
858.597	14617
858.731	14549
858.864	14602
858.997	14571
859.13	14686
859.263	14602
859.396	14629
859.529	14503
859.662	14537
859.795	14636
859.928	14564
860.061	14739
860.194	14804
860.327	14610
860.46	14602
860.592	14686
860.725	14724
860.858	14743
860.99	14549
861.123	14568
861.256	14473
861.388	14610
861.521	15283
861.653	14518
861.786	14438
861.918	14412
862.05	14488
862.183	14526
862.315	14560
862.447	14629
862.58	14644
862.712	14400
862.844	14317
862.976	14374
863.108	14484
863.24	14826
863.372	14393
863.504	14290
863.636	14438
863.768	14442
863.9	14404
864.032	14313
864.164	14355
864.296	14362
864.428	14454
864.559	14461
864.691	14446
864.823	14465
864.954	14400
865.086	14358
865.217	14328
865.349	14313
865.48	14408
865.612	14339
865.743	14526
865.875	14370
866.006	14320
866.137	14328
866.269	14313
866.4	14313
866.531	14259
866.662	14286
866.793	14290
866.924	14278
867.055	14385
867.186	14267
867.317	14298
867.448	14267
867.579	14210
867.71	14183
867.841	14214
867.972	14370
868.103	14313
868.233	14362
868.364	14362
868.495	14461
868.625	14522
868.756	14556
868.886	14503
869.017	14473
869.147	14693
869.278	14762
869.408	14598
869.539	14598
869.669	14648
869.799	14686
869.929	14682
870.06	14693
870.19	14895
870.32	14864
870.45	14952
870.58	14952
870.71	15097
870.84	15146
870.97	14971
871.1	14906
871.23	15173
871.36	15142
871.489	15047
871.619	15089
871.749	15150
871.879	15230
872.008	15279
872.138	15218
872.267	15222
872.397	15017
872.526	14971
872.656	14967
872.785	15116
872.915	15249
873.044	15192
873.173	15165
873.303	15359
873.432	15310
873.561	15291
873.69	15279
873.819	15207
873.948	15252
874.077	15188
874.206	15161
874.335	15329
874.464	15401
874.593	15462
874.722	15542
874.851	15587
874.979	15538
875.108	15587
875.237	15473
875.365	15488
875.494	15587
875.623	15633
875.751	15469
875.88	15641
876.008	15641
876.136	15675
876.265	16040
876.393	15983
876.521	16029
876.65	16025
876.778	15979
876.906	15934
877.034	15850
877.162	15907
877.29	15880
877.418	16010
877.546	15934
877.674	15926
877.802	16013
877.93	16032
878.058	15854
878.185	15778
878.313	15941
878.441	16002
878.568	15888
878.696	15903
878.824	16090
878.951	16112
879.079	16246
879.206	16341
879.333	16276
879.461	16105
879.588	16226
879.715	16265
879.842	16329
879.97	16082
880.097	15835
880.224	15781
880.351	15972
880.478	15838
880.605	15812
880.732	15850
880.859	16010
880.986	15861
881.112	15941
881.239	15698
881.366	15675
881.493	15561
881.619	15469
881.746	15591
881.872	15610
881.999	15561
882.125	15473
882.252	15591
882.378	15530
882.505	15564
882.631	15435
882.757	15260
882.883	15428
883.01	15199
883.136	15195
883.262	15184
883.388	15146
883.514	15336
883.64	15336
883.766	15310
883.892	15195
884.018	15165
884.143	15233
884.269	15393
884.395	15089
884.52	14906
884.646	14960
884.772	14982
884.897	14944
885.023	14998
885.148	15097
885.274	15226
885.399	15146
885.524	15036
885.65	15005
885.775	15001
885.9	15032
886.025	15135
886.15	15077
886.275	14956
886.4	14842
886.525	14933
886.65	14868
886.775	14975
886.9	15032
887.025	15150
887.149	14967
887.274	14807
887.399	14716
887.523	14815
887.648	14796
887.773	14777
887.897	14864
888.021	14887
888.146	14785
888.27	14868
888.395	14918
888.519	14895
888.643	14796
888.767	14842
888.891	14693
889.015	14720
889.139	14663
889.263	14716
889.387	14864
889.511	14796
889.635	14830
889.759	14648
889.883	14667
890.006	14689
890.13	14823
890.254	14533
890.377	14549
890.501	14530
890.624	14454
890.748	14457
890.871	14374
890.995	14290
891.118	14328
891.241	14400
891.364	14400
891.488	14503
891.611	14396
891.734	14461
891.857	14476
891.98	14370
892.103	14457
892.226	14362
892.349	14374
892.471	14290
892.594	14244
892.717	14400
892.839	14385
892.962	14298
893.085	14412
893.207	14256
893.33	14278
893.452	14202
893.575	14461
893.697	14347
893.819	14556
893.941	14590
894.064	14400
894.186	14358
894.308	14347
894.43	14362
894.552	14537
894.674	14511
894.796	14320
894.918	14366
895.04	14404
895.161	14568
895.283	14473
895.405	14355
895.526	14404
895.648	14355
895.769	14434
895.891	14564
896.012	14454
896.134	14541
896.255	14575
896.376	14480
896.498	14492
896.619	14484
896.74	14442
896.861	14606
896.982	14796
897.103	14944
897.224	14762
897.345	14830
897.466	14693
897.587	14830
897.708	14921
897.828	14815
897.949	14708
898.07	14598
898.19	14712
898.311	14902
898.431	14868
898.552	14750
898.672	14918
898.792	14921
898.913	14906
899.033	14762
899.153	14708
899.273	14629
899.393	14667
899.513	14716
899.633	14674
899.753	14701
899.873	14613
899.993	14800
900.113	14583
900.232	14716
900.352	14670
900.472	14579
900.591	14594
900.711	14613
900.83	14514
900.95	14621
901.069	14762
901.189	14549
901.308	14294
901.427	14267
901.546	14183
901.665	14259
901.784	14271
901.904	14149
902.023	14046
902.141	13879
902.26	13852
902.379	13864
902.498	13780
902.617	13719
902.735	13875
902.854	13833
902.973	13753
903.091	13582
903.21	13400
903.328	13540
903.446	13453
903.565	13411
903.683	13445
903.801	13263
903.919	13343
904.038	13331
904.156	13209
904.274	13266
904.392	13171
904.51	13171
904.627	13297
904.745	13247
904.863	13198
904.981	13012
905.098	12848
905.216	12856
905.334	12928
905.451	12867
905.569	12882
905.686	12973
905.803	12939
905.921	12798
906.038	12833
906.155	12837
906.272	12669
906.389	12597
906.506	12475
906.623	12486
906.74	12551
906.857	12323
906.974	12418
907.091	12563
907.208	12566
907.324	12582
907.441	12471
907.557	12243
907.674	12289
907.79	12201
907.907	12190
908.023	12235
908.139	12292
908.256	12213
908.372	12209
908.488	12216
908.604	12129
908.72	12007
908.836	12026
908.952	12015
909.068	12110
909.184	12121
909.3	11988
909.415	12114
909.531	11973
909.647	11802
909.762	11760
909.878	11680
909.993	11802
910.108	11805
910.224	11756
910.339	11756
910.454	11634
910.57	11623
910.685	11554
910.8	11882
910.915	11821
911.03	11649
911.145	11509
911.259	11471
911.374	11467
911.489	11368
911.604	11368
911.718	11220
911.833	11303
911.947	11162
912.062	11140
912.176	11242
912.291	11178
912.405	11159
912.519	11440
912.633	11436
912.748	11341
912.862	11273
912.976	11090
913.09	10980
913.204	11075
913.318	11105
913.431	11170
913.545	11216
913.659	11239
913.772	11056
913.886	11029
914	10915
914.113	11083
914.226	11124
914.34	11090
914.453	10778
914.566	11117
914.68	10934
914.793	10889
914.906	10725
915.019	10702
915.132	10607
915.245	10733
915.358	10733
915.47	10664
915.583	10828
915.696	10828
915.809	10885
915.921	10885
916.034	10710
916.146	10664
916.259	10649
916.371	10748
916.483	10710
916.595	10653
916.708	10668
916.82	10687
916.932	10664
917.044	10641
917.156	10580
917.268	10538
917.38	10580
917.491	10459
917.603	10508
917.715	10592
917.826	10710
917.938	10546
918.049	10432
918.161	10554
918.272	10660
918.384	10687
918.495	10508
918.606	10421
918.717	10337
918.828	10436
918.939	10382
919.05	10417
919.161	10375
919.272	10242
919.383	10268
919.494	10417
919.604	10577
919.715	10462
919.826	10352
919.936	10363
920.047	10516
920.157	10489
920.267	10607
920.378	10481
920.488	10466
920.598	10592
920.708	10752
920.818	10626
920.928	10641
921.038	10767
921.148	10759
921.258	10455
921.368	10310
921.477	10344
921.587	10215
921.697	10169
921.806	10306
921.916	10188
922.025	9994
922.134	9968
922.244	9987
922.353	10044
922.462	9846
922.571	9724
922.68	9644
922.789	9606
922.898	9679
923.007	9652
923.116	9740
923.224	9679
923.333	9618
923.442	9545
923.55	9545
923.659	9599
923.767	9671
923.876	9549
923.984	9633
924.092	9454
924.201	9553
924.309	9603
924.417	9576
924.525	9477
924.633	9545
924.741	10466
924.849	9329
924.956	9454
925.064	9317
925.172	9241
925.279	9279
925.387	9268
925.494	9325
925.602	9519
925.709	9386
925.816	9222
925.924	9298
926.031	9386
926.138	9298
926.245	9378
926.352	9218
926.459	9321
926.566	9454
926.673	9256
926.779	9119
926.886	9138
926.993	9074
927.099	9051
927.206	8963
927.312	8960
927.419	9081
927.525	9017
927.631	9131
927.737	8971
927.843	8918
927.95	8785
928.056	8937
928.162	8914
928.267	8990
928.373	9572
928.479	8982
928.585	8796
928.69	8834
928.796	8998
928.901	8834
929.007	8716
929.112	8857
929.218	8815
929.323	8762
929.428	8705
929.533	8902
929.638	8689
929.743	8724
929.848	8773
929.953	8758
930.058	8606
930.163	8469
930.267	8514
930.372	8693
930.477	8434
930.581	8678
930.685	8533
930.79	8355
930.894	8537
930.998	8408
931.103	8594
931.207	8218
931.311	8237
931.415	8115
931.519	7970
931.623	7913
