Data from test_V78500241_326.txt Node
Date: Fri Mar 25 14:35:59 CST 2022
User: usil
Spectrometer: V785-0024
Trigger mode: 0
Integration Time (sec): 4.000000E-1
Scans to average: 1
Nonlinearity correction enabled: false
Boxcar width: 0
Storing dark spectrum: false
XAxis mode: Wavelengths
Number of Pixels in Spectrum: 1024
>>>>>Begin Spectral Data<<<<<
801.071	26921
801.214	26754
801.356	26815
801.499	26533
801.641	26518
801.783	26328
801.926	26374
802.068	26351
802.211	26233
802.353	26328
802.496	26263
802.638	26100
802.78	25936
802.923	25974
803.065	25826
803.208	25963
803.35	25963
803.492	26065
803.635	25947
803.777	25974
803.919	26111
804.061	26343
804.204	26092
804.346	25993
804.488	25845
804.63	26020
804.773	25784
804.915	25974
805.057	26107
805.199	25906
805.341	26027
805.483	25982
805.626	26088
805.768	25940
805.91	26031
806.052	26005
806.194	25909
806.336	26115
806.478	26020
806.62	26020
806.762	26024
806.904	26259
807.046	26400
807.188	26381
807.33	26328
807.472	26446
807.614	26248
807.756	26248
807.898	26180
808.04	26081
808.182	26111
808.324	26244
808.465	26168
808.607	26305
808.749	26564
808.891	26644
809.033	26724
809.174	26556
809.316	26453
809.458	26663
809.6	26560
809.741	26442
809.883	26533
810.025	26739
810.166	26640
810.308	26697
810.45	26659
810.591	26579
810.733	26423
810.875	26366
811.016	26381
811.158	26096
811.299	26457
811.441	26473
811.582	26427
811.724	26347
811.865	26328
812.007	26252
812.148	26278
812.29	26317
812.431	26503
812.573	26590
812.714	26640
812.855	26720
812.997	26864
813.138	27062
813.279	26899
813.421	26876
813.562	26773
813.703	26625
813.845	26571
813.986	26218
814.127	26088
814.268	26031
814.41	25940
814.551	25818
814.692	25993
814.833	25868
814.974	25822
815.115	25902
815.256	25712
815.397	25723
815.539	25696
815.68	25719
815.821	25620
815.962	25582
816.103	25605
816.244	25605
816.385	25308
816.526	25270
816.666	25137
816.807	25034
816.948	25034
817.089	24951
817.23	25050
817.371	24996
817.512	24951
817.653	25008
817.793	24935
817.934	24970
818.075	25019
818.216	25053
818.356	25008
818.497	24859
818.638	24665
818.778	24555
818.919	24821
819.06	24741
819.2	24700
819.341	24913
819.481	24837
819.622	25118
819.762	25194
819.903	25221
820.043	25137
820.184	24970
820.324	25088
820.465	25091
820.605	25072
820.746	24977
820.886	24973
821.026	25023
821.167	24954
821.307	24878
821.447	24901
821.588	24814
821.728	24688
821.868	24498
822.008	24346
822.149	24243
822.289	24315
822.429	23939
822.569	24045
822.709	23931
822.849	23889
822.99	23752
823.13	23828
823.27	23661
823.41	23661
823.55	23448
823.69	23653
823.83	23497
823.97	23524
824.11	23265
824.25	23398
824.389	23277
824.529	23337
824.669	23322
824.809	23486
824.949	23356
825.089	23558
825.228	23387
825.368	23174
825.508	23216
825.648	23174
825.787	23162
825.927	23143
826.067	23193
826.206	23189
826.346	23223
826.485	23121
826.625	23121
826.765	23261
826.904	23189
827.044	22892
827.183	22980
827.323	22812
827.462	22866
827.601	22831
827.741	22736
827.88	22752
828.02	22736
828.159	22793
828.298	22755
828.437	22866
828.577	22805
828.716	22900
828.855	22702
828.994	22512
829.134	22500
829.273	22653
829.412	22440
829.551	22466
829.69	22497
829.829	22440
829.968	22504
830.107	22580
830.246	22466
830.385	22478
830.524	22413
830.663	22337
830.802	22185
830.941	22143
831.08	22051
831.219	22268
831.357	22166
831.496	22143
831.635	22013
831.774	22002
831.913	21911
832.051	21793
832.19	21911
832.329	21804
832.467	21827
832.606	21644
832.744	21641
832.883	21694
833.022	21755
833.16	21663
833.299	21781
833.437	21732
833.576	21751
833.714	21667
833.852	21759
833.991	21911
834.129	21793
834.267	21789
834.406	21747
834.544	21785
834.682	21690
834.821	21755
834.959	21823
835.097	21572
835.235	21812
835.373	21599
835.511	21675
835.65	21641
835.788	21492
835.926	21553
836.064	21458
836.202	21428
836.34	21618
836.478	21603
836.615	21481
836.753	21526
836.891	21587
837.029	21496
837.167	21462
837.305	21599
837.443	21458
837.58	21401
837.718	21557
837.856	21363
837.993	21275
838.131	21389
838.269	21298
838.406	21249
838.544	21264
838.681	20979
838.819	20986
838.956	20899
839.094	20823
839.231	20990
839.369	21089
839.506	21298
839.643	21116
839.781	20914
839.918	20754
840.055	20769
840.193	20762
840.33	20804
840.467	20857
840.604	20834
840.742	21036
840.879	20587
841.016	20663
841.153	20533
841.29	20792
841.427	20670
841.564	20804
841.701	20686
841.838	20724
841.975	20674
842.112	20564
842.249	20522
842.385	20461
842.522	20788
842.659	20507
842.796	20393
842.933	20556
843.069	20347
843.206	20503
843.343	20419
843.479	20526
843.616	20446
843.752	20275
843.889	20286
844.025	20374
844.162	20221
844.298	20332
844.435	20271
844.571	20252
844.708	20191
844.844	20343
844.98	20381
845.117	20278
845.253	20081
845.389	20046
845.525	20115
845.661	20145
845.798	20092
845.934	20065
846.07	20084
846.206	20020
846.342	20202
846.478	19917
846.614	19776
846.75	19681
846.886	19624
847.022	19765
847.158	19746
847.294	19674
847.429	19826
847.565	19723
847.701	19978
847.837	19510
847.972	19499
848.108	19567
848.244	19472
848.379	19278
848.515	19308
848.65	19152
848.786	19194
848.921	19285
849.057	19468
849.192	19354
849.328	19270
849.463	19221
849.598	19156
849.734	19148
849.869	19179
850.004	19080
850.14	19034
850.275	19053
850.41	18932
850.545	18913
850.68	18985
850.815	18951
850.95	18928
851.085	19160
851.22	19069
851.355	19126
851.49	19050
851.625	18954
851.76	18996
851.895	18886
852.03	18970
852.165	18943
852.299	19023
852.434	19095
852.569	18966
852.703	18947
852.838	19004
852.973	19091
853.107	19019
853.242	18856
853.376	18829
853.511	18741
853.645	18772
853.78	18886
853.914	18779
854.048	18791
854.183	18837
854.317	18825
854.451	19015
854.585	18768
854.72	18825
854.854	18867
854.988	18787
855.122	18730
855.256	18665
855.39	18817
855.524	18726
855.658	18890
855.792	18821
855.926	18871
856.06	18985
856.194	18890
856.327	18779
856.461	18760
856.595	18593
856.729	18707
856.862	18962
856.996	18909
857.13	18783
857.263	18856
857.397	18844
857.53	18764
857.664	18821
857.797	18814
857.931	18882
858.064	18734
858.197	18840
858.331	18658
858.464	18772
858.597	18544
858.731	18677
858.864	18715
858.997	18722
859.13	18829
859.263	18791
859.396	18882
859.529	18677
859.662	18658
859.795	18642
859.928	18719
860.061	18901
860.194	18810
860.327	18642
860.46	18715
860.592	18829
860.725	18844
860.858	18837
860.99	18669
861.123	18627
861.256	18620
861.388	18749
861.521	19552
861.653	18646
861.786	18506
861.918	18673
862.05	18623
862.183	18692
862.315	18757
862.447	18882
862.58	18768
862.712	18528
862.844	18445
862.976	18585
863.108	18551
863.24	18661
863.372	18388
863.504	18490
863.636	18369
863.768	18494
863.9	18479
864.032	18277
864.164	18361
864.296	18407
864.428	18498
864.559	18479
864.691	18460
864.823	18441
864.954	18426
865.086	18460
865.217	18403
865.349	18296
865.48	18418
865.612	18410
865.743	18551
865.875	18494
866.006	18262
866.137	18350
866.269	18448
866.4	18262
866.531	18334
866.662	18197
866.793	18384
866.924	18258
867.055	18346
867.186	18239
867.317	18315
867.448	18194
867.579	18319
867.71	18194
867.841	18254
867.972	18254
868.103	18289
868.233	18308
868.364	18414
868.495	18357
868.625	18490
868.756	18700
868.886	18483
869.017	18525
869.147	18608
869.278	18677
869.408	18582
869.539	18540
869.669	18627
869.799	18593
869.929	18677
870.06	18627
870.19	18814
870.32	18863
870.45	18920
870.58	18924
870.71	18966
870.84	19069
870.97	18810
871.1	18977
871.23	19088
871.36	19069
871.489	19004
871.619	19069
871.749	19057
871.879	19183
872.008	19171
872.138	19133
872.267	19114
872.397	18966
872.526	18928
872.656	18897
872.785	18954
872.915	19190
873.044	19164
873.173	19118
873.303	19221
873.432	19156
873.561	19183
873.69	19194
873.819	19217
873.948	19247
874.077	19168
874.206	19122
874.335	19088
874.464	19247
874.593	19468
874.722	19282
874.851	19422
874.979	19415
875.108	19559
875.237	19453
875.365	19217
875.494	19304
875.623	19449
875.751	19430
875.88	19430
876.008	19556
876.136	19708
876.265	19852
876.393	19830
876.521	19811
876.65	19986
876.778	19860
876.906	19791
877.034	19788
877.162	19837
877.29	19742
877.418	19769
877.546	19750
877.674	19814
877.802	19845
877.93	19753
878.058	19769
878.185	19738
878.313	19807
878.441	19860
878.568	19685
878.696	19704
878.824	19944
878.951	19917
879.079	20050
879.206	20134
879.333	19963
879.461	19887
879.588	20005
879.715	20054
879.842	20149
879.97	19959
880.097	19750
880.224	19594
880.351	19677
880.478	19620
880.605	19643
880.732	19723
880.859	19860
880.986	19811
881.112	19700
881.239	19685
881.366	19464
881.493	19487
881.619	19232
881.746	19282
881.872	19339
881.999	19240
882.125	19190
882.252	19289
882.378	19247
882.505	19301
882.631	19217
882.757	19057
882.883	19129
883.01	19091
883.136	19069
883.262	18935
883.388	18875
883.514	19164
883.64	19076
883.766	19038
883.892	18920
884.018	18848
884.143	18958
884.269	19042
884.395	18776
884.52	18681
884.646	18730
884.772	18608
884.897	18623
885.023	18650
885.148	18741
885.274	18821
885.399	18730
885.524	18677
885.65	18669
885.775	18696
885.9	18658
886.025	18749
886.15	18684
886.275	18566
886.4	18426
886.525	18620
886.65	18627
886.775	18555
886.9	18856
887.025	18867
887.149	18601
887.274	18654
887.399	18604
887.523	18570
887.648	18422
887.773	18357
887.897	18429
888.021	18620
888.146	18296
888.27	18460
888.395	18475
888.519	18467
888.643	18506
888.767	18513
888.891	18311
889.015	18330
889.139	18243
889.263	18254
889.387	18194
889.511	18384
889.635	18452
889.759	18190
889.883	18285
890.006	18285
890.13	18372
890.254	18098
890.377	18186
890.501	18034
890.624	18011
890.748	18087
890.871	17847
890.995	17836
891.118	17828
891.241	17863
891.364	17942
891.488	17969
891.611	17920
891.734	17893
891.857	18007
891.98	17874
892.103	18060
892.226	17901
892.349	17836
892.471	17714
892.594	17851
892.717	17832
892.839	17653
892.962	17779
893.085	17904
893.207	17767
893.33	17638
893.452	17714
893.575	17901
893.697	17767
893.819	17920
893.941	17977
894.064	17916
894.186	17790
894.308	17745
894.43	17885
894.552	17958
894.674	17874
894.796	17775
894.918	17726
895.04	17809
895.161	17794
895.283	17790
895.405	17786
895.526	17874
895.648	17832
895.769	17946
895.891	17912
896.012	18038
896.134	17893
896.255	17965
896.376	17798
896.498	17832
896.619	17950
896.74	17863
896.861	18026
896.982	18224
897.103	18369
897.224	18220
897.345	18060
897.466	17969
897.587	18213
897.708	18273
897.828	18144
897.949	18087
898.07	17980
898.19	18136
898.311	18243
898.431	18095
898.552	18068
898.672	18228
898.792	18159
898.913	18038
899.033	18064
899.153	17923
899.273	17958
899.393	17885
899.513	17840
899.633	17851
899.753	17931
899.873	17802
899.993	17775
900.113	17897
900.232	17950
900.352	17710
900.472	17802
900.591	17745
900.711	17764
900.83	17547
900.95	17760
901.069	17863
901.189	17657
901.308	17509
901.427	17398
901.546	17334
901.665	17353
901.784	17296
901.904	17197
902.023	17083
902.141	16908
902.26	16953
902.379	16968
902.498	16862
902.617	16812
902.735	16889
902.854	16812
902.973	16805
903.091	16603
903.21	16588
903.328	16531
903.446	16531
903.565	16413
903.683	16413
903.801	16371
903.919	16303
904.038	16333
904.156	16310
904.274	16268
904.392	16230
904.51	16082
904.627	16204
904.745	16131
904.863	16207
904.981	15941
905.098	15823
905.216	15835
905.334	15812
905.451	15823
905.569	15762
905.686	15766
905.803	15865
905.921	15553
906.038	15778
906.155	15705
906.272	15492
906.389	15549
906.506	15306
906.623	15378
906.74	15348
906.857	15252
906.974	15268
907.091	15397
907.208	15492
907.324	15477
907.441	15226
907.557	15017
907.674	15192
907.79	15055
907.907	15009
908.023	15036
908.139	15089
908.256	15017
908.372	14921
908.488	14971
908.604	14819
908.72	14674
908.836	14781
908.952	14762
909.068	14750
909.184	14906
909.3	14716
909.415	14693
909.531	14804
909.647	14568
909.762	14396
909.878	14450
909.993	14560
910.108	14457
910.224	14434
910.339	14457
910.454	14480
910.57	14259
910.685	14259
910.8	14457
910.915	14419
911.03	14195
911.145	14164
911.259	14088
911.374	14149
911.489	14012
911.604	14012
911.718	13780
911.833	13822
911.947	13712
912.062	13696
912.176	13894
912.291	13811
912.405	13864
912.519	13951
912.633	14008
912.748	13909
912.862	13750
912.976	13696
913.09	13616
913.204	13731
913.318	13715
913.431	13708
913.545	13753
913.659	13788
913.772	13677
913.886	13510
914	13388
914.113	13632
914.226	13704
914.34	13578
914.453	13491
914.566	13594
914.68	13441
914.793	13381
914.906	13221
915.019	13141
915.132	13110
915.245	13156
915.358	13209
915.47	13236
915.583	13213
915.696	13278
915.809	13183
915.921	13228
916.034	13190
916.146	13171
916.259	12996
916.371	13156
916.483	13183
916.595	13072
916.708	13061
916.82	13072
916.932	13114
917.044	13015
917.156	13008
917.268	12905
917.38	12939
917.491	12890
917.603	12920
917.715	12932
917.826	12932
917.938	12856
918.049	12726
918.161	12905
918.272	13012
918.384	12981
918.495	12810
918.606	12711
918.717	12772
918.828	12707
918.939	12749
919.05	12654
919.161	12673
919.272	12433
919.383	12582
919.494	12711
919.604	12848
919.715	12646
919.826	12612
919.936	12593
920.047	12802
920.157	12715
920.267	12943
920.378	12700
920.488	12498
920.598	12787
920.708	12981
920.818	12878
920.928	12829
921.038	12973
921.148	12863
921.258	12688
921.368	12540
921.477	12513
921.587	12494
921.697	12190
921.806	12456
921.916	12342
922.025	12110
922.134	12079
922.244	12136
922.353	12144
922.462	11931
922.571	11866
922.68	11866
922.789	11790
922.898	11828
923.007	11653
923.116	11805
923.224	11809
923.333	11695
923.442	11554
923.55	11604
923.659	11558
923.767	11672
923.876	11634
923.984	11691
924.092	11467
924.201	11551
924.309	11573
924.417	11532
924.525	11474
924.633	11516
924.741	12251
924.849	11349
924.956	11391
925.064	11296
925.172	11227
925.279	11288
925.387	11341
925.494	11269
925.602	11429
925.709	11334
925.816	11170
925.924	11315
926.031	11334
926.138	11208
926.245	11280
926.352	11212
926.459	11292
926.566	11212
926.673	11159
926.779	11094
926.886	11006
926.993	11037
927.099	10892
927.206	10816
927.312	10801
927.419	10953
927.525	10991
927.631	10896
927.737	10752
927.843	10809
927.95	10683
928.056	10691
928.162	10805
928.267	10793
928.373	11322
928.479	10801
928.585	10561
928.69	10729
928.796	10782
928.901	10626
929.007	10497
929.112	10592
929.218	10577
929.323	10538
929.428	10451
929.533	10645
929.638	10398
929.743	10500
929.848	10508
929.953	10424
930.058	10322
930.163	10284
930.267	10211
930.372	10421
930.477	10158
930.581	10409
930.685	10242
930.79	10093
930.894	10166
930.998	10071
931.103	10169
931.207	9823
931.311	9819
931.415	9724
931.519	9500
931.623	9496
