Data from test_V78500241_2471.txt Node
Date: Fri Mar 25 14:50:55 CST 2022
User: usil
Spectrometer: V785-0024
Trigger mode: 0
Integration Time (sec): 4.000000E-1
Scans to average: 1
Nonlinearity correction enabled: false
Boxcar width: 0
Storing dark spectrum: false
XAxis mode: Wavelengths
Number of Pixels in Spectrum: 1024
>>>>>Begin Spectral Data<<<<<
801.071	22131
801.214	21991
801.356	21739
801.499	21622
801.641	21469
801.783	21526
801.926	21450
802.068	21469
802.211	21382
802.353	21329
802.496	21157
802.638	20952
802.78	20994
802.923	20800
803.065	20727
803.208	20686
803.35	20796
803.492	20864
803.635	21096
803.777	20925
803.919	20956
804.061	21085
804.204	20769
804.346	20796
804.488	20705
804.63	20716
804.773	20689
804.915	20743
805.057	20990
805.199	20758
805.341	20819
805.483	20910
805.626	20849
805.768	20731
805.91	20735
806.052	20792
806.194	20674
806.336	20849
806.478	20773
806.62	20823
806.762	20868
806.904	20906
807.046	21203
807.188	21116
807.33	21077
807.472	21108
807.614	21036
807.756	20914
807.898	20807
808.04	20804
808.182	20815
808.324	20682
808.465	20883
808.607	21070
808.749	21089
808.891	21245
809.033	21249
809.174	21283
809.316	21036
809.458	21066
809.6	20963
809.741	21218
809.883	21199
810.025	21237
810.166	21363
810.308	21279
810.45	21150
810.591	21207
810.733	20944
810.875	20971
811.016	20876
811.158	20769
811.299	20979
811.441	21055
811.582	20910
811.724	20914
811.865	20788
812.007	20986
812.148	20804
812.29	20998
812.431	20963
812.573	21154
812.714	21264
812.855	21515
812.997	21462
813.138	21606
813.279	21405
813.421	21401
813.562	21447
813.703	21058
813.845	21058
813.986	20674
814.127	20545
814.268	20507
814.41	20514
814.551	20442
814.692	20438
814.833	20351
814.974	20408
815.115	20324
815.256	20119
815.397	20229
815.539	20347
815.68	20240
815.821	20111
815.962	20134
816.103	20130
816.244	19963
816.385	19837
816.526	19765
816.666	19677
816.807	19594
816.948	19655
817.089	19811
817.23	19628
817.371	19514
817.512	19502
817.653	19575
817.793	19624
817.934	19616
818.075	19518
818.216	19464
818.356	19502
818.497	19438
818.638	19232
818.778	19187
818.919	19346
819.06	19232
819.2	19384
819.341	19400
819.481	19453
819.622	19609
819.762	19715
819.903	19795
820.043	19567
820.184	19548
820.324	19441
820.465	19632
820.605	19544
820.746	19487
820.886	19282
821.026	19483
821.167	19487
821.307	19605
821.447	19521
821.588	19316
821.728	19141
821.868	19091
822.008	19000
822.149	18863
822.289	18897
822.429	18646
822.569	18646
822.709	18677
822.849	18407
822.99	18467
823.13	18357
823.27	18380
823.41	18224
823.55	18159
823.69	18266
823.83	18190
823.97	18133
824.11	18022
824.25	17851
824.389	17931
824.529	18045
824.669	18003
824.809	18079
824.949	18022
825.089	18060
825.228	17939
825.368	17855
825.508	17851
825.648	17722
825.787	17866
825.927	17824
826.067	17817
826.206	17646
826.346	17783
826.485	17752
826.625	17710
826.765	17885
826.904	17863
827.044	17482
827.183	17395
827.323	17444
827.462	17566
827.601	17497
827.741	17444
827.88	17402
828.02	17372
828.159	17463
828.298	17520
828.437	17520
828.577	17436
828.716	17581
828.855	17395
828.994	17185
829.134	17159
829.273	17254
829.412	17242
829.551	17113
829.69	17162
829.829	17391
829.968	17368
830.107	17227
830.246	17227
830.385	17151
830.524	17151
830.663	17102
830.802	16904
830.941	16843
831.08	16805
831.219	16866
831.357	16938
831.496	17090
831.635	16854
831.774	16683
831.913	16729
832.051	16599
832.19	16687
832.329	16691
832.467	16599
832.606	16489
832.744	16478
832.883	16527
833.022	16447
833.16	16470
833.299	16573
833.437	16634
833.576	16656
833.714	16504
833.852	16580
833.991	16672
834.129	16580
834.267	16634
834.406	16634
834.544	16660
834.682	16535
834.821	16599
834.959	16656
835.097	16580
835.235	16694
835.373	16641
835.511	16573
835.65	16474
835.788	16558
835.926	16348
836.064	16230
836.202	16329
836.34	16394
836.478	16569
836.615	16573
836.753	16558
836.891	16523
837.029	16436
837.167	16424
837.305	16341
837.443	16287
837.58	16337
837.718	16500
837.856	16242
837.993	16272
838.131	16310
838.269	16181
838.406	16284
838.544	16173
838.681	16013
838.819	16025
838.956	15956
839.094	15930
839.231	15793
839.369	16013
839.506	16253
839.643	16150
839.781	15918
839.918	15854
840.055	15892
840.193	15949
840.33	15827
840.467	15884
840.604	15846
840.742	16158
840.879	15667
841.016	15808
841.153	15755
841.29	15979
841.427	15873
841.564	15903
841.701	15945
841.838	15770
841.975	15793
842.112	15759
842.249	15747
842.385	15679
842.522	15918
842.659	15660
842.796	15667
842.933	15705
843.069	15637
843.206	15622
843.343	15800
843.479	15713
843.616	15644
843.752	15332
843.889	15416
844.025	15599
844.162	15405
844.298	15553
844.435	15534
844.571	15462
844.708	15504
844.844	15633
844.98	15656
845.117	15576
845.253	15355
845.389	15317
845.525	15393
845.661	15310
845.798	15237
845.934	15252
846.07	15321
846.206	15310
846.342	15401
846.478	15199
846.614	15070
846.75	15001
846.886	15028
847.022	15058
847.158	15055
847.294	15055
847.429	15100
847.565	14994
847.701	15256
847.837	14781
847.972	14731
848.108	14868
848.244	14887
848.379	14644
848.515	14571
848.65	14583
848.786	14587
848.921	14606
849.057	14765
849.192	14838
849.328	14663
849.463	14674
849.598	14644
849.734	14503
849.869	14503
850.004	14389
850.14	14438
850.275	14305
850.41	14343
850.545	14317
850.68	14461
850.815	14313
850.95	14461
851.085	14613
851.22	14480
851.355	14301
851.49	14328
851.625	14317
851.76	14336
851.895	14358
852.03	14358
852.165	14419
852.299	14446
852.434	14480
852.569	14431
852.703	14355
852.838	14469
852.973	14511
853.107	14560
853.242	14290
853.376	14320
853.511	14115
853.645	14305
853.78	14305
853.914	14339
854.048	14301
854.183	14229
854.317	14294
854.451	14355
854.585	14153
854.72	14202
854.854	14328
854.988	14054
855.122	14237
855.256	14092
855.39	14248
855.524	14366
855.658	14370
855.792	14248
855.926	14298
856.06	14355
856.194	14377
856.327	14355
856.461	14278
856.595	14218
856.729	14275
856.862	14332
856.996	14271
857.13	14393
857.263	14400
857.397	14454
857.53	14294
857.664	14294
857.797	14400
857.931	14343
858.064	14328
858.197	14476
858.331	14282
858.464	14305
858.597	14077
858.731	14267
858.864	14248
858.997	14123
859.13	14275
859.263	14176
859.396	14358
859.529	14252
859.662	14210
859.795	14149
859.928	14282
860.061	14358
860.194	14427
860.327	14278
860.46	14256
860.592	14320
860.725	14438
860.858	14415
860.99	14282
861.123	14206
861.256	14187
861.388	14130
861.521	14845
861.653	14157
861.786	14088
861.918	14084
862.05	14210
862.183	14180
862.315	14229
862.447	14294
862.58	14138
862.712	13986
862.844	14062
862.976	14145
863.108	14088
863.24	14419
863.372	13940
863.504	14123
863.636	14020
863.768	14046
863.9	14024
864.032	13955
864.164	14012
864.296	14069
864.428	14081
864.559	14134
864.691	14187
864.823	14157
864.954	14088
865.086	14115
865.217	14069
865.349	13959
865.48	14012
865.612	14050
865.743	14138
865.875	14069
866.006	14001
866.137	14103
866.269	14054
866.4	14069
866.531	13944
866.662	13997
866.793	13947
866.924	14058
867.055	14024
867.186	14119
867.317	13997
867.448	13932
867.579	13917
867.71	13986
867.841	13963
867.972	14062
868.103	14020
868.233	14126
868.364	14016
868.495	14123
868.625	14214
868.756	14381
868.886	14248
869.017	14237
869.147	14442
869.278	14385
869.408	14309
869.539	14290
869.669	14309
869.799	14393
869.929	14324
870.06	14347
870.19	14484
870.32	14533
870.45	14640
870.58	14758
870.71	14663
870.84	14762
870.97	14682
871.1	14701
871.23	14845
871.36	14853
871.489	14762
871.619	14830
871.749	14910
871.879	14823
872.008	14963
872.138	14868
872.267	14811
872.397	14781
872.526	14689
872.656	14754
872.785	14773
872.915	14906
873.044	14899
873.173	14948
873.303	14941
873.432	14887
873.561	15138
873.69	14937
873.819	14952
873.948	15032
874.077	14933
874.206	14902
874.335	14876
874.464	15131
874.593	15230
874.722	15207
874.851	15310
874.979	15275
875.108	15340
875.237	15211
875.365	15176
875.494	15275
875.623	15268
875.751	15176
875.88	15336
876.008	15447
876.136	15450
876.265	15633
876.393	15797
876.521	15739
876.65	15743
876.778	15652
876.906	15587
877.034	15564
877.162	15622
877.29	15610
877.418	15667
877.546	15701
877.674	15686
877.802	15606
877.93	15603
878.058	15584
878.185	15534
878.313	15580
878.441	15766
878.568	15511
878.696	15542
878.824	15755
878.951	15622
879.079	15873
879.206	15876
879.333	15800
879.461	15606
879.588	15800
879.715	15861
879.842	15895
879.97	15671
880.097	15492
880.224	15473
880.351	15485
880.478	15580
880.605	15428
880.732	15568
880.859	15739
880.986	15523
881.112	15507
881.239	15348
881.366	15260
881.493	15188
881.619	15256
881.746	15161
881.872	15146
881.999	15165
882.125	15024
882.252	15203
882.378	15112
882.505	15306
882.631	15135
882.757	14933
882.883	14998
883.01	15055
883.136	14853
883.262	14819
883.388	14807
883.514	14967
883.64	15013
883.766	14899
883.892	14796
884.018	14765
884.143	15009
884.269	15043
884.395	14670
884.52	14743
884.646	14682
884.772	14651
884.897	14514
885.023	14629
885.148	14724
885.274	14899
885.399	14765
885.524	14716
885.65	14575
885.775	14819
885.9	14632
886.025	14773
886.15	14765
886.275	14590
886.4	14598
886.525	14682
886.65	14583
886.775	14617
886.9	14754
887.025	14883
887.149	14648
887.274	14465
887.399	14423
887.523	14408
887.648	14412
887.773	14438
887.897	14476
888.021	14533
888.146	14438
888.27	14659
888.395	14731
888.519	14545
888.643	14579
888.767	14503
888.891	14389
889.015	14259
889.139	14465
889.263	14328
889.387	14454
889.511	14552
889.635	14469
889.759	14442
889.883	14339
890.006	14355
890.13	14457
890.254	14351
890.377	14309
890.501	14240
890.624	14145
890.748	14244
890.871	14134
890.995	14008
891.118	13967
891.241	14130
891.364	14138
891.488	14180
891.611	14005
891.734	14039
891.857	14126
891.98	14103
892.103	14271
892.226	14111
892.349	14073
892.471	13970
892.594	13909
892.717	14020
892.839	14050
892.962	14001
893.085	14046
893.207	14256
893.33	14100
893.452	14012
893.575	14191
893.697	14001
893.819	14214
893.941	14301
894.064	14176
894.186	14088
894.308	14107
894.43	14187
894.552	14290
894.674	14278
894.796	13928
894.918	14039
895.04	14111
895.161	14328
895.283	14244
895.405	14149
895.526	14161
895.648	14176
895.769	14259
895.891	14161
896.012	14286
896.134	14298
896.255	14256
896.376	14145
896.498	14157
896.619	14267
896.74	14202
896.861	14358
896.982	14602
897.103	14727
897.224	14537
897.345	14450
897.466	14324
897.587	14526
897.708	14674
897.828	14545
897.949	14503
898.07	14339
898.19	14446
898.311	14644
898.431	14514
898.552	14564
898.672	14758
898.792	14655
898.913	14686
899.033	14469
899.153	14396
899.273	14454
899.393	14514
899.513	14495
899.633	14381
899.753	14473
899.873	14362
899.993	14552
900.113	14393
900.232	14465
900.352	14495
900.472	14396
900.591	14362
900.711	14381
900.83	14290
900.95	14355
901.069	14476
901.189	14221
901.308	14024
901.427	13959
901.546	14050
901.665	14039
901.784	14008
901.904	13879
902.023	13795
902.141	13597
902.26	13567
902.379	13624
902.498	13499
902.617	13624
902.735	13628
902.854	13495
902.973	13502
903.091	13304
903.21	13335
903.328	13316
903.446	13240
903.565	13137
903.683	13194
903.801	13019
903.919	13061
904.038	13061
904.156	12954
904.274	13034
904.392	12863
904.51	12878
904.627	12913
904.745	12989
904.863	13053
904.981	12821
905.098	12719
905.216	12684
905.334	12669
905.451	12665
905.569	12494
905.686	12688
905.803	12650
905.921	12410
906.038	12582
906.155	12540
906.272	12486
906.389	12426
906.506	12285
906.623	12228
906.74	12243
906.857	12110
906.974	12068
907.091	12319
907.208	12361
907.324	12209
907.441	12148
907.557	11942
907.674	12030
907.79	11901
907.907	11935
908.023	11988
908.139	11969
908.256	11878
908.372	11908
908.488	11882
908.604	11809
908.72	11665
908.836	11889
908.952	11699
909.068	11775
909.184	11874
909.3	11722
909.415	11729
909.531	11600
909.647	11497
909.762	11478
909.878	11474
909.993	11512
910.108	11512
910.224	11440
910.339	11467
910.454	11452
910.57	11406
910.685	11315
910.8	11630
910.915	11596
911.03	11387
911.145	11273
911.259	11216
911.374	11284
911.489	11109
911.604	11170
911.718	10999
911.833	10965
911.947	10892
912.062	10850
912.176	10938
912.291	10911
912.405	10980
912.519	11212
912.633	11102
912.748	11086
912.862	10984
912.976	10843
913.09	10721
913.204	10793
913.318	10873
913.431	10961
913.545	10908
913.659	11014
913.772	10847
913.886	10698
914	10649
914.113	10828
914.226	10828
914.34	10812
914.453	10645
914.566	10873
914.68	10637
914.793	10626
914.906	10554
915.019	10466
915.132	10371
915.245	10500
915.358	10485
915.47	10451
915.583	10459
915.696	10561
915.809	10637
915.921	10725
916.034	10459
916.146	10436
916.259	10462
916.371	10493
916.483	10565
916.595	10443
916.708	10398
916.82	10394
916.932	10474
917.044	10424
917.156	10306
917.268	10303
917.38	10299
917.491	10291
917.603	10390
917.715	10424
917.826	10375
917.938	10276
918.049	10158
918.161	10291
918.272	10360
918.384	10478
918.495	10341
918.606	10177
918.717	10150
918.828	10246
918.939	10211
919.05	10173
919.161	10181
919.272	9979
919.383	9968
919.494	10265
919.604	10367
919.715	10238
919.826	10040
919.936	10188
920.047	10257
920.157	10177
920.267	10405
920.378	10272
920.488	10169
920.598	10440
920.708	10497
920.818	10405
920.928	10413
921.038	10626
921.148	10470
921.258	10200
921.368	10097
921.477	9991
921.587	10093
921.697	9964
921.806	10071
921.916	9987
922.025	9797
922.134	9728
922.244	9743
922.353	9842
922.462	9736
922.571	9568
922.68	9412
922.789	9431
922.898	9466
923.007	9351
923.116	9523
923.224	9424
923.333	9428
923.442	9332
923.55	9321
923.659	9397
923.767	9435
923.876	9302
923.984	9382
924.092	9264
924.201	9386
924.309	9253
924.417	9351
924.525	9256
924.633	9253
924.741	9979
924.849	9116
924.956	9218
925.064	9138
925.172	9043
925.279	9039
925.387	9157
925.494	9184
925.602	9291
925.709	9230
925.816	9093
925.924	9154
926.031	9218
926.138	9100
926.245	9180
926.352	9005
926.459	9233
926.566	9161
926.673	9051
926.779	9001
926.886	8967
926.993	8842
927.099	8823
927.206	8804
927.312	8819
927.419	8853
927.525	8861
927.631	8845
927.737	8792
927.843	8663
927.95	8632
928.056	8731
928.162	8705
928.267	8792
928.373	9351
928.479	8838
928.585	8602
928.69	8689
928.796	8766
928.901	8644
929.007	8522
929.112	8735
929.218	8606
929.323	8583
929.428	8541
929.533	8716
929.638	8465
929.743	8587
929.848	8583
929.953	8518
930.058	8434
930.163	8332
930.267	8267
930.372	8476
930.477	8309
930.581	8533
930.685	8385
930.79	8294
930.894	8294
930.998	8225
931.103	8415
931.207	8115
931.311	8039
931.415	7932
931.519	7776
931.623	7746
