Data from test_V78500241_3712.txt Node
Date: Fri Mar 25 14:59:34 CST 2022
User: usil
Spectrometer: V785-0024
Trigger mode: 0
Integration Time (sec): 4.000000E-1
Scans to average: 1
Nonlinearity correction enabled: false
Boxcar width: 0
Storing dark spectrum: false
XAxis mode: Wavelengths
Number of Pixels in Spectrum: 1024
>>>>>Begin Spectral Data<<<<<
801.071	21987
801.214	21759
801.356	21553
801.499	21492
801.641	21321
801.783	21256
801.926	21226
802.068	21203
802.211	21169
802.353	20994
802.496	20849
802.638	20891
802.78	20724
802.923	20674
803.065	20636
803.208	20522
803.35	20583
803.492	20659
803.635	20731
803.777	20579
803.919	20648
804.061	20902
804.204	20743
804.346	20533
804.488	20469
804.63	20552
804.773	20446
804.915	20568
805.057	20629
805.199	20366
805.341	20568
805.483	20503
805.626	20613
805.768	20355
805.91	20522
806.052	20457
806.194	20484
806.336	20625
806.478	20480
806.62	20343
806.762	20541
806.904	20644
807.046	20902
807.188	20765
807.33	20765
807.472	20853
807.614	20743
807.756	20735
807.898	20568
808.04	20590
808.182	20670
808.324	20663
808.465	20609
808.607	20754
808.749	20880
808.891	20925
809.033	21123
809.174	20864
809.316	20746
809.458	20716
809.6	20842
809.741	20960
809.883	20876
810.025	20956
810.166	20986
810.308	21024
810.45	20899
810.591	20933
810.733	20708
810.875	20674
811.016	20625
811.158	20590
811.299	20750
811.441	20697
811.582	20754
811.724	20716
811.865	20613
812.007	20629
812.148	20541
812.29	20629
812.431	20727
812.573	20910
812.714	21066
812.855	21161
812.997	21287
813.138	21424
813.279	21180
813.421	21207
813.562	21146
813.703	20788
813.845	20686
813.986	20374
814.127	20275
814.268	20263
814.41	20355
814.551	20180
814.692	20168
814.833	20187
814.974	20122
815.115	20218
815.256	19993
815.397	20016
815.539	20054
815.68	19860
815.821	19811
815.962	19845
816.103	19871
816.244	19715
816.385	19639
816.526	19628
816.666	19468
816.807	19335
816.948	19422
817.089	19346
817.23	19331
817.371	19232
817.512	19255
817.653	19343
817.793	19221
817.934	19301
818.075	19285
818.216	19266
818.356	19240
818.497	19274
818.638	18985
818.778	19004
818.919	19000
819.06	18970
819.2	19072
819.341	19187
819.481	19088
819.622	19270
819.762	19449
819.903	19384
820.043	19335
820.184	19251
820.324	19206
820.465	19270
820.605	19232
820.746	19316
820.886	19183
821.026	19213
821.167	19053
821.307	19255
821.447	19221
821.588	19129
821.728	19023
821.868	18837
822.008	18696
822.149	18559
822.289	18639
822.429	18357
822.569	18323
822.709	18399
822.849	18194
822.99	18125
823.13	18121
823.27	18171
823.41	17946
823.55	17901
823.69	18049
823.83	17988
823.97	17961
824.11	17824
824.25	17714
824.389	17745
824.529	17870
824.669	17741
824.809	17855
824.949	17760
825.089	17840
825.228	17828
825.368	17532
825.508	17524
825.648	17535
825.787	17490
825.927	17486
826.067	17459
826.206	17482
826.346	17600
826.485	17516
826.625	17467
826.765	17676
826.904	17509
827.044	17250
827.183	17353
827.323	17185
827.462	17254
827.601	17269
827.741	17258
827.88	17261
828.02	17136
828.159	17223
828.298	17159
828.437	17345
828.577	17136
828.716	17265
828.855	17121
828.994	17003
829.134	16968
829.273	16991
829.412	16987
829.551	16927
829.69	16999
829.829	16961
829.968	17113
830.107	17064
830.246	17037
830.385	17025
830.524	16862
830.663	16782
830.802	16630
830.941	16561
831.08	16588
831.219	16733
831.357	16546
831.496	16839
831.635	16489
831.774	16428
831.913	16535
832.051	16363
832.19	16402
832.329	16516
832.467	16314
832.606	16226
832.744	16291
832.883	16344
833.022	16253
833.16	16379
833.299	16363
833.437	16337
833.576	16363
833.714	16371
833.852	16428
833.991	16390
834.129	16447
834.267	16432
834.406	16394
834.544	16356
834.682	16337
834.821	16341
834.959	16554
835.097	16234
835.235	16379
835.373	16371
835.511	16310
835.65	16276
835.788	16299
835.926	16139
836.064	16029
836.202	16101
836.34	16291
836.478	16333
836.615	16226
836.753	16204
836.891	16318
837.029	16246
837.167	16192
837.305	16230
837.443	16249
837.58	16071
837.718	16249
837.856	16166
837.993	16173
838.131	16147
838.269	16124
838.406	16128
838.544	16055
838.681	15816
838.819	15743
838.956	15751
839.094	15728
839.231	15797
839.369	15895
839.506	16128
839.643	15930
839.781	15755
839.918	15728
840.055	15637
840.193	15732
840.33	15720
840.467	15713
840.604	15759
840.742	15926
840.879	15564
841.016	15580
841.153	15656
841.29	15846
841.427	15759
841.564	15755
841.701	15831
841.838	15584
841.975	15622
842.112	15553
842.249	15515
842.385	15466
842.522	15618
842.659	15519
842.796	15420
842.933	15500
843.069	15504
843.206	15450
843.343	15538
843.479	15519
843.616	15473
843.752	15332
843.889	15291
844.025	15443
844.162	15161
844.298	15401
844.435	15340
844.571	15317
844.708	15355
844.844	15428
844.98	15374
845.117	15485
845.253	15245
845.389	15184
845.525	15283
845.661	15214
845.798	15055
845.934	15138
846.07	15135
846.206	15058
846.342	15161
846.478	15043
846.614	14963
846.75	14910
846.886	14826
847.022	14967
847.158	14899
847.294	14838
847.429	14918
847.565	14872
847.701	15108
847.837	14590
847.972	14590
848.108	14674
848.244	14610
848.379	14522
848.515	14518
848.65	14366
848.786	14446
848.921	14533
849.057	14537
849.192	14606
849.328	14598
849.463	14404
849.598	14438
849.734	14362
849.869	14328
850.004	14332
850.14	14317
850.275	14225
850.41	14145
850.545	14214
850.68	14332
850.815	14229
850.95	14138
851.085	14412
851.22	14271
851.355	14191
851.49	14103
851.625	14225
851.76	14252
851.895	14088
852.03	14031
852.165	14221
852.299	14218
852.434	14309
852.569	14267
852.703	14202
852.838	14374
852.973	14404
853.107	14347
853.242	14206
853.376	14103
853.511	13978
853.645	14077
853.78	14172
853.914	14138
854.048	14058
854.183	14054
854.317	14073
854.451	14225
854.585	14035
854.72	14172
854.854	14126
854.988	14035
855.122	14103
855.256	14005
855.39	14084
855.524	14180
855.658	14149
855.792	14058
855.926	14145
856.06	14183
856.194	14259
856.327	14092
856.461	14039
856.595	14065
856.729	13936
856.862	14199
856.996	14176
857.13	14111
857.263	14225
857.397	14210
857.53	14115
857.664	14221
857.797	14161
857.931	14210
858.064	14115
858.197	14256
858.331	14100
858.464	14084
858.597	14005
858.731	14005
858.864	14054
858.997	14054
859.13	14134
859.263	14168
859.396	14172
859.529	14046
859.662	14046
859.795	14077
859.928	14225
860.061	14229
860.194	14256
860.327	14149
860.46	14100
860.592	14183
860.725	14176
860.858	14225
860.99	14027
861.123	13993
861.256	14069
861.388	14103
861.521	14807
861.653	13993
861.786	13982
861.918	13997
862.05	14005
862.183	14039
862.315	14111
862.447	14164
862.58	14054
862.712	13906
862.844	13879
862.976	13944
863.108	14039
863.24	14324
863.372	13788
863.504	13913
863.636	13898
863.768	13875
863.9	13849
864.032	13822
864.164	13833
864.296	13936
864.428	13932
864.559	13986
864.691	13909
864.823	13921
864.954	13856
865.086	13940
865.217	13970
865.349	13776
865.48	13890
865.612	14008
865.743	13997
865.875	13887
866.006	13788
866.137	13879
866.269	13868
866.4	13772
866.531	13890
866.662	13837
866.793	13780
866.924	13849
867.055	13913
867.186	13890
867.317	13818
867.448	13750
867.579	13799
867.71	13757
867.841	13700
867.972	13906
868.103	14001
868.233	13864
868.364	13860
868.495	13928
868.625	13978
868.756	14237
868.886	14001
869.017	14012
869.147	14202
869.278	14214
869.408	14096
869.539	14210
869.669	14214
869.799	14225
869.929	14202
870.06	14278
870.19	14427
870.32	14419
870.45	14358
870.58	14412
870.71	14636
870.84	14602
870.97	14442
871.1	14636
871.23	14621
871.36	14697
871.489	14659
871.619	14602
871.749	14746
871.879	14826
872.008	14823
872.138	14781
872.267	14746
872.397	14587
872.526	14560
872.656	14575
872.785	14606
872.915	14773
873.044	14804
873.173	14792
873.303	14617
873.432	14891
873.561	14792
873.69	14758
873.819	14804
873.948	14918
874.077	14765
874.206	14762
874.335	14762
874.464	14887
874.593	15077
874.722	14990
874.851	15104
874.979	15024
875.108	15077
875.237	15051
875.365	15051
875.494	15089
875.623	15123
875.751	15112
875.88	15104
876.008	15245
876.136	15386
876.265	15466
876.393	15671
876.521	15641
876.65	15606
876.778	15526
876.906	15492
877.034	15500
877.162	15481
877.29	15469
877.418	15538
877.546	15584
877.674	15572
877.802	15618
877.93	15572
878.058	15450
878.185	15466
878.313	15492
878.441	15523
878.568	15321
878.696	15454
878.824	15500
878.951	15591
879.079	15644
879.206	15857
879.333	15705
879.461	15507
879.588	15648
879.715	15614
879.842	15770
879.97	15595
880.097	15325
880.224	15268
880.351	15378
880.478	15359
880.605	15420
880.732	15431
880.859	15576
880.986	15447
881.112	15420
881.239	15256
881.366	15135
881.493	15081
881.619	15001
881.746	15051
881.872	15013
881.999	15055
882.125	15039
882.252	14975
882.378	15058
882.505	15127
882.631	15013
882.757	14845
882.883	14899
883.01	14830
883.136	14819
883.262	14674
883.388	14727
883.514	14929
883.64	14891
883.766	14678
883.892	14659
884.018	14644
884.143	14785
884.269	14838
884.395	14667
884.52	14564
884.646	14492
884.772	14423
884.897	14434
885.023	14560
885.148	14625
885.274	14667
885.399	14640
885.524	14522
885.65	14533
885.775	14518
885.9	14549
886.025	14720
886.15	14697
886.275	14526
886.4	14465
886.525	14503
886.65	14492
886.775	14457
886.9	14579
887.025	14743
887.149	14625
887.274	14370
887.399	14320
887.523	14320
887.648	14252
887.773	14336
887.897	14412
888.021	14522
888.146	14366
888.27	14446
888.395	14556
888.519	14473
888.643	14469
888.767	14389
888.891	14351
889.015	14168
889.139	14339
889.263	14244
889.387	14355
889.511	14412
889.635	14446
889.759	14221
889.883	14263
890.006	14286
890.13	14336
890.254	14168
890.377	14267
890.501	14016
890.624	13989
890.748	14180
890.871	14024
890.995	14005
891.118	13864
891.241	14008
891.364	13982
891.488	14008
891.611	14008
891.734	14027
891.857	14008
891.98	13978
892.103	13986
892.226	14005
892.349	13898
892.471	13799
892.594	13887
892.717	13887
892.839	13909
892.962	13947
893.085	13951
893.207	13951
893.33	13841
893.452	13928
893.575	14043
893.697	13955
893.819	14187
893.941	14119
894.064	14088
894.186	13917
894.308	13963
894.43	14100
894.552	14187
894.674	14130
894.796	13955
894.918	13978
895.04	13970
895.161	14107
895.283	14020
895.405	13917
895.526	14043
895.648	14077
895.769	14115
895.891	14081
896.012	14111
896.134	14115
896.255	14084
896.376	14062
896.498	14107
896.619	14176
896.74	14149
896.861	14176
896.982	14480
897.103	14629
897.224	14533
897.345	14336
897.466	14362
897.587	14298
897.708	14396
897.828	14450
897.949	14290
898.07	14240
898.19	14396
898.311	14488
898.431	14332
898.552	14499
898.672	14545
898.792	14499
898.913	14522
899.033	14393
899.153	14309
899.273	14298
899.393	14320
899.513	14419
899.633	14328
899.753	14267
899.873	14275
899.993	14454
900.113	14286
900.232	14473
900.352	14290
900.472	14199
900.591	14214
900.711	14229
900.83	14210
900.95	14294
901.069	14324
901.189	14096
901.308	13894
901.427	13917
901.546	13894
901.665	13818
901.784	13898
901.904	13776
902.023	13632
902.141	13552
902.26	13407
902.379	13499
902.498	13350
902.617	13384
902.735	13510
902.854	13407
902.973	13320
903.091	13141
903.21	13190
903.328	13270
903.446	13004
903.565	13225
903.683	13076
903.801	12954
903.919	13000
904.038	12947
904.156	12840
904.274	12867
904.392	12916
904.51	12821
904.627	12882
904.745	13061
904.863	12844
904.981	12662
905.098	12532
905.216	12502
905.334	12460
905.451	12467
905.569	12574
905.686	12566
905.803	12528
905.921	12372
906.038	12391
906.155	12308
906.272	12175
906.389	12285
906.506	12076
906.623	12148
906.74	12030
906.857	11992
906.974	12110
907.091	12152
907.208	12273
907.324	12213
907.441	11996
907.557	11870
907.674	11859
907.79	11779
907.907	11836
908.023	11901
908.139	11988
908.256	11882
908.372	11794
908.488	11752
908.604	11783
908.72	11566
908.836	11589
908.952	11570
909.068	11653
909.184	11718
909.3	11611
909.415	11718
909.531	11604
909.647	11402
909.762	11372
909.878	11425
909.993	11395
910.108	11406
910.224	11391
910.339	11398
910.454	11334
910.57	11189
910.685	11140
910.8	11474
910.915	11486
911.03	11265
911.145	11037
911.259	11147
911.374	11067
911.489	10995
911.604	11022
911.718	10801
911.833	10904
911.947	10797
912.062	10714
912.176	10873
912.291	10896
912.405	10934
912.519	11067
912.633	11098
912.748	10942
912.862	10885
912.976	10797
913.09	10710
913.204	10763
913.318	10786
913.431	10759
913.545	10782
913.659	10862
913.772	10660
913.886	10668
914	10478
914.113	10664
914.226	10698
914.34	10763
914.453	10607
914.566	10679
914.68	10542
914.793	10531
914.906	10398
915.019	10329
915.132	10318
915.245	10341
915.358	10382
915.47	10405
915.583	10421
915.696	10424
915.809	10424
915.921	10447
916.034	10360
916.146	10325
916.259	10306
916.371	10455
916.483	10432
916.595	10306
916.708	10325
916.82	10299
916.932	10238
917.044	10299
917.156	10310
917.268	10257
917.38	10188
917.491	10188
917.603	10257
917.715	10299
917.826	10371
917.938	10223
918.049	10112
918.161	10154
918.272	10333
918.384	10344
918.495	10223
918.606	10188
918.717	10017
918.828	10162
918.939	10105
919.05	10021
919.161	10021
919.272	9850
919.383	9945
919.494	10177
919.604	10310
919.715	10158
919.826	9998
919.936	10139
920.047	10177
920.157	10150
920.267	10356
920.378	10158
920.488	10116
920.598	10329
920.708	10455
920.818	10325
920.928	10306
921.038	10478
921.148	10451
921.258	10124
921.368	10105
921.477	9979
921.587	9979
921.697	9835
921.806	9964
921.916	9838
922.025	9698
922.134	9599
922.244	9580
922.353	9682
922.462	9561
922.571	9534
922.68	9374
922.789	9405
922.898	9340
923.007	9291
923.116	9462
923.224	9363
923.333	9386
923.442	9245
923.55	9180
923.659	9283
923.767	9329
923.876	9211
923.984	9264
924.092	9214
924.201	9279
924.309	9249
924.417	9211
924.525	9142
924.633	9211
924.741	10169
924.849	8963
924.956	9176
925.064	9028
925.172	8891
925.279	8975
925.387	9036
925.494	9093
925.602	9203
925.709	9116
925.816	8891
925.924	9036
926.031	9081
926.138	9066
926.245	9085
926.352	8975
926.459	8990
926.566	9142
926.673	9020
926.779	8963
926.886	8906
926.993	8727
927.099	8716
927.206	8823
927.312	8648
927.419	8815
927.525	8777
927.631	8788
927.737	8705
927.843	8651
927.95	8522
928.056	8552
928.162	8693
928.267	8716
928.373	9226
928.479	8750
928.585	8495
928.69	8590
928.796	8590
928.901	8610
929.007	8389
929.112	8598
929.218	8495
929.323	8469
929.428	8446
929.533	8644
929.638	8385
929.743	8480
929.848	8427
929.953	8480
930.058	8393
930.163	8202
930.267	8229
930.372	8400
930.477	8240
930.581	8495
930.685	8294
930.79	8145
930.894	8157
930.998	8187
931.103	8343
931.207	8005
931.311	7871
931.415	7925
931.519	7693
931.623	7708
