Data from test_V78500241_621.txt Node
Date: Fri Mar 25 14:38:02 CST 2022
User: usil
Spectrometer: V785-0024
Trigger mode: 0
Integration Time (sec): 4.000000E-1
Scans to average: 1
Nonlinearity correction enabled: false
Boxcar width: 0
Storing dark spectrum: false
XAxis mode: Wavelengths
Number of Pixels in Spectrum: 1024
>>>>>Begin Spectral Data<<<<<
801.071	27918
801.214	27770
801.356	27599
801.499	27572
801.641	27275
801.783	27237
801.926	27294
802.068	27127
802.211	27036
802.353	27100
802.496	26834
802.638	26899
802.78	26819
802.923	26640
803.065	26629
803.208	26712
803.35	26864
803.492	26937
803.635	26975
803.777	26914
803.919	26937
804.061	27150
804.204	27074
804.346	26940
804.488	27001
804.63	27039
804.773	26967
804.915	26960
805.057	27287
805.199	27051
805.341	27245
805.483	27367
805.626	27287
805.768	27317
805.91	27488
806.052	27622
806.194	27526
806.336	27861
806.478	27804
806.62	27968
806.762	28322
806.904	28596
807.046	29212
807.188	29239
807.33	29592
807.472	29958
807.614	30437
807.756	31156
807.898	31974
808.04	32971
808.182	34622
808.324	36734
808.465	38849
808.607	41398
808.749	43419
808.891	44773
809.033	44853
809.174	43468
809.316	41322
809.458	38705
809.6	36319
809.741	34401
809.883	32625
810.025	31769
810.166	30779
810.308	30365
810.45	29703
810.591	29372
810.733	28869
810.875	28565
811.016	28424
811.158	28211
811.299	28211
811.441	28169
811.582	28025
811.724	27812
811.865	27751
812.007	27690
812.148	27576
812.29	27427
812.431	27462
812.573	27751
812.714	27724
812.855	27812
812.997	27930
813.138	28154
813.279	27865
813.421	27804
813.562	27667
813.703	27427
813.845	27336
813.986	26891
814.127	26777
814.268	26735
814.41	26686
814.551	26674
814.692	26720
814.833	26571
814.974	26606
815.115	26609
815.256	26377
815.397	26305
815.539	26362
815.68	26298
815.821	26187
815.962	26305
816.103	26202
816.244	25986
816.385	26027
816.526	25837
816.666	25651
816.807	25582
816.948	25628
817.089	25548
817.23	25548
817.371	25441
817.512	25434
817.653	25369
817.793	25377
817.934	25514
818.075	25441
818.216	25411
818.356	25540
818.497	25354
818.638	24992
818.778	25080
818.919	25133
819.06	25099
819.2	25308
819.341	25320
819.481	25430
819.622	25529
819.762	25666
819.903	25582
820.043	25521
820.184	25373
820.324	25266
820.465	25331
820.605	25350
820.746	25194
820.886	25141
821.026	25316
821.167	25225
821.307	25350
821.447	25091
821.588	25088
821.728	24886
821.868	24840
822.008	24688
822.149	24513
822.289	24547
822.429	24384
822.569	24095
822.709	24247
822.849	24064
822.99	24022
823.13	24003
823.27	23897
823.41	23885
823.55	23665
823.69	23824
823.83	23855
823.97	23680
824.11	23627
824.25	23467
824.389	23615
824.529	23566
824.669	23608
824.809	23649
824.949	23531
825.089	23699
825.228	23467
825.368	23383
825.508	23452
825.648	23345
825.787	23528
825.927	23497
826.067	23318
826.206	23280
826.346	23303
826.485	23364
826.625	23311
826.765	23410
826.904	23265
827.044	23098
827.183	23098
827.323	22869
827.462	23014
827.601	23003
827.741	23056
827.88	23102
828.02	22923
828.159	22908
828.298	22938
828.437	23003
828.577	22782
828.716	23022
828.855	22889
828.994	22721
829.134	22557
829.273	22767
829.412	22653
829.551	22683
829.69	22706
829.829	22645
829.968	22664
830.107	22710
830.246	22668
830.385	22561
830.524	22691
830.663	22500
830.802	22466
830.941	22211
831.08	22272
831.219	22303
831.357	22402
831.496	22386
831.635	22257
831.774	22162
831.913	22261
832.051	22051
832.19	22181
832.329	22082
832.467	22082
832.606	21930
832.744	21983
832.883	22166
833.022	22147
833.16	22318
833.299	22348
833.437	22284
833.576	22611
833.714	22577
833.852	22824
833.991	22835
834.129	23006
834.267	22896
834.406	22843
834.544	22801
834.682	22702
834.821	22626
834.959	22538
835.097	22367
835.235	22379
835.373	22219
835.511	22200
835.65	22044
835.788	21960
835.926	21835
836.064	21690
836.202	21709
836.34	21778
836.478	21880
836.615	21736
836.753	21812
836.891	21747
837.029	21751
837.167	21709
837.305	21667
837.443	21663
837.58	21618
837.718	21610
837.856	21500
837.993	21549
838.131	21519
838.269	21553
838.406	21500
838.544	21382
838.681	21070
838.819	21157
838.956	21138
839.094	21028
839.231	21077
839.369	21237
839.506	21374
839.643	21245
839.781	21173
839.918	20944
840.055	20902
840.193	20948
840.33	20899
840.467	20960
840.604	20963
840.742	21138
840.879	20777
841.016	20899
841.153	20842
841.29	21108
841.427	20956
841.564	21005
841.701	20963
841.838	20872
841.975	20842
842.112	20921
842.249	20769
842.385	20667
842.522	20838
842.659	20727
842.796	20762
842.933	20750
843.069	20708
843.206	20735
843.343	20853
843.479	20785
843.616	20826
843.752	20739
843.889	20781
844.025	21013
844.162	20743
844.298	21036
844.435	20918
844.571	21005
844.708	21420
844.844	21633
844.98	21865
845.117	22459
845.253	23109
845.389	24338
845.525	26967
845.661	31381
845.798	36353
845.934	40238
846.07	41794
846.206	40653
846.342	37346
846.478	32317
846.614	27964
846.75	24935
846.886	23090
847.022	22200
847.158	21534
847.294	21066
847.429	20762
847.565	20533
847.701	20686
847.837	20031
847.972	19970
848.108	19997
848.244	20100
848.379	19742
848.515	19693
848.65	19670
848.786	19620
848.921	19670
849.057	19795
849.192	19746
849.328	19765
849.463	19540
849.598	19510
849.734	19483
849.869	19491
850.004	19335
850.14	19411
850.275	19476
850.41	19255
850.545	19232
850.68	19232
850.815	19251
850.95	19179
851.085	19457
851.22	19377
851.355	19266
851.49	19259
851.625	19263
851.76	19285
851.895	19198
852.03	19183
852.165	19297
852.299	19426
852.434	19426
852.569	19297
852.703	19396
852.838	19400
852.973	19537
853.107	19415
853.242	19282
853.376	19419
853.511	19156
853.645	19255
853.78	19445
853.914	19434
854.048	19331
854.183	19377
854.317	19445
854.451	19647
854.585	19472
854.72	19373
854.854	19464
854.988	19266
855.122	19198
855.256	19179
855.39	19190
855.524	19285
855.658	19304
855.792	19206
855.926	19129
856.06	19316
856.194	19141
856.327	19122
856.461	19057
856.595	19027
856.729	19000
856.862	19118
856.996	19175
857.13	19225
857.263	19247
857.397	19133
857.53	19076
857.664	19232
857.797	19118
857.931	19042
858.064	19084
858.197	19251
858.331	19000
858.464	18935
858.597	18981
858.731	18989
858.864	18924
858.997	18977
859.13	19004
859.263	18981
859.396	18993
859.529	19042
859.662	18859
859.795	18852
859.928	18951
860.061	19160
860.194	19053
860.327	19004
860.46	18871
860.592	19012
860.725	19072
860.858	18966
860.99	18970
861.123	18837
861.256	18875
861.388	18890
861.521	19616
861.653	18798
861.786	18681
861.918	18768
862.05	18859
862.183	18958
862.315	18970
862.447	19099
862.58	18973
862.712	18700
862.844	18707
862.976	18646
863.108	18589
863.24	18985
863.372	18536
863.504	18433
863.636	18578
863.768	18669
863.9	18665
864.032	18620
864.164	18563
864.296	18688
864.428	18711
864.559	18738
864.691	18719
864.823	18639
864.954	18597
865.086	18585
865.217	18574
865.349	18376
865.48	18585
865.612	18506
865.743	18749
865.875	18563
866.006	18585
866.137	18388
866.269	18604
866.4	18448
866.531	18574
866.662	18422
866.793	18467
866.924	18509
867.055	18471
867.186	18479
867.317	18517
867.448	18376
867.579	18490
867.71	18471
867.841	18422
867.972	18494
868.103	18494
868.233	18498
868.364	18517
868.495	18551
868.625	18833
868.756	18928
868.886	18635
869.017	18760
869.147	18833
869.278	18890
869.408	18730
869.539	18738
869.669	18871
869.799	18901
869.929	18886
870.06	18821
870.19	19038
870.32	19076
870.45	19164
870.58	19228
870.71	19251
870.84	19282
870.97	19126
871.1	19206
871.23	19476
871.36	19453
871.489	19282
871.619	19415
871.749	19426
871.879	19434
872.008	19521
872.138	19438
872.267	19514
872.397	19362
872.526	19316
872.656	19350
872.785	19400
872.915	19586
873.044	19632
873.173	19582
873.303	19647
873.432	19624
873.561	19677
873.69	19685
873.819	19681
873.948	19757
874.077	19693
874.206	19521
874.335	19727
874.464	19883
874.593	20168
874.722	20073
874.851	20031
874.979	20180
875.108	20176
875.237	20084
875.365	20111
875.494	20244
875.623	20347
875.751	20229
875.88	20442
876.008	20526
876.136	20648
876.265	20762
876.393	20933
876.521	20990
876.65	20864
876.778	20990
876.906	21100
877.034	20899
877.162	21055
877.29	21127
877.418	21123
877.546	21226
877.674	21233
877.802	21420
877.93	21500
878.058	21583
878.185	21652
878.313	21979
878.441	22284
878.568	22356
878.696	22934
878.824	23562
878.951	24528
879.079	25620
879.206	27112
879.333	28626
879.461	30079
879.588	30722
879.715	30802
879.842	30178
879.97	28702
880.097	27116
880.224	25750
880.351	24947
880.478	24216
880.605	23771
880.732	23676
880.859	23589
880.986	23269
881.112	23170
881.239	23025
881.366	22961
881.493	22759
881.619	22698
881.746	22672
881.872	22790
881.999	22797
882.125	22854
882.252	22828
882.378	22767
882.505	22961
882.631	22660
882.757	22698
882.883	22847
883.01	22850
883.136	22664
883.262	22615
883.388	22489
883.514	22782
883.64	22683
883.766	22481
883.892	22462
884.018	22481
884.143	22683
884.269	22649
884.395	22424
884.52	22398
884.646	22443
884.772	22348
884.897	22181
885.023	22325
885.148	22500
885.274	22546
885.399	22375
885.524	22086
885.65	22036
885.775	22112
885.9	21876
886.025	21888
886.15	21789
886.275	21572
886.4	21477
886.525	21336
886.65	21062
886.775	21116
886.9	21272
887.025	21294
887.149	20944
887.274	20625
887.399	20598
887.523	20541
887.648	20507
887.773	20381
887.897	20442
888.021	20309
888.146	20199
888.27	20465
888.395	20271
888.519	20214
888.643	20202
888.767	20187
888.891	20065
889.015	19852
889.139	19913
889.263	19700
889.387	19951
889.511	20069
889.635	19845
889.759	19811
889.883	19860
890.006	19681
890.13	19643
890.254	19468
890.377	19590
890.501	19403
890.624	19266
890.748	19285
890.871	19168
890.995	19118
891.118	18935
891.241	19095
891.364	19156
891.488	19164
891.611	19099
891.734	18951
891.857	19118
891.98	18993
892.103	19095
892.226	18890
892.349	18943
892.471	18779
892.594	18768
892.717	18776
892.839	18757
892.962	18768
893.085	18905
893.207	18726
893.33	18585
893.452	18506
893.575	18779
893.697	18582
893.819	18719
893.941	18684
894.064	18703
894.186	18608
894.308	18464
894.43	18566
894.552	18620
894.674	18665
894.796	18384
894.918	18475
895.04	18452
895.161	18506
895.283	18475
895.405	18437
895.526	18483
895.648	18311
895.769	18350
895.891	18441
896.012	18452
896.134	18448
896.255	18441
896.376	18384
896.498	18384
896.619	18441
896.74	18292
896.861	18346
896.982	18669
897.103	18856
897.224	18642
897.345	18525
897.466	18563
897.587	18532
897.708	18768
897.828	18494
897.949	18441
898.07	18388
898.19	18506
898.311	18627
898.431	18498
898.552	18456
898.672	18703
898.792	18521
898.913	18616
899.033	18513
899.153	18384
899.273	18460
899.393	18277
899.513	18407
899.633	18407
899.753	18330
899.873	18254
899.993	18323
900.113	18273
900.232	18334
900.352	18190
900.472	18083
900.591	18110
900.711	18194
900.83	18030
900.95	18220
901.069	18201
901.189	18076
901.308	17764
901.427	17813
901.546	17642
901.665	17649
901.784	17611
901.904	17532
902.023	17448
902.141	17220
902.26	17220
902.379	17356
902.498	17265
902.617	17132
902.735	17265
902.854	17117
902.973	17029
903.091	16763
903.21	16797
903.328	16877
903.446	16755
903.565	16546
903.683	16523
903.801	16508
903.919	16637
904.038	16519
904.156	16413
904.274	16402
904.392	16386
904.51	16371
904.627	16481
904.745	16417
904.863	16272
904.981	16196
905.098	15934
905.216	15945
905.334	16154
905.451	15998
905.569	16010
905.686	16109
905.803	16097
905.921	15812
906.038	15861
906.155	15652
906.272	15663
906.389	15648
906.506	15580
906.623	15492
906.74	15507
906.857	15340
906.974	15443
907.091	15599
907.208	15603
907.324	15545
907.441	15496
907.557	15230
907.674	15218
907.79	15192
907.907	15123
908.023	15226
908.139	15249
908.256	15131
908.372	15020
908.488	15058
908.604	14952
908.72	14891
908.836	14861
908.952	14941
909.068	14826
909.184	15097
909.3	14963
909.415	14941
909.531	14876
909.647	14754
909.762	14815
909.878	14625
909.993	14579
910.108	14613
910.224	14663
910.339	14613
910.454	14522
910.57	14454
910.685	14484
910.8	14682
910.915	14568
911.03	14511
911.145	14305
911.259	14286
911.374	14252
911.489	14256
911.604	14134
911.718	14031
911.833	13974
911.947	13890
912.062	13826
912.176	14027
912.291	14077
912.405	13986
912.519	14225
912.633	14149
912.748	14153
912.862	13997
912.976	13837
913.09	13727
913.204	13856
913.318	13909
913.431	13913
913.545	13989
913.659	13989
913.772	13788
913.886	13784
914	13632
914.113	13727
914.226	13818
914.34	13753
914.453	13521
914.566	13791
914.68	13529
914.793	13476
914.906	13377
915.019	13346
915.132	13308
915.245	13304
915.358	13384
915.47	13285
915.583	13350
915.696	13373
915.809	13533
915.921	13548
916.034	13343
916.146	13206
916.259	13358
916.371	13381
916.483	13381
916.595	13255
916.708	13343
916.82	13266
916.932	13316
917.044	13270
917.156	13126
917.268	13095
917.38	13084
917.491	12981
917.603	13126
917.715	13228
917.826	13255
917.938	13103
918.049	12935
918.161	13110
918.272	13080
918.384	13168
918.495	13034
918.606	12871
918.717	12817
918.828	12852
918.939	12954
919.05	12802
919.161	12840
919.272	12528
919.383	12593
919.494	12848
919.604	13008
919.715	12867
919.826	12669
919.936	12779
920.047	12859
920.157	12791
920.267	12954
920.378	12764
920.488	12814
920.598	12962
920.708	13206
920.818	12920
920.928	12867
921.038	13122
921.148	12996
921.258	12757
921.368	12654
921.477	12574
921.587	12639
921.697	12346
921.806	12639
921.916	12494
922.025	12281
922.134	12220
922.244	12148
922.353	12239
922.462	12136
922.571	12079
922.68	11961
922.789	11889
922.898	11889
923.007	11828
923.116	11897
923.224	11912
923.333	11866
923.442	11737
923.55	11760
923.659	11760
923.767	11764
923.876	11714
923.984	11794
924.092	11577
924.201	11661
924.309	11642
924.417	11691
924.525	11573
924.633	11608
924.741	12311
924.849	11414
924.956	11532
925.064	11349
925.172	11368
925.279	11387
925.387	11341
925.494	11356
925.602	11509
925.709	11372
925.816	11239
925.924	11303
926.031	11535
926.138	11379
926.245	11368
926.352	11231
926.459	11417
926.566	11364
926.673	11284
926.779	11185
926.886	11178
926.993	11022
927.099	10953
927.206	10911
927.312	10930
927.419	11098
927.525	11014
927.631	11041
927.737	10930
927.843	10820
927.95	10698
928.056	10900
928.162	10885
928.267	10915
928.373	11337
928.479	10934
928.585	10675
928.69	10774
928.796	10858
928.901	10752
929.007	10565
929.112	10710
929.218	10744
929.323	10679
929.428	10626
929.533	10759
929.638	10538
929.743	10440
929.848	10554
929.953	10603
930.058	10474
930.163	10360
930.267	10344
930.372	10485
930.477	10295
930.581	10527
930.685	10386
930.79	10204
930.894	10344
930.998	10249
931.103	10379
931.207	10059
931.311	9975
931.415	9869
931.519	9705
931.623	9629
