Data from test_V78500241_584.txt Node
Date: Fri Mar 25 14:37:47 CST 2022
User: usil
Spectrometer: V785-0024
Trigger mode: 0
Integration Time (sec): 4.000000E-1
Scans to average: 1
Nonlinearity correction enabled: false
Boxcar width: 0
Storing dark spectrum: false
XAxis mode: Wavelengths
Number of Pixels in Spectrum: 1024
>>>>>Begin Spectral Data<<<<<
801.071	27835
801.214	27914
801.356	27538
801.499	27542
801.641	27340
801.783	27340
801.926	27401
802.068	27245
802.211	27032
802.353	27047
802.496	26819
802.638	26830
802.78	26785
802.923	26773
803.065	26739
803.208	26804
803.35	26754
803.492	26902
803.635	26979
803.777	26724
803.919	27024
804.061	27230
804.204	26956
804.346	27043
804.488	26910
804.63	26971
804.773	27009
804.915	27047
805.057	27203
805.199	27062
805.341	27264
805.483	27340
805.626	27386
805.768	27173
805.91	27507
806.052	27412
806.194	27435
806.336	27739
806.478	27762
806.62	27857
806.762	28143
806.904	28504
807.046	28809
807.188	29025
807.33	29216
807.472	29459
807.614	30015
807.756	30433
807.898	31232
808.04	32054
808.182	33367
808.324	35231
808.465	36814
808.607	38986
808.749	40786
808.891	41729
809.033	41760
809.174	40847
809.316	38979
809.458	36741
809.6	34729
809.741	33119
809.883	31658
810.025	30890
810.166	30243
810.308	29923
810.45	29208
810.591	29079
810.733	28725
810.875	28421
811.016	28185
811.158	27972
811.299	27975
811.441	27972
811.582	27922
811.724	27675
811.865	27542
812.007	27507
812.148	27625
812.29	27473
812.431	27606
812.573	27743
812.714	27808
812.855	27759
812.997	27880
813.138	28185
813.279	27838
813.421	27797
813.562	27694
813.703	27454
813.845	27332
813.986	27199
814.127	26826
814.268	26769
814.41	26667
814.551	26731
814.692	26712
814.833	26526
814.974	26583
815.115	26621
815.256	26446
815.397	26442
815.539	26393
815.68	26164
815.821	26214
815.962	26142
816.103	26271
816.244	25917
816.385	26138
816.526	25997
816.666	25723
816.807	25571
816.948	25772
817.089	25696
817.23	25594
817.371	25468
817.512	25556
817.653	25525
817.793	25476
817.934	25479
818.075	25415
818.216	25483
818.356	25468
818.497	25308
818.638	25122
818.778	25221
818.919	25232
819.06	25304
819.2	25274
819.341	25453
819.481	25400
819.622	25472
819.762	25708
819.903	25662
820.043	25552
820.184	25502
820.324	25453
820.465	25476
820.605	25388
820.746	25293
820.886	25327
821.026	25301
821.167	25422
821.307	25369
821.447	25304
821.588	25099
821.728	24939
821.868	24852
822.008	24547
822.149	24642
822.289	24604
822.429	24350
822.569	24300
822.709	24418
822.849	24125
822.99	24159
823.13	24136
823.27	24026
823.41	23958
823.55	23847
823.69	23878
823.83	23984
823.97	23836
824.11	23668
824.25	23596
824.389	23665
824.529	23741
824.669	23752
824.809	23737
824.949	23802
825.089	23828
825.228	23691
825.368	23398
825.508	23505
825.648	23528
825.787	23551
825.927	23551
826.067	23364
826.206	23387
826.346	23421
826.485	23535
826.625	23474
826.765	23505
826.904	23421
827.044	23189
827.183	23147
827.323	23132
827.462	23018
827.601	23071
827.741	23041
827.88	23071
828.02	22850
828.159	23060
828.298	23159
828.437	23018
828.577	23159
828.716	23151
828.855	23071
828.994	22656
829.134	22927
829.273	22900
829.412	22599
829.551	22668
829.69	22755
829.829	22752
829.968	22767
830.107	22858
830.246	22812
830.385	22733
830.524	22672
830.663	22649
830.802	22603
830.941	22360
831.08	22424
831.219	22375
831.357	22402
831.496	22607
831.635	22337
831.774	22188
831.913	22333
832.051	22131
832.19	22188
832.329	22215
832.467	22124
832.606	21964
832.744	22173
832.883	22177
833.022	22268
833.16	22147
833.299	22295
833.437	22398
833.576	22455
833.714	22615
833.852	22725
833.991	22603
834.129	22915
834.267	22828
834.406	22729
834.544	22698
834.682	22592
834.821	22550
834.959	22668
835.097	22455
835.235	22428
835.373	22287
835.511	22249
835.65	21998
835.788	21941
835.926	21876
836.064	21778
836.202	21819
836.34	21892
836.478	21968
836.615	21838
836.753	21789
836.891	21827
837.029	21816
837.167	21835
837.305	21739
837.443	21835
837.58	21583
837.718	21652
837.856	21698
837.993	21625
838.131	21675
838.269	21549
838.406	21686
838.544	21500
838.681	21386
838.819	21283
838.956	21233
839.094	21150
839.231	21135
839.369	21348
839.506	21545
839.643	21222
839.781	21173
839.918	20994
840.055	21062
840.193	21112
840.33	20910
840.467	20864
840.604	21085
840.742	21256
840.879	20857
841.016	20876
841.153	20868
841.29	21047
841.427	20967
841.564	21032
841.701	20982
841.838	20910
841.975	20883
842.112	20937
842.249	20887
842.385	20731
842.522	20815
842.659	20834
842.796	20769
842.933	20838
843.069	20743
843.206	20834
843.343	20975
843.479	20785
843.616	20967
843.752	20746
843.889	20781
844.025	20785
844.162	20716
844.298	21005
844.435	20925
844.571	21085
844.708	21298
844.844	21561
844.98	21793
845.117	22143
845.253	22729
845.389	23737
845.525	25712
845.661	29311
845.798	33458
845.934	36829
846.07	38126
846.206	37483
846.342	34740
846.478	30479
846.614	26590
846.75	24117
846.886	22782
847.022	21968
847.158	21294
847.294	20895
847.429	20701
847.565	20476
847.701	20659
847.837	20126
847.972	19989
848.108	20134
848.244	20115
848.379	19807
848.515	19696
848.65	19632
848.786	19757
848.921	19670
849.057	19696
849.192	19620
849.328	19693
849.463	19597
849.598	19628
849.734	19601
849.869	19373
850.004	19381
850.14	19472
850.275	19373
850.41	19228
850.545	19335
850.68	19362
850.815	19411
850.95	19339
851.085	19468
851.22	19346
851.355	19324
851.49	19236
851.625	19179
851.76	19270
851.895	19209
852.03	19187
852.165	19297
852.299	19362
852.434	19373
852.569	19339
852.703	19312
852.838	19358
852.973	19472
853.107	19487
853.242	19426
853.376	19206
853.511	19183
853.645	19384
853.78	19362
853.914	19346
854.048	19400
854.183	19350
854.317	19460
854.451	19575
854.585	19415
854.72	19316
854.854	19407
854.988	19324
855.122	19266
855.256	19206
855.39	19198
855.524	19373
855.658	19301
855.792	19236
855.926	19110
856.06	19263
856.194	19282
856.327	19194
856.461	19034
856.595	19137
856.729	19133
856.862	19194
856.996	19122
857.13	19171
857.263	19198
857.397	19164
857.53	19076
857.664	19110
857.797	19137
857.931	19274
858.064	19042
858.197	19141
858.331	18973
858.464	19065
858.597	18928
858.731	18916
858.864	19004
858.997	19027
859.13	19118
859.263	19114
859.396	19050
859.529	18897
859.662	18821
859.795	18882
859.928	19031
860.061	19107
860.194	19133
860.327	18886
860.46	18958
860.592	19034
860.725	19179
860.858	19137
860.99	18924
861.123	18954
861.256	18905
861.388	18966
861.521	19624
861.653	18962
861.786	18859
861.918	18673
862.05	18928
862.183	18837
862.315	19031
862.447	19015
862.58	18886
862.712	18734
862.844	18741
862.976	18787
863.108	18734
863.24	19050
863.372	18555
863.504	18722
863.636	18776
863.768	18692
863.9	18673
864.032	18623
864.164	18631
864.296	18639
864.428	18856
864.559	18627
864.691	18665
864.823	18650
864.954	18677
865.086	18658
865.217	18547
865.349	18456
865.48	18517
865.612	18700
865.743	18817
865.875	18574
866.006	18513
866.137	18498
866.269	18589
866.4	18601
866.531	18502
866.662	18456
866.793	18574
866.924	18601
867.055	18570
867.186	18566
867.317	18536
867.448	18437
867.579	18498
867.71	18525
867.841	18525
867.972	18547
868.103	18502
868.233	18646
868.364	18528
868.495	18677
868.625	18833
868.756	18837
868.886	18658
869.017	18882
869.147	18757
869.278	18947
869.408	18711
869.539	18787
869.669	18795
869.799	18867
869.929	19023
870.06	18882
870.19	19027
870.32	19061
870.45	19141
870.58	19164
870.71	19259
870.84	19350
870.97	19194
871.1	19255
871.23	19449
871.36	19506
871.489	19373
871.619	19365
871.749	19460
871.879	19434
872.008	19632
872.138	19460
872.267	19464
872.397	19411
872.526	19236
872.656	19343
872.785	19304
872.915	19502
873.044	19647
873.173	19514
873.303	19674
873.432	19674
873.561	19662
873.69	19552
873.819	19620
873.948	19784
874.077	19647
874.206	19613
874.335	19613
874.464	19826
874.593	20115
874.722	19986
874.851	20008
874.979	20035
875.108	20031
875.237	20176
875.365	19967
875.494	20084
875.623	20237
875.751	20263
875.88	20229
876.008	20336
876.136	20488
876.265	20716
876.393	20899
876.521	20864
876.65	20868
876.778	20864
876.906	20804
877.034	20811
877.162	20925
877.29	20960
877.418	20929
877.546	21005
877.674	21119
877.802	21127
877.93	21268
878.058	21321
878.185	21473
878.313	21618
878.441	21964
878.568	21956
878.696	22394
878.824	22881
878.951	23554
879.079	24612
879.206	25818
879.333	27268
879.461	28272
879.588	29067
879.715	28946
879.842	28527
879.97	27332
880.097	25818
880.224	24825
880.351	24095
880.478	23474
880.605	23151
880.732	23006
880.859	23014
880.986	22611
881.112	22740
881.239	22451
881.366	22402
881.493	22310
881.619	22253
881.746	22276
881.872	22215
881.999	22188
882.125	22173
882.252	22310
882.378	22249
882.505	22508
882.631	22363
882.757	22177
882.883	22268
883.01	22021
883.136	22139
883.262	22074
883.388	21975
883.514	22078
883.64	22124
883.766	21949
883.892	21918
884.018	21972
884.143	22086
884.269	22112
884.395	22032
884.52	21949
884.646	21762
884.772	21720
884.897	21747
885.023	21751
885.148	21888
885.274	21888
885.399	21759
885.524	21705
885.65	21637
885.775	21450
885.9	21294
886.025	21378
886.15	21226
886.275	21089
886.4	21009
886.525	20868
886.65	20750
886.775	20826
886.9	20910
887.025	20891
887.149	20617
887.274	20480
887.399	20218
887.523	20396
887.648	20187
887.773	20233
887.897	20237
888.021	20062
888.146	20092
888.27	20073
888.395	20161
888.519	19932
888.643	19864
888.767	19947
888.891	19784
889.015	19521
889.139	19685
889.263	19674
889.387	19635
889.511	19776
889.635	19685
889.759	19468
889.883	19506
890.006	19529
890.13	19453
890.254	19293
890.377	19403
890.501	19129
890.624	19232
890.748	19187
890.871	19046
890.995	18894
891.118	18890
891.241	19053
891.364	18943
891.488	18970
891.611	18913
891.734	18913
891.857	18825
891.98	18798
892.103	18837
892.226	18681
892.349	18768
892.471	18620
892.594	18684
892.717	18654
892.839	18582
892.962	18700
893.085	18665
893.207	18589
893.33	18502
893.452	18391
893.575	18612
893.697	18471
893.819	18528
893.941	18734
894.064	18601
894.186	18426
894.308	18429
894.43	18559
894.552	18696
894.674	18540
894.796	18376
894.918	18338
895.04	18467
895.161	18475
895.283	18426
895.405	18277
895.526	18452
895.648	18353
895.769	18277
895.891	18369
896.012	18414
896.134	18365
896.255	18304
896.376	18388
896.498	18372
896.619	18372
896.74	18350
896.861	18388
896.982	18673
897.103	18852
897.224	18669
897.345	18608
897.466	18479
897.587	18574
897.708	18566
897.828	18494
897.949	18528
898.07	18380
898.19	18460
898.311	18749
898.431	18616
898.552	18604
898.672	18677
898.792	18604
898.913	18502
899.033	18365
899.153	18395
899.273	18380
899.393	18323
899.513	18277
899.633	18319
899.753	18334
899.873	18289
899.993	18361
900.113	18178
900.232	18213
900.352	18186
900.472	18220
900.591	18072
900.711	18034
900.83	18155
900.95	18171
901.069	18121
901.189	18060
901.308	17760
901.427	17752
901.546	17779
901.665	17672
901.784	17680
901.904	17611
902.023	17528
902.141	17277
902.26	17166
902.379	17216
902.498	17212
902.617	17178
902.735	17246
902.854	17212
902.973	17117
903.091	16771
903.21	16831
903.328	16805
903.446	16717
903.565	16755
903.683	16580
903.801	16538
903.919	16542
904.038	16542
904.156	16436
904.274	16577
904.392	16405
904.51	16398
904.627	16413
904.745	16508
904.863	16428
904.981	16261
905.098	16051
905.216	15953
905.334	15956
905.451	16036
905.569	15968
905.686	15979
905.803	15975
905.921	15755
906.038	15892
906.155	15800
906.272	15766
906.389	15739
906.506	15576
906.623	15481
906.74	15420
906.857	15466
906.974	15431
907.091	15564
907.208	15705
907.324	15523
907.441	15511
907.557	15294
907.674	15237
907.79	15173
907.907	15135
908.023	15192
908.139	15192
908.256	15226
908.372	15135
908.488	15100
908.604	14971
908.72	14994
908.836	14975
908.952	14876
909.068	14864
909.184	14948
909.3	14853
909.415	14979
909.531	14990
909.647	14705
909.762	14724
909.878	14613
909.993	14636
910.108	14640
910.224	14651
910.339	14674
910.454	14511
910.57	14465
910.685	14465
910.8	14648
910.915	14648
911.03	14537
911.145	14244
911.259	14282
911.374	14336
911.489	14187
911.604	14138
911.718	14119
911.833	14100
911.947	13925
912.062	13868
912.176	14031
912.291	14016
912.405	13963
912.519	14130
912.633	14237
912.748	14020
912.862	13936
912.976	13860
913.09	13628
913.204	13837
913.318	13898
913.431	13951
913.545	13883
913.659	13906
913.772	13818
913.886	13750
914	13636
914.113	13750
914.226	13852
914.34	13712
914.453	13556
914.566	13662
914.68	13502
914.793	13521
914.906	13419
915.019	13369
915.132	13270
915.245	13339
915.358	13335
915.47	13335
915.583	13362
915.696	13403
915.809	13518
915.921	13464
916.034	13407
916.146	13320
916.259	13289
916.371	13381
916.483	13472
916.595	13274
916.708	13255
916.82	13392
916.932	13247
917.044	13194
917.156	13209
917.268	13160
917.38	13091
917.491	13080
917.603	13053
917.715	13149
917.826	13156
917.938	13076
918.049	13057
918.161	13099
918.272	13187
918.384	13171
918.495	13015
918.606	12825
918.717	12825
918.828	12935
918.939	12894
919.05	12749
919.161	12795
919.272	12559
919.383	12787
919.494	12817
919.604	13061
919.715	12852
919.826	12787
919.936	12745
920.047	12833
920.157	12825
920.267	12993
920.378	12837
920.488	12859
920.598	13000
920.708	13126
920.818	12993
920.928	12924
921.038	13175
921.148	12981
921.258	12817
921.368	12658
921.477	12639
921.587	12525
921.697	12509
921.806	12597
921.916	12467
922.025	12365
922.134	12292
922.244	12190
922.353	12194
922.462	12224
922.571	12019
922.68	11908
922.789	11920
922.898	11870
923.007	11786
923.116	11927
923.224	11847
923.333	11817
923.442	11756
923.55	11745
923.659	11707
923.767	11779
923.876	11718
923.984	11729
924.092	11695
924.201	11668
924.309	11657
924.417	11653
924.525	11619
924.633	11570
924.741	12376
924.849	11474
924.956	11619
925.064	11463
925.172	11402
925.279	11345
925.387	11463
925.494	11292
925.602	11516
925.709	11463
925.816	11322
925.924	11360
926.031	11509
926.138	11254
926.245	11429
926.352	11349
926.459	11349
926.566	11410
926.673	11349
926.779	11162
926.886	11174
926.993	11056
927.099	11037
927.206	10987
927.312	11045
927.419	11136
927.525	11086
927.631	10965
927.737	10934
927.843	10824
927.95	10805
928.056	10866
928.162	10919
928.267	10873
928.373	11417
928.479	10923
928.585	10653
928.69	10847
928.796	10930
928.901	10691
929.007	10660
929.112	10710
929.218	10660
929.323	10588
929.428	10622
929.533	10691
929.638	10588
929.743	10599
929.848	10603
929.953	10558
930.058	10485
930.163	10329
930.267	10382
930.372	10443
930.477	10306
930.581	10573
930.685	10356
930.79	10272
930.894	10280
930.998	10230
931.103	10398
931.207	10006
931.311	9888
931.415	9854
931.519	9679
931.623	9732
