Data from test_V78500241_1546.txt Node
Date: Fri Mar 25 14:44:28 CST 2022
User: usil
Spectrometer: V785-0024
Trigger mode: 0
Integration Time (sec): 4.000000E-1
Scans to average: 1
Nonlinearity correction enabled: false
Boxcar width: 0
Storing dark spectrum: false
XAxis mode: Wavelengths
Number of Pixels in Spectrum: 1024
>>>>>Begin Spectral Data<<<<<
801.071	22436
801.214	22409
801.356	22063
801.499	21880
801.641	21785
801.783	21759
801.926	21797
802.068	21701
802.211	21679
802.353	21595
802.496	21272
802.638	21302
802.78	21313
802.923	21252
803.065	21131
803.208	21009
803.35	21039
803.492	21287
803.635	21218
803.777	21150
803.919	21146
804.061	21526
804.204	21195
804.346	21127
804.488	20979
804.63	20982
804.773	21093
804.915	21081
805.057	21142
805.199	20986
805.341	21123
805.483	21165
805.626	21119
805.768	21100
805.91	21017
806.052	21096
806.194	20952
806.336	21230
806.478	21028
806.62	21051
806.762	21188
806.904	21188
807.046	21515
807.188	21397
807.33	21408
807.472	21374
807.614	21351
807.756	21252
807.898	21226
808.04	21123
808.182	21089
808.324	21252
808.465	21237
808.607	21564
808.749	21728
808.891	21739
809.033	21759
809.174	21641
809.316	21542
809.458	21492
809.6	21500
809.741	21572
809.883	21587
810.025	21739
810.166	21641
810.308	21660
810.45	21595
810.591	21412
810.733	21386
810.875	21313
811.016	21138
811.158	21131
811.299	21313
811.441	21283
811.582	21291
811.724	21241
811.865	21226
812.007	21138
812.148	21256
812.29	21108
812.431	21336
812.573	21713
812.714	21515
812.855	21698
812.997	21907
813.138	21960
813.279	21789
813.421	21804
813.562	21606
813.703	21462
813.845	21344
813.986	21123
814.127	20948
814.268	21020
814.41	20998
814.551	20853
814.692	20804
814.833	20750
814.974	20735
815.115	20648
815.256	20674
815.397	20545
815.539	20758
815.68	20423
815.821	20495
815.962	20560
816.103	20438
816.244	20370
816.385	20172
816.526	20263
816.666	20180
816.807	19974
816.948	19951
817.089	20005
817.23	19944
817.371	19909
817.512	19921
817.653	19803
817.793	19967
817.934	19955
818.075	19944
818.216	19856
818.356	19940
818.497	19696
818.638	19620
818.778	19582
818.919	19662
819.06	19696
819.2	19731
819.341	19651
819.481	19753
819.622	19932
819.762	20130
819.903	19955
820.043	19913
820.184	19830
820.324	19856
820.465	19830
820.605	19860
820.746	19833
820.886	19837
821.026	19818
821.167	19928
821.307	19864
821.447	19871
821.588	19704
821.728	19689
821.868	19460
822.008	19289
822.149	19244
822.289	19145
822.429	19027
822.569	18939
822.709	19034
822.849	18844
822.99	18753
823.13	18825
823.27	18734
823.41	18639
823.55	18540
823.69	18616
823.83	18559
823.97	18528
824.11	18327
824.25	18361
824.389	18365
824.529	18448
824.669	18365
824.809	18513
824.949	18410
825.089	18429
825.228	18365
825.368	18262
825.508	18163
825.648	18178
825.787	18194
825.927	18159
826.067	18098
826.206	18068
826.346	18152
826.485	18129
826.625	18167
826.765	18159
826.904	18129
827.044	17821
827.183	17984
827.323	17703
827.462	17961
827.601	17824
827.741	17779
827.88	17851
828.02	17764
828.159	17733
828.298	17904
828.437	17889
828.577	17870
828.716	17935
828.855	17726
828.994	17615
829.134	17604
829.273	17665
829.412	17570
829.551	17581
829.69	17604
829.829	17608
829.968	17627
830.107	17646
830.246	17566
830.385	17543
830.524	17516
830.663	17299
830.802	17341
830.941	17185
831.08	17174
831.219	17208
831.357	17254
831.496	17509
831.635	17147
831.774	17143
831.913	17083
832.051	17083
832.19	17025
832.329	17022
832.467	16942
832.606	16915
832.744	16930
832.883	16927
833.022	16809
833.16	16839
833.299	16980
833.437	16858
833.576	16957
833.714	16957
833.852	17052
833.991	16942
834.129	16972
834.267	16957
834.406	16949
834.544	17132
834.682	17018
834.821	16984
834.959	17140
835.097	16908
835.235	16995
835.373	16904
835.511	16972
835.65	16702
835.788	16839
835.926	16755
836.064	16653
836.202	16759
836.34	16778
836.478	16949
836.615	16858
836.753	16790
836.891	16911
837.029	17052
837.167	16824
837.305	16694
837.443	16744
837.58	16649
837.718	16763
837.856	16717
837.993	16786
838.131	16649
838.269	16497
838.406	16641
838.544	16592
838.681	16440
838.819	16417
838.956	16371
839.094	16249
839.231	16234
839.369	16436
839.506	16592
839.643	16348
839.781	16196
839.918	16261
840.055	16265
840.193	16261
840.33	16207
840.467	16207
840.604	16303
840.742	16466
840.879	16116
841.016	16185
841.153	16185
841.29	16398
841.427	16147
841.564	16310
841.701	16280
841.838	16261
841.975	16173
842.112	16162
842.249	16063
842.385	16010
842.522	16150
842.659	16013
842.796	15941
842.933	16040
843.069	15941
843.206	15922
843.343	16059
843.479	16048
843.616	15949
843.752	15785
843.889	15785
844.025	16013
844.162	15732
844.298	15854
844.435	15770
844.571	15728
844.708	15869
844.844	15964
844.98	15953
845.117	15819
845.253	15663
845.389	15610
845.525	15751
845.661	15770
845.798	15789
845.934	15797
846.07	15713
846.206	15759
846.342	15873
846.478	15633
846.614	15545
846.75	15344
846.886	15393
847.022	15485
847.158	15412
847.294	15408
847.429	15374
847.565	15386
847.701	15656
847.837	15093
847.972	15081
848.108	15203
848.244	15241
848.379	15036
848.515	14933
848.65	14925
848.786	14933
848.921	14895
849.057	15081
849.192	15051
849.328	15005
849.463	14933
849.598	14941
849.734	14842
849.869	14819
850.004	14750
850.14	14826
850.275	14636
850.41	14689
850.545	14670
850.68	14663
850.815	14731
850.95	14701
851.085	14895
851.22	14773
851.355	14746
851.49	14750
851.625	14697
851.76	14621
851.895	14590
852.03	14651
852.165	14632
852.299	14682
852.434	14712
852.569	14743
852.703	14773
852.838	14826
852.973	14857
853.107	14868
853.242	14769
853.376	14568
853.511	14533
853.645	14579
853.78	14743
853.914	14617
854.048	14537
854.183	14549
854.317	14625
854.451	14682
854.585	14552
854.72	14590
854.854	14686
854.988	14503
855.122	14503
855.256	14484
855.39	14552
855.524	14686
855.658	14640
855.792	14568
855.926	14648
856.06	14708
856.194	14701
856.327	14621
856.461	14465
856.595	14579
856.729	14583
856.862	14606
856.996	14602
857.13	14655
857.263	14727
857.397	14758
857.53	14629
857.664	14644
857.797	14765
857.931	14708
858.064	14629
858.197	14636
858.331	14473
858.464	14465
858.597	14541
858.731	14518
858.864	14564
858.997	14594
859.13	14640
859.263	14564
859.396	14579
859.529	14583
859.662	14526
859.795	14530
859.928	14560
860.061	14739
860.194	14815
860.327	14651
860.46	14564
860.592	14743
860.725	14689
860.858	14693
860.99	14537
861.123	14549
861.256	14454
861.388	14568
861.521	15150
861.653	14396
861.786	14415
861.918	14457
862.05	14427
862.183	14530
862.315	14575
862.447	14568
862.58	14412
862.712	14408
862.844	14347
862.976	14393
863.108	14366
863.24	14819
863.372	14305
863.504	14412
863.636	14328
863.768	14480
863.9	14385
864.032	14263
864.164	14408
864.296	14480
864.428	14495
864.559	14518
864.691	14469
864.823	14454
864.954	14412
865.086	14347
865.217	14305
865.349	14298
865.48	14282
865.612	14324
865.743	14484
865.875	14396
866.006	14240
866.137	14374
866.269	14381
866.4	14396
866.531	14336
866.662	14229
866.793	14298
866.924	14362
867.055	14324
867.186	14366
867.317	14237
867.448	14282
867.579	14317
867.71	14164
867.841	14252
867.972	14374
868.103	14343
868.233	14256
868.364	14298
868.495	14309
868.625	14495
868.756	14670
868.886	14404
869.017	14583
869.147	14701
869.278	14712
869.408	14682
869.539	14667
869.669	14617
869.799	14621
869.929	14629
870.06	14632
870.19	14872
870.32	14887
870.45	14963
870.58	14944
870.71	15062
870.84	15058
870.97	15032
871.1	14921
871.23	15104
871.36	15112
871.489	15150
871.619	15150
871.749	15313
871.879	15173
872.008	15230
872.138	15135
872.267	15077
872.397	15024
872.526	14975
872.656	14914
872.785	15028
872.915	15146
873.044	15294
873.173	15192
873.303	15268
873.432	15336
873.561	15241
873.69	15237
873.819	15279
873.948	15260
874.077	15214
874.206	15104
874.335	15184
874.464	15386
874.593	15435
874.722	15420
874.851	15576
874.979	15591
875.108	15545
875.237	15492
875.365	15481
875.494	15389
875.623	15587
875.751	15519
875.88	15511
876.008	15755
876.136	15785
876.265	15937
876.393	16055
876.521	15987
876.65	15949
876.778	15937
876.906	15831
877.034	15934
877.162	15937
877.29	15751
877.418	15888
877.546	16051
877.674	15930
877.802	15899
877.93	15835
878.058	15949
878.185	15800
878.313	15918
878.441	15884
878.568	15770
878.696	15861
878.824	15876
878.951	16025
879.079	16147
879.206	16268
879.333	16181
879.461	16055
879.588	16192
879.715	16158
879.842	16356
879.97	16120
880.097	15937
880.224	15804
880.351	15899
880.478	15762
880.605	15793
880.732	15816
880.859	16086
880.986	15816
881.112	15922
881.239	15584
881.366	15507
881.493	15557
881.619	15523
881.746	15538
881.872	15511
881.999	15412
882.125	15469
882.252	15538
882.378	15507
882.505	15686
882.631	15363
882.757	15272
882.883	15310
883.01	15188
883.136	15222
883.262	15169
883.388	15089
883.514	15249
883.64	15340
883.766	15233
883.892	15135
884.018	15100
884.143	15332
884.269	15405
884.395	14998
884.52	14990
884.646	15047
884.772	14937
884.897	14834
885.023	14971
885.148	15062
885.274	15070
885.399	15028
885.524	14929
885.65	15001
885.775	14902
885.9	15028
886.025	15146
886.15	15043
886.275	15001
886.4	14864
886.525	14937
886.65	14948
886.775	14960
886.9	15047
887.025	15207
887.149	14948
887.274	14777
887.399	14705
887.523	14670
887.648	14739
887.773	14705
887.897	14834
888.021	14845
888.146	14792
888.27	14910
888.395	14880
888.519	14857
888.643	14849
888.767	14864
888.891	14762
889.015	14594
889.139	14746
889.263	14590
889.387	14731
889.511	14883
889.635	14735
889.759	14655
889.883	14560
890.006	14689
890.13	14811
890.254	14655
890.377	14610
890.501	14419
890.624	14438
890.748	14514
890.871	14393
890.995	14252
891.118	14218
891.241	14343
891.364	14339
891.488	14522
891.611	14351
891.734	14328
891.857	14385
891.98	14290
892.103	14434
892.226	14461
892.349	14320
892.471	14145
892.594	14256
892.717	14336
892.839	14328
892.962	14408
893.085	14389
893.207	14412
893.33	14164
893.452	14145
893.575	14442
893.697	14393
893.819	14503
893.941	14522
894.064	14606
894.186	14309
894.308	14244
894.43	14385
894.552	14541
894.674	14469
894.796	14271
894.918	14309
895.04	14305
895.161	14476
895.283	14431
895.405	14370
895.526	14442
895.648	14419
895.769	14427
895.891	14461
896.012	14522
896.134	14621
896.255	14431
896.376	14552
896.498	14438
896.619	14545
896.74	14484
896.861	14579
896.982	14868
897.103	14929
897.224	14876
897.345	14777
897.466	14663
897.587	14720
897.708	14792
897.828	14819
897.949	14781
898.07	14648
898.19	14758
898.311	14914
898.431	14773
898.552	14891
898.672	14925
898.792	14902
898.913	14899
899.033	14758
899.153	14663
899.273	14644
899.393	14678
899.513	14735
899.633	14648
899.753	14678
899.873	14712
899.993	14788
900.113	14693
900.232	14762
900.352	14655
900.472	14701
900.591	14469
900.711	14579
900.83	14537
900.95	14659
901.069	14674
901.189	14480
901.308	14317
901.427	14233
901.546	14248
901.665	14252
901.784	14305
901.904	14130
902.023	14054
902.141	13925
902.26	13826
902.379	13833
902.498	13826
902.617	13734
902.735	13830
902.854	13753
902.973	13731
903.091	13514
903.21	13400
903.328	13582
903.446	13491
903.565	13457
903.683	13354
903.801	13251
903.919	13350
904.038	13441
904.156	13202
904.274	13266
904.392	13213
904.51	13190
904.627	13198
904.745	13114
904.863	13289
904.981	13050
905.098	12814
905.216	12951
905.334	13027
905.451	12890
905.569	12882
905.686	13000
905.803	12867
905.921	12677
906.038	12814
906.155	12707
906.272	12608
906.389	12677
906.506	12471
906.623	12475
906.74	12422
906.857	12281
906.974	12308
907.091	12467
907.208	12551
907.324	12547
907.441	12365
907.557	12136
907.674	12201
907.79	12102
907.907	12167
908.023	12235
908.139	12270
908.256	12117
908.372	12091
908.488	12041
908.604	11904
908.72	11931
908.836	11961
908.952	11901
909.068	12011
909.184	12026
909.3	11931
909.415	12068
909.531	12003
909.647	11714
909.762	11703
909.878	11737
909.993	11661
910.108	11710
910.224	11699
910.339	11733
910.454	11520
910.57	11581
910.685	11570
910.8	11767
910.915	11653
911.03	11611
911.145	11448
911.259	11395
911.374	11353
911.489	11356
911.604	11349
911.718	11208
911.833	11318
911.947	11102
912.062	11022
912.176	11155
912.291	11147
912.405	11132
912.519	11406
912.633	11372
912.748	11231
912.862	11227
912.976	10987
913.09	10957
913.204	10919
913.318	11102
913.431	11185
913.545	11094
913.659	11212
913.772	11071
913.886	10953
914	10900
914.113	11037
914.226	11018
914.34	11022
914.453	10915
914.566	10995
914.68	10965
914.793	10816
914.906	10733
915.019	10607
915.132	10653
915.245	10649
915.358	10702
915.47	10687
915.583	10645
915.696	10752
915.809	10755
915.921	10797
916.034	10660
916.146	10626
916.259	10626
916.371	10698
916.483	10561
916.595	10512
916.708	10561
916.82	10577
916.932	10542
917.044	10626
917.156	10569
917.268	10440
917.38	10535
917.491	10390
917.603	10558
917.715	10588
917.826	10554
917.938	10546
918.049	10432
918.161	10531
918.272	10622
918.384	10645
918.495	10569
918.606	10428
918.717	10356
918.828	10329
918.939	10352
919.05	10234
919.161	10341
919.272	10185
919.383	10234
919.494	10360
919.604	10519
919.715	10363
919.826	10344
919.936	10325
920.047	10447
920.157	10371
920.267	10558
920.378	10341
920.488	10436
920.598	10561
920.708	10725
920.818	10554
920.928	10489
921.038	10683
921.148	10691
921.258	10409
921.368	10261
921.477	10268
921.587	10238
921.697	10150
921.806	10242
921.916	10112
922.025	9949
922.134	9895
922.244	9888
922.353	9994
922.462	9774
922.571	9842
922.68	9656
922.789	9679
922.898	9641
923.007	9618
923.116	9603
923.224	9591
923.333	9606
923.442	9496
923.55	9507
923.659	9504
923.767	9580
923.876	9462
923.984	9538
924.092	9431
924.201	9534
924.309	9504
924.417	9519
924.525	9424
924.633	9473
924.741	10375
924.849	9207
924.956	9332
925.064	9230
925.172	9199
925.279	9241
925.387	9306
925.494	9344
925.602	9405
925.709	9367
925.816	9233
925.924	9264
926.031	9348
926.138	9310
926.245	9355
926.352	9260
926.459	9332
926.566	9351
926.673	9195
926.779	9119
926.886	9150
926.993	9074
927.099	8933
927.206	8952
927.312	8941
927.419	9036
927.525	8986
927.631	9039
927.737	8880
927.843	8804
927.95	8750
928.056	8830
928.162	8807
928.267	8956
928.373	9386
928.479	9013
928.585	8701
928.69	8853
928.796	8872
928.901	8876
929.007	8583
929.112	8785
929.218	8746
929.323	8739
929.428	8667
929.533	8807
929.638	8644
929.743	8686
929.848	8758
929.953	8629
930.058	8552
930.163	8423
930.267	8419
930.372	8552
930.477	8442
930.581	8674
930.685	8575
930.79	8408
930.894	8355
930.998	8404
931.103	8518
931.207	8225
931.311	8180
931.415	8092
931.519	7845
931.623	7894
