Data from test_V78500241_551.txt Node
Date: Fri Mar 25 14:37:33 CST 2022
User: usil
Spectrometer: V785-0024
Trigger mode: 0
Integration Time (sec): 4.000000E-1
Scans to average: 1
Nonlinearity correction enabled: false
Boxcar width: 0
Storing dark spectrum: false
XAxis mode: Wavelengths
Number of Pixels in Spectrum: 1024
>>>>>Begin Spectral Data<<<<<
801.071	27515
801.214	27496
801.356	27184
801.499	27093
801.641	27055
801.783	26963
801.926	27070
802.068	26800
802.211	26720
802.353	26746
802.496	26549
802.638	26552
802.78	26461
802.923	26431
803.065	26434
803.208	26381
803.35	26545
803.492	26693
803.635	26583
803.777	26495
803.919	26743
804.061	27001
804.204	26590
804.346	26511
804.488	26377
804.63	26522
804.773	26587
804.915	26587
805.057	26606
805.199	26750
805.341	26796
805.483	26777
805.626	26842
805.768	26594
805.91	26819
806.052	26921
806.194	26914
806.336	27195
806.478	27112
806.62	27199
806.762	27420
806.904	27606
807.046	28006
807.188	28116
807.33	28188
807.472	28516
807.614	28721
807.756	29258
807.898	29554
808.04	30178
808.182	31027
808.324	32355
808.465	33549
808.607	35090
808.749	36464
808.891	37080
809.033	37225
809.174	36521
809.316	34987
809.458	33519
809.6	32119
809.741	30867
809.883	30057
810.025	29577
810.166	29181
810.308	28797
810.45	28459
810.591	28200
810.733	27911
810.875	27652
811.016	27450
811.158	27344
811.299	27469
811.441	27507
811.582	27443
811.724	27226
811.865	27119
812.007	27169
812.148	27127
812.29	27051
812.431	27070
812.573	27222
812.714	27393
812.855	27511
812.997	27648
813.138	27576
813.279	27610
813.421	27291
813.562	27348
813.703	27112
813.845	27001
813.986	26625
814.127	26514
814.268	26336
814.41	26370
814.551	26290
814.692	26427
814.833	26317
814.974	26278
815.115	26358
815.256	26100
815.397	25997
815.539	26119
815.68	25936
815.821	25902
815.962	25879
816.103	26016
816.244	25746
816.385	25639
816.526	25655
816.666	25358
816.807	25320
816.948	25514
817.089	25419
817.23	25362
817.371	25316
817.512	25293
817.653	25187
817.793	25400
817.934	25403
818.075	25225
818.216	25217
818.356	24977
818.497	25095
818.638	25000
818.778	25042
818.919	24897
819.06	25122
819.2	25141
819.341	25160
819.481	25179
819.622	25308
819.762	25350
819.903	25346
820.043	25312
820.184	25266
820.324	25247
820.465	25274
820.605	25217
820.746	25179
820.886	24966
821.026	25118
821.167	24954
821.307	25065
821.447	25099
821.588	24928
821.728	24692
821.868	24574
822.008	24566
822.149	24391
822.289	24391
822.429	24083
822.569	24079
822.709	24038
822.849	23897
822.99	24003
823.13	23809
823.27	23843
823.41	23726
823.55	23619
823.69	23733
823.83	23661
823.97	23703
824.11	23436
824.25	23512
824.389	23486
824.529	23471
824.669	23455
824.809	23627
824.949	23433
825.089	23406
825.228	23440
825.368	23330
825.508	23280
825.648	23185
825.787	23379
825.927	23254
826.067	23147
826.206	23075
826.346	23185
826.485	23303
826.625	23102
826.765	23284
826.904	23162
827.044	22972
827.183	22930
827.323	22892
827.462	22896
827.601	23083
827.741	22771
827.88	22942
828.02	22752
828.159	22850
828.298	22911
828.437	22892
828.577	22835
828.716	23022
828.855	22824
828.994	22653
829.134	22512
829.273	22656
829.412	22588
829.551	22474
829.69	22603
829.829	22641
829.968	22626
830.107	22542
830.246	22478
830.385	22402
830.524	22466
830.663	22318
830.802	22230
830.941	22192
831.08	22204
831.219	22078
831.357	22215
831.496	22360
831.635	22238
831.774	22124
831.913	22128
832.051	21934
832.19	21873
832.329	22032
832.467	21823
832.606	21816
832.744	21991
832.883	21804
833.022	21888
833.16	22029
833.299	22101
833.437	22086
833.576	22204
833.714	22303
833.852	22226
833.991	22295
834.129	22500
834.267	22265
834.406	22234
834.544	22348
834.682	22158
834.821	22207
834.959	22314
835.097	21972
835.235	22120
835.373	21975
835.511	21915
835.65	21865
835.788	21762
835.926	21701
836.064	21466
836.202	21603
836.34	21671
836.478	21720
836.615	21583
836.753	21686
836.891	21728
837.029	21545
837.167	21515
837.305	21507
837.443	21466
837.58	21485
837.718	21473
837.856	21454
837.993	21332
838.131	21393
838.269	21462
838.406	21435
838.544	21359
838.681	21074
838.819	21036
838.956	20891
839.094	20906
839.231	21001
839.369	21043
839.506	21344
839.643	21020
839.781	20872
839.918	20891
840.055	20785
840.193	20895
840.33	20762
840.467	20777
840.604	20758
840.742	21058
840.879	20651
841.016	20792
841.153	20720
841.29	21077
841.427	20762
841.564	20758
841.701	20834
841.838	20731
841.975	20598
842.112	20796
842.249	20583
842.385	20530
842.522	20754
842.659	20617
842.796	20541
842.933	20488
843.069	20549
843.206	20537
843.343	20575
843.479	20545
843.616	20697
843.752	20560
843.889	20366
844.025	20575
844.162	20499
844.298	20678
844.435	20602
844.571	20587
844.708	20834
844.844	21062
844.98	21260
845.117	21306
845.253	21785
845.389	22512
845.525	23908
845.661	26339
845.798	29235
845.934	31674
846.07	32549
846.206	32202
846.342	30285
846.478	27211
846.614	24505
846.75	22786
846.886	21747
847.022	21032
847.158	20720
847.294	20454
847.429	20199
847.565	20252
847.701	20320
847.837	19791
847.972	19757
848.108	19715
848.244	19750
848.379	19472
848.515	19514
848.65	19354
848.786	19354
848.921	19502
849.057	19487
849.192	19605
849.328	19460
849.463	19251
849.598	19396
849.734	19255
849.869	19152
850.004	19206
850.14	19187
850.275	19042
850.41	19012
850.545	19103
850.68	18962
850.815	19198
850.95	19137
851.085	19240
851.22	19202
851.355	19148
851.49	19110
851.625	18981
851.76	19019
851.895	19019
852.03	18905
852.165	19031
852.299	19065
852.434	19190
852.569	19114
852.703	19133
852.838	19072
852.973	19255
853.107	19232
853.242	19050
853.376	18989
853.511	18894
853.645	18932
853.78	19183
853.914	19019
854.048	19015
854.183	19099
854.317	19046
854.451	19225
854.585	19042
854.72	19038
854.854	19107
854.988	18981
855.122	18996
855.256	18909
855.39	18962
855.524	19023
855.658	18954
855.792	18821
855.926	18989
856.06	18985
856.194	18943
856.327	18932
856.461	18871
856.595	18692
856.729	18890
856.862	19012
856.996	18973
857.13	18905
857.263	19015
857.397	18916
857.53	18787
857.664	18958
857.797	18973
857.931	19038
858.064	18856
858.197	18871
858.331	18829
858.464	18715
858.597	18734
858.731	18848
858.864	18795
858.997	18753
859.13	18916
859.263	18791
859.396	18871
859.529	18772
859.662	18711
859.795	18745
859.928	18757
860.061	19004
860.194	18935
860.327	18772
860.46	18688
860.592	18954
860.725	18886
860.858	18916
860.99	18772
861.123	18749
861.256	18688
861.388	18772
861.521	19350
861.653	18703
861.786	18475
861.918	18650
862.05	18707
862.183	18783
862.315	18783
862.447	18878
862.58	18711
862.712	18646
862.844	18483
862.976	18612
863.108	18517
863.24	18814
863.372	18490
863.504	18563
863.636	18483
863.768	18445
863.9	18551
864.032	18456
864.164	18376
864.296	18631
864.428	18604
864.559	18517
864.691	18544
864.823	18437
864.954	18475
865.086	18433
865.217	18437
865.349	18304
865.48	18403
865.612	18445
865.743	18456
865.875	18502
866.006	18365
866.137	18315
866.269	18376
866.4	18388
866.531	18304
866.662	18452
866.793	18334
866.924	18380
867.055	18350
867.186	18399
867.317	18338
867.448	18338
867.579	18235
867.71	18353
867.841	18182
867.972	18327
868.103	18342
868.233	18330
868.364	18376
868.495	18563
868.625	18551
868.756	18757
868.886	18479
869.017	18544
869.147	18791
869.278	18810
869.408	18627
869.539	18631
869.669	18669
869.799	18608
869.929	18707
870.06	18726
870.19	18859
870.32	18913
870.45	18840
870.58	19015
870.71	19145
870.84	19152
870.97	19031
871.1	18958
871.23	19251
871.36	19270
871.489	19137
871.619	19270
871.749	19137
871.879	19247
872.008	19358
872.138	19285
872.267	19327
872.397	19194
872.526	19088
872.656	19069
872.785	19148
872.915	19289
873.044	19419
873.173	19392
873.303	19415
873.432	19430
873.561	19441
873.69	19506
873.819	19373
873.948	19396
874.077	19445
874.206	19293
874.335	19506
874.464	19594
874.593	19750
874.722	19742
874.851	19932
874.979	19830
875.108	19868
875.237	19662
875.365	19772
875.494	19799
875.623	19902
875.751	19803
875.88	19959
876.008	20031
876.136	20081
876.265	20343
876.393	20484
876.521	20461
876.65	20541
876.778	20358
876.906	20374
877.034	20434
877.162	20545
877.29	20442
877.418	20533
877.546	20659
877.674	20552
877.802	20667
877.93	20754
878.058	20807
878.185	20731
878.313	20929
878.441	21017
878.568	21249
878.696	21534
878.824	22006
878.951	22394
879.079	23056
879.206	24114
879.333	24943
879.461	25616
879.588	26221
879.715	26172
879.842	26058
879.97	25050
880.097	23950
880.224	23235
880.351	22675
880.478	22306
880.605	21994
880.732	21899
880.859	21960
880.986	21709
881.112	21553
881.239	21545
881.366	21329
881.493	21291
881.619	21245
881.746	21230
881.872	21317
881.999	21112
882.125	21291
882.252	21272
882.378	21344
882.505	21412
882.631	21283
882.757	21024
882.883	21146
883.01	21093
883.136	21074
883.262	20910
883.388	20819
883.514	20967
883.64	21028
883.766	20929
883.892	20838
884.018	20872
884.143	21138
884.269	21104
884.395	20826
884.52	20754
884.646	20739
884.772	20735
884.897	20587
885.023	20788
885.148	20811
885.274	20716
885.399	20868
885.524	20533
885.65	20636
885.775	20583
885.9	20385
886.025	20461
886.15	20434
886.275	20229
886.4	20240
886.525	20183
886.65	19982
886.775	19967
886.9	20134
887.025	20142
887.149	19932
887.274	19738
887.399	19723
887.523	19628
887.648	19586
887.773	19518
887.897	19594
888.021	19548
888.146	19392
888.27	19449
888.395	19506
888.519	19377
888.643	19468
888.767	19282
888.891	19263
889.015	19164
889.139	19118
889.263	19114
889.387	19152
889.511	19346
889.635	19198
889.759	19099
889.883	19038
890.006	19023
890.13	19133
890.254	18802
890.377	18947
890.501	18875
890.624	18741
890.748	18749
890.871	18585
890.995	18544
891.118	18551
891.241	18486
891.364	18570
891.488	18585
891.611	18426
891.734	18502
891.857	18547
891.98	18559
892.103	18403
892.226	18437
892.349	18270
892.471	18281
892.594	18361
892.717	18353
892.839	18224
892.962	18388
893.085	18433
893.207	18334
893.33	18216
893.452	18136
893.575	18285
893.697	18304
893.819	18384
893.941	18380
894.064	18346
894.186	18087
894.308	18053
894.43	18262
894.552	18353
894.674	18197
894.796	18007
894.918	18034
895.04	18148
895.161	18167
895.283	18224
895.405	17954
895.526	18079
895.648	18030
895.769	18155
895.891	18239
896.012	18129
896.134	18171
896.255	18182
896.376	18034
896.498	18095
896.619	18186
896.74	18167
896.861	18235
896.982	18471
897.103	18601
897.224	18490
897.345	18407
897.466	18323
897.587	18448
897.708	18452
897.828	18365
897.949	18239
898.07	18243
898.19	18235
898.311	18452
898.431	18334
898.552	18273
898.672	18502
898.792	18369
898.913	18304
899.033	18232
899.153	18209
899.273	18136
899.393	18159
899.513	18095
899.633	18182
899.753	18121
899.873	18079
899.993	18228
900.113	18117
900.232	18167
900.352	18064
900.472	18045
900.591	17950
900.711	17977
900.83	17859
900.95	18030
901.069	17980
901.189	17798
901.308	17638
901.427	17532
901.546	17535
901.665	17592
901.784	17516
901.904	17387
902.023	17273
902.141	17159
902.26	16991
902.379	17136
902.498	16949
902.617	16965
902.735	17045
902.854	16908
902.973	16984
903.091	16782
903.21	16698
903.328	16649
903.446	16565
903.565	16478
903.683	16493
903.801	16527
903.919	16409
904.038	16474
904.156	16314
904.274	16322
904.392	16162
904.51	16299
904.627	16249
904.745	16249
904.863	16242
904.981	16029
905.098	15819
905.216	15899
905.334	15880
905.451	15865
905.569	15880
905.686	15937
905.803	15831
905.921	15690
906.038	15705
906.155	15515
906.272	15625
906.389	15671
906.506	15374
906.623	15435
906.74	15420
906.857	15283
906.974	15317
907.091	15450
907.208	15466
907.324	15424
907.441	15192
907.557	15154
907.674	15154
907.79	15032
907.907	15074
908.023	15165
908.139	15093
908.256	15032
908.372	14990
908.488	15005
908.604	14895
908.72	14800
908.836	14826
908.952	14731
909.068	14807
909.184	14918
909.3	14800
909.415	14864
909.531	14849
909.647	14537
909.762	14427
909.878	14499
909.993	14446
910.108	14514
910.224	14492
910.339	14431
910.454	14370
910.57	14370
910.685	14366
910.8	14446
910.915	14457
911.03	14324
911.145	14126
911.259	14142
911.374	14138
911.489	14100
911.604	14145
911.718	13879
911.833	13925
911.947	13837
912.062	13734
912.176	13811
912.291	13868
912.405	13868
912.519	14046
912.633	13986
912.748	13932
912.862	13799
912.976	13761
913.09	13620
913.204	13689
913.318	13719
913.431	13746
913.545	13715
913.659	13822
913.772	13647
913.886	13563
914	13662
914.113	13582
914.226	13681
914.34	13670
914.453	13415
914.566	13616
914.68	13457
914.793	13506
914.906	13236
915.019	13217
915.132	13183
915.245	13244
915.358	13293
915.47	13369
915.583	13293
915.696	13209
915.809	13293
915.921	13403
916.034	13274
916.146	13209
916.259	13209
916.371	13187
916.483	13263
916.595	13126
916.708	13232
916.82	13198
916.932	13110
917.044	13118
917.156	13080
917.268	12996
917.38	12954
917.491	12882
917.603	12981
917.715	12916
917.826	12935
917.938	12962
918.049	12833
918.161	12939
918.272	12977
918.384	13012
918.495	13027
918.606	12681
918.717	12669
918.828	12696
918.939	12871
919.05	12669
919.161	12738
919.272	12578
919.383	12536
919.494	12715
919.604	12985
919.715	12715
919.826	12654
919.936	12677
920.047	12688
920.157	12749
920.267	12920
920.378	12745
920.488	12707
920.598	12852
920.708	12935
920.818	12833
920.928	12817
921.038	13012
921.148	12916
921.258	12711
921.368	12608
921.477	12490
921.587	12426
921.697	12292
921.806	12441
921.916	12369
922.025	12148
922.134	12140
922.244	12003
922.353	12194
922.462	11977
922.571	11931
922.68	11809
922.789	11691
922.898	11901
923.007	11859
923.116	11824
923.224	11771
923.333	11786
923.442	11604
923.55	11649
923.659	11707
923.767	11680
923.876	11611
923.984	11699
924.092	11581
924.201	11707
924.309	11653
924.417	11604
924.525	11512
924.633	11478
924.741	12190
924.849	11345
924.956	11467
925.064	11372
925.172	11235
925.279	11311
925.387	11254
925.494	11296
925.602	11448
925.709	11288
925.816	11170
925.924	11322
926.031	11379
926.138	11261
926.245	11334
926.352	11155
926.459	11261
926.566	11379
926.673	11143
926.779	11117
926.886	11174
926.993	10911
927.099	10904
927.206	10877
927.312	10908
927.419	10930
927.525	10961
927.631	10934
927.737	10812
927.843	10725
927.95	10679
928.056	10774
928.162	10771
928.267	10835
928.373	11341
928.479	10869
928.585	10618
928.69	10771
928.796	10786
928.901	10626
929.007	10584
929.112	10778
929.218	10599
929.323	10596
929.428	10554
929.533	10691
929.638	10447
929.743	10497
929.848	10546
929.953	10512
930.058	10379
930.163	10287
930.267	10268
930.372	10367
930.477	10280
930.581	10421
930.685	10280
930.79	10173
930.894	10177
930.998	10131
931.103	10230
931.207	9918
931.311	9895
931.415	9698
931.519	9603
931.623	9568
