Data from test_V78500241_1355.txt Node
Date: Fri Mar 25 14:43:09 CST 2022
User: usil
Spectrometer: V785-0024
Trigger mode: 0
Integration Time (sec): 4.000000E-1
Scans to average: 1
Nonlinearity correction enabled: false
Boxcar width: 0
Storing dark spectrum: false
XAxis mode: Wavelengths
Number of Pixels in Spectrum: 1024
>>>>>Begin Spectral Data<<<<<
801.071	22299
801.214	22363
801.356	22101
801.499	21907
801.641	21895
801.783	21869
801.926	21835
802.068	21770
802.211	21648
802.353	21591
802.496	21336
802.638	21222
802.78	21351
802.923	21207
803.065	21020
803.208	21100
803.35	21028
803.492	21195
803.635	21241
803.777	21135
803.919	21119
804.061	21564
804.204	21119
804.346	20960
804.488	21135
804.63	21169
804.773	20948
804.915	21047
805.057	21226
805.199	21070
805.341	21096
805.483	21100
805.626	21154
805.768	21047
805.91	21039
806.052	21207
806.194	20944
806.336	21154
806.478	21203
806.62	21001
806.762	21135
806.904	21233
807.046	21443
807.188	21424
807.33	21393
807.472	21485
807.614	21252
807.756	21401
807.898	21241
808.04	21214
808.182	21260
808.324	21302
808.465	21310
808.607	21587
808.749	21679
808.891	21797
809.033	21808
809.174	21808
809.316	21580
809.458	21644
809.6	21618
809.741	21549
809.883	21538
810.025	21709
810.166	21728
810.308	21614
810.45	21667
810.591	21454
810.733	21458
810.875	21363
811.016	21154
811.158	21218
811.299	21249
811.441	21336
811.582	21222
811.724	21256
811.865	21203
812.007	21154
812.148	21291
812.29	21279
812.431	21268
812.573	21576
812.714	21663
812.855	21743
812.997	21827
813.138	21934
813.279	21827
813.421	21682
813.562	21583
813.703	21386
813.845	21363
813.986	21150
814.127	20918
814.268	20933
814.41	20861
814.551	20864
814.692	20792
814.833	20758
814.974	20731
815.115	20716
815.256	20632
815.397	20587
815.539	20731
815.68	20412
815.821	20404
815.962	20461
816.103	20412
816.244	20248
816.385	20191
816.526	20229
816.666	20043
816.807	19906
816.948	19967
817.089	20050
817.23	20016
817.371	20016
817.512	19997
817.653	19883
817.793	19894
817.934	19871
818.075	19947
818.216	19936
818.356	19913
818.497	19700
818.638	19620
818.778	19605
818.919	19632
819.06	19712
819.2	19727
819.341	19845
819.481	19811
819.622	19833
819.762	20077
819.903	20050
820.043	20054
820.184	19826
820.324	19845
820.465	19959
820.605	19967
820.746	19883
820.886	19757
821.026	19871
821.167	19814
821.307	19982
821.447	19830
821.588	19613
821.728	19643
821.868	19396
822.008	19324
822.149	19289
822.289	19293
822.429	19057
822.569	18947
822.709	19072
822.849	18719
822.99	18852
823.13	18783
823.27	18696
823.41	18673
823.55	18521
823.69	18582
823.83	18540
823.97	18540
824.11	18475
824.25	18384
824.389	18494
824.529	18460
824.669	18414
824.809	18506
824.949	18513
825.089	18445
825.228	18342
825.368	18213
825.508	18095
825.648	18262
825.787	18117
825.927	18209
826.067	18083
826.206	18148
826.346	18273
826.485	18258
826.625	18121
826.765	18133
826.904	18197
827.044	17889
827.183	17939
827.323	17786
827.462	17859
827.601	17901
827.741	17798
827.88	17935
828.02	17707
828.159	17859
828.298	17916
828.437	17904
828.577	17817
828.716	17946
828.855	17878
828.994	17611
829.134	17615
829.273	17687
829.412	17528
829.551	17501
829.69	17638
829.829	17547
829.968	17718
830.107	17562
830.246	17524
830.385	17608
830.524	17429
830.663	17455
830.802	17311
830.941	17284
831.08	17246
831.219	17307
831.357	17425
831.496	17341
831.635	17239
831.774	17189
831.913	17132
832.051	17010
832.19	17037
832.329	17037
832.467	16999
832.606	16862
832.744	16858
832.883	16911
833.022	16911
833.16	16976
833.299	16900
833.437	16946
833.576	16854
833.714	16972
833.852	17010
833.991	17018
834.129	16953
834.267	17090
834.406	17003
834.544	17117
834.682	17029
834.821	16900
834.959	17117
835.097	16972
835.235	17056
835.373	16885
835.511	16968
835.65	16812
835.788	16934
835.926	16759
836.064	16755
836.202	16675
836.34	16908
836.478	16900
836.615	16839
836.753	16930
836.891	16995
837.029	16877
837.167	16820
837.305	16774
837.443	16801
837.58	16672
837.718	16889
837.856	16691
837.993	16706
838.131	16778
838.269	16664
838.406	16729
838.544	16713
838.681	16447
838.819	16379
838.956	16344
839.094	16303
839.231	16344
839.369	16489
839.506	16641
839.643	16542
839.781	16257
839.918	16185
840.055	16253
840.193	16341
840.33	16207
840.467	16238
840.604	16360
840.742	16474
840.879	16055
841.016	16135
841.153	16169
841.29	16325
841.427	16246
841.564	16226
841.701	16196
841.838	16280
841.975	16310
842.112	16192
842.249	16002
842.385	16051
842.522	16242
842.659	16082
842.796	15998
842.933	16017
843.069	16010
843.206	15964
843.343	16025
843.479	16135
843.616	16063
843.752	15945
843.889	15819
844.025	15979
844.162	15755
844.298	15876
844.435	15835
844.571	15724
844.708	15915
844.844	16013
844.98	15926
845.117	16010
845.253	15846
845.389	15816
845.525	15861
845.661	15800
845.798	15800
845.934	16021
846.07	15949
846.206	15854
846.342	15949
846.478	15850
846.614	15652
846.75	15405
846.886	15389
847.022	15580
847.158	15443
847.294	15439
847.429	15393
847.565	15389
847.701	15690
847.837	15188
847.972	15138
848.108	15218
848.244	15154
848.379	15104
848.515	14994
848.65	15043
848.786	14963
848.921	14967
849.057	15138
849.192	15108
849.328	15009
849.463	15066
849.598	14979
849.734	14891
849.869	14826
850.004	14796
850.14	14804
850.275	14823
850.41	14796
850.545	14735
850.68	14754
850.815	14830
850.95	14819
851.085	14929
851.22	14834
851.355	14834
851.49	14804
851.625	14724
851.76	14765
851.895	14552
852.03	14651
852.165	14678
852.299	14724
852.434	14788
852.569	14823
852.703	14857
852.838	14845
852.973	14918
853.107	14948
853.242	14773
853.376	14545
853.511	14564
853.645	14575
853.78	14754
853.914	14629
854.048	14644
854.183	14674
854.317	14724
854.451	14857
854.585	14579
854.72	14632
854.854	14644
854.988	14556
855.122	14594
855.256	14492
855.39	14571
855.524	14716
855.658	14705
855.792	14716
855.926	14598
856.06	14724
856.194	14701
856.327	14621
856.461	14594
856.595	14610
856.729	14587
856.862	14743
856.996	14769
857.13	14648
857.263	14735
857.397	14693
857.53	14758
857.664	14724
857.797	14689
857.931	14750
858.064	14610
858.197	14796
858.331	14602
858.464	14613
858.597	14575
858.731	14636
858.864	14606
858.997	14655
859.13	14731
859.263	14651
859.396	14773
859.529	14644
859.662	14655
859.795	14537
859.928	14594
860.061	14727
860.194	14815
860.327	14621
860.46	14625
860.592	14750
860.725	14754
860.858	14781
860.99	14648
861.123	14488
861.256	14583
861.388	14678
861.521	15340
861.653	14530
861.786	14400
861.918	14434
862.05	14488
862.183	14644
862.315	14579
862.447	14708
862.58	14659
862.712	14404
862.844	14301
862.976	14480
863.108	14415
863.24	14769
863.372	14336
863.504	14336
863.636	14415
863.768	14476
863.9	14396
864.032	14298
864.164	14259
864.296	14419
864.428	14480
864.559	14587
864.691	14454
864.823	14419
864.954	14370
865.086	14374
865.217	14476
865.349	14396
865.48	14385
865.612	14461
865.743	14571
865.875	14381
866.006	14343
866.137	14389
866.269	14370
866.4	14282
866.531	14343
866.662	14309
866.793	14404
866.924	14427
867.055	14442
867.186	14366
867.317	14343
867.448	14290
867.579	14317
867.71	14313
867.841	14343
867.972	14389
868.103	14442
868.233	14396
868.364	14393
868.495	14461
868.625	14610
868.756	14724
868.886	14488
869.017	14583
869.147	14712
869.278	14788
869.408	14701
869.539	14678
869.669	14724
869.799	14629
869.929	14796
870.06	14788
870.19	14990
870.32	14895
870.45	14956
870.58	15013
870.71	15169
870.84	15138
870.97	15062
871.1	15047
871.23	15180
871.36	15161
871.489	15062
871.619	15058
871.749	15264
871.879	15313
872.008	15302
872.138	15249
872.267	15218
872.397	15173
872.526	15020
872.656	15055
872.785	15150
872.915	15230
873.044	15313
873.173	15298
873.303	15260
873.432	15313
873.561	15351
873.69	15310
873.819	15412
873.948	15348
874.077	15241
874.206	15192
874.335	15329
874.464	15530
874.593	15610
874.722	15545
874.851	15641
874.979	15511
875.108	15671
875.237	15576
875.365	15534
875.494	15584
875.623	15724
875.751	15591
875.88	15755
876.008	15766
876.136	15873
876.265	16029
876.393	16105
876.521	16036
876.65	16074
876.778	15994
876.906	16002
877.034	15945
877.162	16082
877.29	15953
877.418	15953
877.546	16048
877.674	15956
877.802	15918
877.93	16032
878.058	15949
878.185	15911
878.313	15972
878.441	16090
878.568	15888
878.696	16021
878.824	16139
878.951	16112
879.079	16348
879.206	16478
879.333	16322
879.461	16162
879.588	16272
879.715	16322
879.842	16417
879.97	16207
880.097	16071
880.224	15930
880.351	15903
880.478	15937
880.605	15808
880.732	15838
880.859	16002
880.986	15888
881.112	15949
881.239	15804
881.366	15660
881.493	15504
881.619	15477
881.746	15561
881.872	15580
881.999	15564
882.125	15469
882.252	15504
882.378	15671
882.505	15679
882.631	15454
882.757	15363
882.883	15454
883.01	15397
883.136	15294
883.262	15203
883.388	15329
883.514	15412
883.64	15351
883.766	15283
883.892	15157
884.018	15279
884.143	15344
884.269	15420
884.395	14994
884.52	15119
884.646	15024
884.772	14986
884.897	14876
885.023	15028
885.148	15226
885.274	15256
885.399	15173
885.524	15001
885.65	15116
885.775	15104
885.9	15173
886.025	15192
886.15	14994
886.275	14956
886.4	15043
886.525	15074
886.65	14918
886.775	14921
886.9	15264
887.025	15154
887.149	15032
887.274	14864
887.399	14773
887.523	14811
887.648	14739
887.773	14777
887.897	14979
888.021	14975
888.146	14842
888.27	15001
888.395	15013
888.519	14895
888.643	14891
888.767	14948
888.891	14785
889.015	14667
889.139	14777
889.263	14689
889.387	14872
889.511	15024
889.635	14823
889.759	14716
889.883	14708
890.006	14762
890.13	14933
890.254	14625
890.377	14575
890.501	14545
890.624	14473
890.748	14625
890.871	14488
890.995	14317
891.118	14259
891.241	14412
891.364	14358
891.488	14427
891.611	14438
891.734	14492
891.857	14423
891.98	14450
892.103	14419
892.226	14408
892.349	14434
892.471	14244
892.594	14355
892.717	14423
892.839	14324
892.962	14366
893.085	14503
893.207	14370
893.33	14298
893.452	14301
893.575	14385
893.697	14423
893.819	14583
893.941	14606
894.064	14678
894.186	14374
894.308	14362
894.43	14495
894.552	14530
894.674	14575
894.796	14366
894.918	14450
895.04	14339
895.161	14629
895.283	14434
895.405	14419
895.526	14476
895.648	14533
895.769	14530
895.891	14526
896.012	14583
896.134	14560
896.255	14545
896.376	14537
896.498	14533
896.619	14469
896.74	14526
896.861	14636
896.982	14857
897.103	15009
897.224	14982
897.345	14777
897.466	14785
897.587	14826
897.708	14899
897.828	14811
897.949	14762
898.07	14708
898.19	14758
898.311	14971
898.431	14769
898.552	14948
898.672	14906
898.792	15020
898.913	14982
899.033	14777
899.153	14842
899.273	14632
899.393	14594
899.513	14861
899.633	14743
899.753	14811
899.873	14754
899.993	14857
900.113	14659
900.232	14731
900.352	14842
900.472	14648
900.591	14613
900.711	14621
900.83	14545
900.95	14697
901.069	14697
901.189	14625
901.308	14271
901.427	14240
901.546	14286
901.665	14244
901.784	14259
901.904	14210
902.023	14149
902.141	13993
902.26	13871
902.379	13879
902.498	13913
902.617	13849
902.735	13909
902.854	13822
902.973	13887
903.091	13548
903.21	13605
903.328	13559
903.446	13521
903.565	13400
903.683	13480
903.801	13304
903.919	13407
904.038	13381
904.156	13263
904.274	13282
904.392	13236
904.51	13213
904.627	13228
904.745	13282
904.863	13293
904.981	13031
905.098	12916
905.216	12871
905.334	12863
905.451	12916
905.569	12932
905.686	13031
905.803	12954
905.921	12703
906.038	12806
906.155	12745
906.272	12559
906.389	12650
906.506	12498
906.623	12547
906.74	12456
906.857	12243
906.974	12471
907.091	12460
907.208	12662
907.324	12544
907.441	12475
907.557	12235
907.674	12213
907.79	12175
907.907	12201
908.023	12292
908.139	12319
908.256	12235
908.372	12209
908.488	12114
908.604	12019
908.72	11954
908.836	12038
908.952	11984
909.068	11977
909.184	12091
909.3	12003
909.415	12110
909.531	11984
909.647	11832
909.762	11790
909.878	11649
909.993	11843
910.108	11771
910.224	11748
910.339	11767
910.454	11657
910.57	11600
910.685	11627
910.8	11767
910.915	11661
911.03	11585
911.145	11414
911.259	11444
911.374	11512
911.489	11341
911.604	11288
911.718	11322
911.833	11250
911.947	11102
912.062	11006
912.176	11258
912.291	11227
912.405	11193
912.519	11303
912.633	11391
912.748	11326
912.862	11334
912.976	11136
913.09	10927
913.204	11067
913.318	11048
913.431	11166
913.545	11117
913.659	11128
913.772	11094
913.886	10965
914	10957
914.113	11003
914.226	11083
914.34	11052
914.453	10889
914.566	11006
914.68	10999
914.793	10869
914.906	10710
915.019	10748
915.132	10653
915.245	10702
915.358	10793
915.47	10717
915.583	10733
915.696	10801
915.809	10847
915.921	10908
916.034	10702
916.146	10603
916.259	10592
916.371	10812
916.483	10698
916.595	10675
916.708	10679
916.82	10656
916.932	10603
917.044	10554
917.156	10573
917.268	10569
917.38	10546
917.491	10542
917.603	10523
917.715	10656
917.826	10558
917.938	10481
918.049	10462
918.161	10527
918.272	10588
918.384	10649
918.495	10672
918.606	10413
918.717	10333
918.828	10375
918.939	10466
919.05	10386
919.161	10356
919.272	10188
919.383	10215
919.494	10409
919.604	10637
919.715	10325
919.826	10421
919.936	10379
920.047	10485
920.157	10478
920.267	10634
920.378	10523
920.488	10428
920.598	10649
920.708	10816
920.818	10679
920.928	10485
921.038	10755
921.148	10714
921.258	10417
921.368	10367
921.477	10295
921.587	10246
921.697	10158
921.806	10291
921.916	10181
922.025	10040
922.134	9949
922.244	9873
922.353	9998
922.462	9854
922.571	9793
922.68	9682
922.789	9599
922.898	9694
923.007	9564
923.116	9667
923.224	9641
923.333	9656
923.442	9549
923.55	9591
923.659	9584
923.767	9580
923.876	9526
923.984	9584
924.092	9412
924.201	9576
924.309	9507
924.417	9481
924.525	9382
924.633	9553
924.741	10417
924.849	9291
924.956	9458
925.064	9329
925.172	9245
925.279	9287
925.387	9363
925.494	9348
925.602	9401
925.709	9389
925.816	9211
925.924	9241
926.031	9351
926.138	9310
926.245	9351
926.352	9195
926.459	9275
926.566	9386
926.673	9268
926.779	9150
926.886	9150
926.993	9116
927.099	8929
927.206	8990
927.312	8975
927.419	8982
927.525	8990
927.631	9066
927.737	8876
927.843	8944
927.95	8785
928.056	8796
928.162	8918
928.267	8952
928.373	9584
928.479	9039
928.585	8754
928.69	8921
928.796	8963
928.901	8853
929.007	8705
929.112	8853
929.218	8701
929.323	8762
929.428	8705
929.533	8868
929.638	8648
929.743	8693
929.848	8766
929.953	8659
930.058	8651
930.163	8473
930.267	8476
930.372	8632
930.477	8499
930.581	8659
930.685	8556
930.79	8457
930.894	8423
930.998	8415
931.103	8514
931.207	8298
931.311	8221
931.415	8130
931.519	8012
931.623	7917
