Data from test_V78500241_2478.txt Node
Date: Fri Mar 25 14:50:58 CST 2022
User: usil
Spectrometer: V785-0024
Trigger mode: 0
Integration Time (sec): 4.000000E-1
Scans to average: 1
Nonlinearity correction enabled: false
Boxcar width: 0
Storing dark spectrum: false
XAxis mode: Wavelengths
Number of Pixels in Spectrum: 1024
>>>>>Begin Spectral Data<<<<<
801.071	22090
801.214	21869
801.356	21804
801.499	21561
801.641	21500
801.783	21469
801.926	21389
802.068	21321
802.211	21355
802.353	21275
802.496	21112
802.638	20963
802.78	20929
802.923	20910
803.065	20792
803.208	20705
803.35	20876
803.492	20887
803.635	20994
803.777	20689
803.919	20876
804.061	21184
804.204	20868
804.346	20727
804.488	20724
804.63	20750
804.773	20739
804.915	20708
805.057	20750
805.199	20636
805.341	20701
805.483	20739
805.626	20705
805.768	20762
805.91	20667
806.052	20727
806.194	20682
806.336	20769
806.478	20598
806.62	20667
806.762	20727
806.904	20944
807.046	21116
807.188	21058
807.33	21039
807.472	21195
807.614	20944
807.756	20937
807.898	20925
808.04	20838
808.182	20823
808.324	20735
808.465	20823
808.607	21043
808.749	21093
808.891	21188
809.033	21264
809.174	21047
809.316	21013
809.458	21066
809.6	20986
809.741	21287
809.883	21112
810.025	21207
810.166	21355
810.308	21176
810.45	21195
810.591	21005
810.733	20975
810.875	20826
811.016	20724
811.158	20765
811.299	20941
811.441	20971
811.582	21036
811.724	20853
811.865	20811
812.007	20788
812.148	20823
812.29	20864
812.431	21009
812.573	21081
812.714	21260
812.855	21298
812.997	21351
813.138	21561
813.279	21424
813.421	21317
813.562	21169
813.703	21165
813.845	20971
813.986	20735
814.127	20625
814.268	20495
814.41	20503
814.551	20427
814.692	20389
814.833	20202
814.974	20263
815.115	20423
815.256	20199
815.397	20126
815.539	20339
815.68	20103
815.821	20050
815.962	20050
816.103	20062
816.244	20062
816.385	19807
816.526	19757
816.666	19575
816.807	19499
816.948	19537
817.089	19674
817.23	19674
817.371	19483
817.512	19613
817.653	19597
817.793	19506
817.934	19468
818.075	19487
818.216	19396
818.356	19548
818.497	19327
818.638	19247
818.778	19263
818.919	19297
819.06	19190
819.2	19213
819.341	19362
819.481	19324
819.622	19571
819.762	19651
819.903	19563
820.043	19483
820.184	19468
820.324	19476
820.465	19658
820.605	19544
820.746	19487
820.886	19335
821.026	19480
821.167	19483
821.307	19548
821.447	19441
821.588	19301
821.728	19126
821.868	19034
822.008	18871
822.149	18977
822.289	18962
822.429	18669
822.569	18528
822.709	18563
822.849	18334
822.99	18376
823.13	18262
823.27	18361
823.41	18213
823.55	18178
823.69	18174
823.83	18273
823.97	18194
824.11	18041
824.25	18019
824.389	17954
824.529	18129
824.669	18140
824.809	18110
824.949	18038
825.089	18015
825.228	17958
825.368	17809
825.508	17737
825.648	17775
825.787	17813
825.927	17627
826.067	17684
826.206	17764
826.346	17802
826.485	17790
826.625	17718
826.765	17843
826.904	17813
827.044	17444
827.183	17398
827.323	17433
827.462	17452
827.601	17383
827.741	17353
827.88	17402
828.02	17288
828.159	17337
828.298	17410
828.437	17417
828.577	17303
828.716	17516
828.855	17391
828.994	17246
829.134	17261
829.273	17208
829.412	17200
829.551	17052
829.69	17136
829.829	17185
829.968	17360
830.107	17178
830.246	17250
830.385	17212
830.524	17041
830.663	16972
830.802	16946
830.941	16866
831.08	16828
831.219	16862
831.357	16965
831.496	16995
831.635	16835
831.774	16733
831.913	16725
832.051	16504
832.19	16592
832.329	16706
832.467	16584
832.606	16478
832.744	16489
832.883	16493
833.022	16386
833.16	16493
833.299	16592
833.437	16599
833.576	16592
833.714	16478
833.852	16588
833.991	16493
834.129	16672
834.267	16523
834.406	16523
834.544	16573
834.682	16481
834.821	16516
834.959	16759
835.097	16542
835.235	16588
835.373	16645
835.511	16558
835.65	16500
835.788	16504
835.926	16367
836.064	16185
836.202	16169
836.34	16478
836.478	16519
836.615	16386
836.753	16371
836.891	16588
837.029	16481
837.167	16436
837.305	16344
837.443	16398
837.58	16230
837.718	16348
837.856	16436
837.993	16379
838.131	16352
838.269	16234
838.406	16226
838.544	16211
838.681	15964
838.819	15934
838.956	15953
839.094	15854
839.231	15930
839.369	15979
839.506	16249
839.643	16112
839.781	15983
839.918	15816
840.055	15895
840.193	15846
840.33	15804
840.467	15846
840.604	15838
840.742	16207
840.879	15781
841.016	15747
841.153	15766
841.29	15949
841.427	15876
841.564	15915
841.701	15838
841.838	15827
841.975	15682
842.112	15743
842.249	15778
842.385	15572
842.522	15770
842.659	15675
842.796	15675
842.933	15644
843.069	15682
843.206	15564
843.343	15720
843.479	15671
843.616	15656
843.752	15496
843.889	15405
844.025	15675
844.162	15412
844.298	15622
844.435	15492
844.571	15348
844.708	15504
844.844	15557
844.98	15694
845.117	15584
845.253	15367
845.389	15272
845.525	15332
845.661	15454
845.798	15169
845.934	15275
846.07	15230
846.206	15252
846.342	15370
846.478	15233
846.614	15127
846.75	15001
846.886	14902
847.022	15093
847.158	15028
847.294	14971
847.429	15058
847.565	15009
847.701	15302
847.837	14792
847.972	14724
848.108	14792
848.244	14754
848.379	14659
848.515	14602
848.65	14533
848.786	14655
848.921	14590
849.057	14712
849.192	14640
849.328	14651
849.463	14625
849.598	14522
849.734	14507
849.869	14480
850.004	14324
850.14	14415
850.275	14488
850.41	14355
850.545	14355
850.68	14374
850.815	14271
850.95	14400
851.085	14545
851.22	14393
851.355	14423
851.49	14370
851.625	14278
851.76	14400
851.895	14313
852.03	14244
852.165	14336
852.299	14415
852.434	14408
852.569	14412
852.703	14396
852.838	14442
852.973	14537
853.107	14564
853.242	14358
853.376	14256
853.511	14081
853.645	14191
853.78	14396
853.914	14271
854.048	14263
854.183	14065
854.317	14259
854.451	14362
854.585	14237
854.72	14199
854.854	14309
854.988	14077
855.122	14252
855.256	14115
855.39	14248
855.524	14244
855.658	14298
855.792	14240
855.926	14275
856.06	14351
856.194	14362
856.327	14282
856.461	14187
856.595	14126
856.729	14145
856.862	14339
856.996	14206
857.13	14332
857.263	14324
857.397	14358
857.53	14210
857.664	14381
857.797	14278
857.931	14286
858.064	14248
858.197	14396
858.331	14244
858.464	14206
858.597	14206
858.731	14206
858.864	14199
858.997	14187
859.13	14183
859.263	14218
859.396	14278
859.529	14218
859.662	14252
859.795	14145
859.928	14240
860.061	14301
860.194	14385
860.327	14381
860.46	14252
860.592	14339
860.725	14389
860.858	14305
860.99	14202
861.123	14332
861.256	14210
861.388	14229
861.521	14902
861.653	14183
861.786	14054
861.918	14126
862.05	14172
862.183	14233
862.315	14305
862.447	14240
862.58	14081
862.712	14115
862.844	13993
862.976	14103
863.108	14088
863.24	14423
863.372	13909
863.504	13997
863.636	14016
863.768	14065
863.9	14050
864.032	13955
864.164	14005
864.296	14024
864.428	14145
864.559	14126
864.691	14062
864.823	14050
864.954	14062
865.086	14031
865.217	14103
865.349	13944
865.48	13978
865.612	13989
865.743	14008
865.875	14050
866.006	13947
866.137	14077
866.269	13944
866.4	13997
866.531	13982
866.662	13932
866.793	13963
866.924	13997
867.055	14024
867.186	14035
867.317	13917
867.448	13967
867.579	13940
867.71	13963
867.841	13997
867.972	14039
868.103	13978
868.233	14050
868.364	13974
868.495	14031
868.625	14187
868.756	14370
868.886	14119
869.017	14195
869.147	14377
869.278	14370
869.408	14278
869.539	14313
869.669	14298
869.799	14294
869.929	14351
870.06	14298
870.19	14697
870.32	14556
870.45	14613
870.58	14670
870.71	14769
870.84	14735
870.97	14640
871.1	14587
871.23	14902
871.36	14857
871.489	14765
871.619	14811
871.749	14804
871.879	14750
872.008	14948
872.138	14883
872.267	14823
872.397	14682
872.526	14632
872.656	14724
872.785	14712
872.915	14891
873.044	15017
873.173	14872
873.303	14990
873.432	14876
873.561	15039
873.69	14910
873.819	14910
873.948	14876
874.077	14918
874.206	14834
874.335	14918
874.464	15009
874.593	15188
874.722	15138
874.851	15252
874.979	15188
875.108	15275
875.237	15195
875.365	15173
875.494	15195
875.623	15336
875.751	15154
875.88	15298
876.008	15370
876.136	15359
876.265	15603
876.393	15823
876.521	15709
876.65	15713
876.778	15557
876.906	15633
877.034	15580
877.162	15641
877.29	15553
877.418	15667
877.546	15694
877.674	15606
877.802	15572
877.93	15667
878.058	15622
878.185	15641
878.313	15614
878.441	15667
878.568	15481
878.696	15572
878.824	15641
878.951	15671
879.079	15842
879.206	15960
879.333	15808
879.461	15690
879.588	15785
879.715	15888
879.842	15899
879.97	15625
880.097	15492
880.224	15519
880.351	15481
880.478	15481
880.605	15496
880.732	15462
880.859	15781
880.986	15599
881.112	15603
881.239	15431
881.366	15233
881.493	15173
881.619	15192
881.746	15207
881.872	15123
881.999	15157
882.125	15020
882.252	15195
882.378	15104
882.505	15199
882.631	15142
882.757	14982
882.883	15051
883.01	14921
883.136	14960
883.262	14785
883.388	14754
883.514	14960
883.64	15070
883.766	14952
883.892	14754
884.018	14743
884.143	14990
884.269	15036
884.395	14655
884.52	14629
884.646	14712
884.772	14621
884.897	14575
885.023	14667
885.148	14727
885.274	14792
885.399	14807
885.524	14701
885.65	14701
885.775	14720
885.9	14689
886.025	14689
886.15	14716
886.275	14598
886.4	14556
886.525	14686
886.65	14663
886.775	14579
886.9	14815
887.025	14891
887.149	14708
887.274	14473
887.399	14488
887.523	14419
887.648	14324
887.773	14412
887.897	14530
888.021	14560
888.146	14469
888.27	14621
888.395	14549
888.519	14541
888.643	14518
888.767	14568
888.891	14461
889.015	14336
889.139	14328
889.263	14317
889.387	14488
889.511	14537
889.635	14465
889.759	14317
889.883	14309
890.006	14381
890.13	14412
890.254	14240
890.377	14282
890.501	14195
890.624	14111
890.748	14183
890.871	14119
890.995	14077
891.118	14024
891.241	14005
891.364	14081
891.488	14229
891.611	14035
891.734	14054
891.857	14142
891.98	14119
892.103	14115
892.226	14149
892.349	14092
892.471	13887
892.594	14012
892.717	14054
892.839	14039
892.962	14138
893.085	14107
893.207	14005
893.33	14046
893.452	13944
893.575	14062
893.697	14069
893.819	14214
893.941	14259
894.064	14111
894.186	14046
894.308	13967
894.43	14183
894.552	14301
894.674	14088
894.796	14031
894.918	14161
895.04	14027
895.161	14119
895.283	14111
895.405	14161
895.526	14142
895.648	14157
895.769	14248
895.891	14263
896.012	14229
896.134	14218
896.255	14377
896.376	14126
896.498	14286
896.619	14362
896.74	14187
896.861	14317
896.982	14564
897.103	14712
897.224	14610
897.345	14465
897.466	14469
897.587	14556
897.708	14648
897.828	14495
897.949	14556
898.07	14339
898.19	14431
898.311	14583
898.431	14522
898.552	14541
898.672	14708
898.792	14678
898.913	14678
899.033	14560
899.153	14446
899.273	14400
899.393	14446
899.513	14347
899.633	14492
899.753	14450
899.873	14522
899.993	14511
900.113	14408
900.232	14385
900.352	14511
900.472	14275
900.591	14221
900.711	14389
900.83	14313
900.95	14385
901.069	14461
901.189	14183
901.308	14119
901.427	14005
901.546	14008
901.665	13944
901.784	14031
901.904	13852
902.023	13772
902.141	13620
902.26	13514
902.379	13628
902.498	13597
902.617	13457
902.735	13567
902.854	13464
902.973	13483
903.091	13293
903.21	13289
903.328	13289
903.446	13209
903.565	13118
903.683	13091
903.801	13103
903.919	13091
904.038	13156
904.156	12932
904.274	13031
904.392	12901
904.51	12901
904.627	12989
904.745	12962
904.863	12947
904.981	12688
905.098	12700
905.216	12616
905.334	12623
905.451	12677
905.569	12620
905.686	12623
905.803	12646
905.921	12410
906.038	12555
906.155	12509
906.272	12327
906.389	12308
906.506	12266
906.623	12163
906.74	12175
906.857	12117
906.974	12171
907.091	12266
907.208	12353
907.324	12232
907.441	12064
907.557	11996
907.674	11996
907.79	11779
907.907	11980
908.023	11988
908.139	12068
908.256	11988
908.372	11927
908.488	11897
908.604	11672
908.72	11676
908.836	11714
908.952	11653
909.068	11722
909.184	11745
909.3	11668
909.415	11832
909.531	11752
909.647	11535
909.762	11532
909.878	11417
909.993	11486
910.108	11543
910.224	11482
910.339	11482
910.454	11353
910.57	11349
910.685	11189
910.8	11524
910.915	11490
911.03	11406
911.145	11212
911.259	11193
911.374	11220
911.489	11060
911.604	11102
911.718	10957
911.833	11014
911.947	10839
912.062	10797
912.176	10862
912.291	10934
912.405	10980
912.519	11162
912.633	11246
912.748	11014
912.862	10946
912.976	10816
913.09	10748
913.204	10755
913.318	10809
913.431	10927
913.545	10904
913.659	10942
913.772	10831
913.886	10672
914	10748
914.113	10812
914.226	10843
914.34	10797
914.453	10641
914.566	10850
914.68	10687
914.793	10748
914.906	10588
915.019	10493
915.132	10333
915.245	10478
915.358	10493
915.47	10493
915.583	10478
915.696	10626
915.809	10672
915.921	10569
916.034	10493
916.146	10466
916.259	10440
916.371	10481
916.483	10535
916.595	10337
916.708	10398
916.82	10417
916.932	10459
917.044	10421
917.156	10382
917.268	10333
917.38	10322
917.491	10329
917.603	10371
917.715	10432
917.826	10375
917.938	10268
918.049	10188
918.161	10227
918.272	10535
918.384	10443
918.495	10337
918.606	10257
918.717	10109
918.828	10249
918.939	10291
919.05	10158
919.161	10234
919.272	9991
919.383	10086
919.494	10272
919.604	10470
919.715	10246
919.826	10135
919.936	10185
920.047	10204
920.157	10284
920.267	10413
920.378	10276
920.488	10181
920.598	10436
920.708	10554
920.818	10497
920.928	10447
921.038	10569
921.148	10542
921.258	10272
921.368	10181
921.477	10090
921.587	10040
921.697	10017
921.806	10090
921.916	9922
922.025	9831
922.134	9876
922.244	9793
922.353	9812
922.462	9701
922.571	9603
922.68	9454
922.789	9458
922.898	9443
923.007	9431
923.116	9492
923.224	9466
923.333	9431
923.442	9408
923.55	9344
923.659	9389
923.767	9378
923.876	9351
923.984	9469
924.092	9275
924.201	9332
924.309	9321
924.417	9416
924.525	9317
924.633	9325
924.741	10002
924.849	9116
924.956	9291
925.064	9154
925.172	9020
925.279	9058
925.387	9116
925.494	9127
925.602	9272
925.709	9180
925.816	9066
925.924	9180
926.031	9268
926.138	9146
926.245	9180
926.352	9036
926.459	9146
926.566	9275
926.673	9195
926.779	9020
926.886	8975
926.993	8876
927.099	8834
927.206	8811
927.312	8838
927.419	8956
927.525	8842
927.631	8956
927.737	8781
927.843	8796
927.95	8727
928.056	8762
928.162	8807
928.267	8739
928.373	9412
928.479	8872
928.585	8594
928.69	8769
928.796	8788
928.901	8727
929.007	8522
929.112	8644
929.218	8659
929.323	8568
929.428	8610
929.533	8629
929.638	8533
929.743	8571
929.848	8610
929.953	8537
930.058	8446
930.163	8290
930.267	8320
930.372	8450
930.477	8336
930.581	8606
930.685	8400
930.79	8214
930.894	8377
930.998	8263
931.103	8438
931.207	8027
931.311	8100
931.415	7993
931.519	7746
931.623	7807
