Data from test_V78500241_2831.txt Node
Date: Fri Mar 25 14:53:25 CST 2022
User: usil
Spectrometer: V785-0024
Trigger mode: 0
Integration Time (sec): 4.000000E-1
Scans to average: 1
Nonlinearity correction enabled: false
Boxcar width: 0
Storing dark spectrum: false
XAxis mode: Wavelengths
Number of Pixels in Spectrum: 1024
>>>>>Begin Spectral Data<<<<<
801.071	22166
801.214	21953
801.356	21778
801.499	21663
801.641	21412
801.783	21393
801.926	21492
802.068	21492
802.211	21317
802.353	21222
802.496	20998
802.638	20910
802.78	20921
802.923	20823
803.065	20720
803.208	20674
803.35	20697
803.492	20906
803.635	20910
803.777	20693
803.919	20845
804.061	21108
804.204	20826
804.346	20746
804.488	20636
804.63	20720
804.773	20602
804.915	20712
805.057	20830
805.199	20575
805.341	20693
805.483	20948
805.626	20556
805.768	20560
805.91	20697
806.052	20651
806.194	20579
806.336	20830
806.478	20697
806.62	20636
806.762	20739
806.904	20864
807.046	21089
807.188	20967
807.33	21009
807.472	21157
807.614	20933
807.756	20842
807.898	20758
808.04	20689
808.182	20750
808.324	20735
808.465	20746
808.607	20887
808.749	21108
808.891	21127
809.033	21199
809.174	21085
809.316	20960
809.458	20925
809.6	21036
809.741	21062
809.883	21032
810.025	21230
810.166	21260
810.308	21249
810.45	21096
810.591	20986
810.733	20952
810.875	20758
811.016	20590
811.158	20739
811.299	20758
811.441	20902
811.582	20986
811.724	20746
811.865	20788
812.007	20819
812.148	20686
812.29	20731
812.431	21009
812.573	21074
812.714	21211
812.855	21291
812.997	21405
813.138	21526
813.279	21386
813.421	21370
813.562	21218
813.703	20925
813.845	20948
813.986	20583
814.127	20476
814.268	20469
814.41	20404
814.551	20324
814.692	20484
814.833	20248
814.974	20404
815.115	20301
815.256	20161
815.397	20176
815.539	20370
815.68	20062
815.821	20088
815.962	20138
816.103	20084
816.244	19944
816.385	19746
816.526	19776
816.666	19495
816.807	19533
816.948	19685
817.089	19666
817.23	19620
817.371	19480
817.512	19255
817.653	19392
817.793	19510
817.934	19445
818.075	19445
818.216	19480
818.356	19400
818.497	19278
818.638	19175
818.778	19202
818.919	19141
819.06	19164
819.2	19343
819.341	19297
819.481	19365
819.622	19445
819.762	19609
819.903	19620
820.043	19514
820.184	19480
820.324	19346
820.465	19472
820.605	19362
820.746	19407
820.886	19240
821.026	19369
821.167	19266
821.307	19487
821.447	19293
821.588	19274
821.728	19270
821.868	18924
822.008	18829
822.149	18875
822.289	18825
822.429	18601
822.569	18582
822.709	18467
822.849	18350
822.99	18445
823.13	18365
823.27	18323
823.41	18205
823.55	18045
823.69	18057
823.83	18209
823.97	17969
824.11	17889
824.25	17965
824.389	17832
824.529	18003
824.669	17965
824.809	18098
824.949	18022
825.089	18015
825.228	17893
825.368	17897
825.508	17653
825.648	17718
825.787	17653
825.927	17748
826.067	17684
826.206	17604
826.346	17619
826.485	17733
826.625	17619
826.765	17783
826.904	17764
827.044	17539
827.183	17505
827.323	17322
827.462	17444
827.601	17429
827.741	17303
827.88	17383
828.02	17288
828.159	17364
828.298	17410
828.437	17433
828.577	17292
828.716	17482
828.855	17368
828.994	17128
829.134	17109
829.273	17105
829.412	17155
829.551	17105
829.69	17235
829.829	17189
829.968	17193
830.107	17220
830.246	17136
830.385	17174
830.524	17037
830.663	16946
830.802	16858
830.941	16782
831.08	16831
831.219	16877
831.357	16839
831.496	17010
831.635	16679
831.774	16725
831.913	16675
832.051	16447
832.19	16580
832.329	16561
832.467	16443
832.606	16382
832.744	16417
832.883	16497
833.022	16481
833.16	16500
833.299	16466
833.437	16432
833.576	16478
833.714	16535
833.852	16459
833.991	16535
834.129	16554
834.267	16542
834.406	16379
834.544	16558
834.682	16535
834.821	16519
834.959	16637
835.097	16485
835.235	16630
835.373	16398
835.511	16470
835.65	16577
835.788	16333
835.926	16352
836.064	16272
836.202	16348
836.34	16440
836.478	16325
836.615	16421
836.753	16390
836.891	16508
837.029	16470
837.167	16341
837.305	16310
837.443	16261
837.58	16181
837.718	16348
837.856	16310
837.993	16314
838.131	16333
838.269	16139
838.406	16371
838.544	16185
838.681	16029
838.819	15983
838.956	15819
839.094	15781
839.231	15895
839.369	15987
839.506	16219
839.643	16074
839.781	15774
839.918	15846
840.055	15857
840.193	15800
840.33	15812
840.467	15743
840.604	15865
840.742	16097
840.879	15667
841.016	15717
841.153	15728
841.29	15979
841.427	15876
841.564	15838
841.701	15846
841.838	15770
841.975	15797
842.112	15747
842.249	15633
842.385	15595
842.522	15751
842.659	15606
842.796	15557
842.933	15641
843.069	15561
843.206	15591
843.343	15698
843.479	15561
843.616	15652
843.752	15378
843.889	15473
844.025	15466
844.162	15378
844.298	15473
844.435	15462
844.571	15458
844.708	15359
844.844	15660
844.98	15606
845.117	15591
845.253	15298
845.389	15351
845.525	15275
845.661	15272
845.798	15233
845.934	15310
846.07	15150
846.206	15302
846.342	15325
846.478	15279
846.614	15020
846.75	14921
846.886	14906
847.022	15066
847.158	15032
847.294	14853
847.429	15074
847.565	14933
847.701	15203
847.837	14739
847.972	14670
848.108	14811
848.244	14708
848.379	14621
848.515	14575
848.65	14473
848.786	14526
848.921	14655
849.057	14686
849.192	14648
849.328	14571
849.463	14526
849.598	14480
849.734	14442
849.869	14454
850.004	14393
850.14	14450
850.275	14423
850.41	14244
850.545	14305
850.68	14275
850.815	14400
850.95	14355
851.085	14511
851.22	14389
851.355	14324
851.49	14370
851.625	14248
851.76	14355
851.895	14191
852.03	14278
852.165	14282
852.299	14286
852.434	14499
852.569	14377
852.703	14328
852.838	14408
852.973	14473
853.107	14450
853.242	14282
853.376	14161
853.511	14145
853.645	14210
853.78	14355
853.914	14294
854.048	14119
854.183	14229
854.317	14221
854.451	14393
854.585	14233
854.72	14206
854.854	14229
854.988	14180
855.122	14202
855.256	14065
855.39	14229
855.524	14294
855.658	14229
855.792	14161
855.926	14187
856.06	14290
856.194	14240
856.327	14176
856.461	14157
856.595	14282
856.729	14111
856.862	14370
856.996	14164
857.13	14259
857.263	14282
857.397	14351
857.53	14202
857.664	14153
857.797	14294
857.931	14332
858.064	14332
858.197	14347
858.331	14218
858.464	14134
858.597	14142
858.731	14142
858.864	14134
858.997	14180
859.13	14199
859.263	14183
859.396	14374
859.529	14244
859.662	14138
859.795	14202
859.928	14404
860.061	14412
860.194	14282
860.327	14214
860.46	14229
860.592	14267
860.725	14358
860.858	14301
860.99	14237
861.123	14259
861.256	14084
861.388	14317
861.521	14914
861.653	14134
861.786	14024
861.918	14065
862.05	14096
862.183	14100
862.315	14229
862.447	14244
862.58	14126
862.712	13906
862.844	13947
862.976	14081
863.108	14046
863.24	14343
863.372	13917
863.504	13925
863.636	13921
863.768	14016
863.9	13989
864.032	13921
864.164	13917
864.296	13978
864.428	14111
864.559	14039
864.691	14062
864.823	14020
864.954	13974
865.086	14046
865.217	13940
865.349	13932
865.48	13970
865.612	13989
865.743	14149
865.875	14024
866.006	13879
866.137	13974
866.269	14043
866.4	13917
866.531	13913
866.662	13868
866.793	13868
866.924	13921
867.055	14024
867.186	13852
867.317	13944
867.448	13879
867.579	13909
867.71	13894
867.841	13936
867.972	14008
868.103	14001
868.233	13982
868.364	13959
868.495	14046
868.625	14206
868.756	14286
868.886	13989
869.017	14313
869.147	14408
869.278	14313
869.408	14161
869.539	14343
869.669	14362
869.799	14202
869.929	14336
870.06	14282
870.19	14545
870.32	14442
870.45	14549
870.58	14667
870.71	14651
870.84	14754
870.97	14636
871.1	14632
871.23	14720
871.36	14849
871.489	14727
871.619	14830
871.749	14861
871.879	14750
872.008	15001
872.138	14834
872.267	14792
872.397	14727
872.526	14754
872.656	14568
872.785	14686
872.915	14762
873.044	14967
873.173	14876
873.303	14800
873.432	14937
873.561	14960
873.69	14834
873.819	14887
873.948	14937
874.077	14971
874.206	14845
874.335	14933
874.464	14883
874.593	15161
874.722	15039
874.851	15272
874.979	15188
875.108	15222
875.237	15173
875.365	15112
875.494	15146
875.623	15321
875.751	15077
875.88	15329
876.008	15454
876.136	15405
876.265	15641
876.393	15728
876.521	15679
876.65	15686
876.778	15644
876.906	15603
877.034	15511
877.162	15549
877.29	15568
877.418	15686
877.546	15694
877.674	15587
877.802	15625
877.93	15534
878.058	15542
878.185	15431
878.313	15671
878.441	15622
878.568	15397
878.696	15549
878.824	15667
878.951	15720
879.079	15766
879.206	15975
879.333	15861
879.461	15675
879.588	15686
879.715	15838
879.842	15831
879.97	15713
880.097	15359
880.224	15363
880.351	15473
880.478	15481
880.605	15424
880.732	15367
880.859	15743
880.986	15393
881.112	15549
881.239	15332
881.366	15195
881.493	15070
881.619	15176
881.746	15093
881.872	15157
881.999	15093
882.125	15066
882.252	15157
882.378	15077
882.505	15256
882.631	15127
882.757	15024
882.883	14990
883.01	14929
883.136	14925
883.262	14815
883.388	14727
883.514	14941
883.64	14952
883.766	14876
883.892	14830
884.018	14838
884.143	14948
884.269	15009
884.395	14716
884.52	14659
884.646	14804
884.772	14674
884.897	14541
885.023	14625
885.148	14807
885.274	14864
885.399	14735
885.524	14533
885.65	14651
885.775	14686
885.9	14651
886.025	14781
886.15	14769
886.275	14629
886.4	14533
886.525	14575
886.65	14613
886.775	14579
886.9	14735
887.025	14876
887.149	14632
887.274	14454
887.399	14381
887.523	14385
887.648	14366
887.773	14351
887.897	14590
888.021	14579
888.146	14495
888.27	14518
888.395	14526
888.519	14522
888.643	14598
888.767	14507
888.891	14431
889.015	14320
889.139	14404
889.263	14290
889.387	14469
889.511	14495
889.635	14374
889.759	14355
889.883	14355
890.006	14336
890.13	14465
890.254	14214
890.377	14278
890.501	14164
890.624	14081
890.748	14183
890.871	14092
890.995	13894
891.118	13898
891.241	13986
891.364	14073
891.488	14111
891.611	14050
891.734	14081
891.857	14142
891.98	14084
892.103	14115
892.226	13993
892.349	14050
892.471	13841
892.594	14062
892.717	13947
892.839	13997
892.962	13989
893.085	13997
893.207	14096
893.33	13925
893.452	13955
893.575	14126
893.697	14054
893.819	14199
893.941	14172
894.064	14149
894.186	14027
894.308	14008
894.43	14092
894.552	14183
894.674	14195
894.796	14043
894.918	14130
895.04	14081
895.161	14164
895.283	14176
895.405	14111
895.526	14134
895.648	14077
895.769	14115
895.891	14210
896.012	14278
896.134	14142
896.255	14172
896.376	14229
896.498	14286
896.619	14267
896.74	14168
896.861	14244
896.982	14590
897.103	14739
897.224	14533
897.345	14381
897.466	14415
897.587	14366
897.708	14667
897.828	14495
897.949	14427
898.07	14347
898.19	14370
898.311	14625
898.431	14492
898.552	14556
898.672	14670
898.792	14667
898.913	14587
899.033	14431
899.153	14396
899.273	14362
899.393	14381
899.513	14438
899.633	14389
899.753	14370
899.873	14476
899.993	14480
900.113	14419
900.232	14385
900.352	14343
900.472	14271
900.591	14358
900.711	14309
900.83	14191
900.95	14343
901.069	14358
901.189	14100
901.308	14050
901.427	13989
901.546	13917
901.665	14050
901.784	14001
901.904	13822
902.023	13700
902.141	13586
902.26	13472
902.379	13586
902.498	13491
902.617	13480
902.735	13563
902.854	13533
902.973	13495
903.091	13259
903.21	13198
903.328	13297
903.446	13179
903.565	13114
903.683	13099
903.801	12954
903.919	13171
904.038	13023
904.156	12875
904.274	12905
904.392	12924
904.51	12920
904.627	12875
904.745	12913
904.863	13004
904.981	12757
905.098	12604
905.216	12544
905.334	12631
905.451	12608
905.569	12521
905.686	12612
905.803	12654
905.921	12414
906.038	12540
906.155	12426
906.272	12232
906.389	12399
906.506	12194
906.623	12178
906.74	12136
906.857	12155
906.974	12148
907.091	12178
907.208	12365
907.324	12273
907.441	12072
907.557	11897
907.674	11908
907.79	11866
907.907	11870
908.023	11916
908.139	11901
908.256	11882
908.372	11912
908.488	11912
908.604	11737
908.72	11726
908.836	11703
908.952	11657
909.068	11672
909.184	11790
909.3	11676
909.415	11802
909.531	11756
909.647	11543
909.762	11402
909.878	11467
909.993	11516
910.108	11516
910.224	11414
910.339	11440
910.454	11448
910.57	11410
910.685	11280
910.8	11554
910.915	11509
911.03	11414
911.145	11155
911.259	11162
911.374	11193
911.489	11162
911.604	11086
911.718	10953
911.833	11041
911.947	10774
912.062	10828
912.176	10896
912.291	11029
912.405	10949
912.519	11121
912.633	11094
912.748	11045
912.862	10968
912.976	10782
913.09	10687
913.204	10721
913.318	10805
913.431	10968
913.545	10976
913.659	10976
913.772	10839
913.886	10691
914	10694
914.113	10831
914.226	10831
914.34	10809
914.453	10660
914.566	10790
914.68	10577
914.793	10664
914.906	10436
915.019	10451
915.132	10390
915.245	10413
915.358	10451
915.47	10413
915.583	10417
915.696	10417
915.809	10630
915.921	10603
916.034	10432
916.146	10436
916.259	10417
916.371	10500
916.483	10531
916.595	10371
916.708	10398
916.82	10398
916.932	10295
917.044	10360
917.156	10284
917.268	10238
917.38	10272
917.491	10325
917.603	10356
917.715	10398
917.826	10363
917.938	10261
918.049	10128
918.161	10333
918.272	10428
918.384	10386
918.495	10310
918.606	10154
918.717	10112
918.828	10173
918.939	10188
919.05	10017
919.161	10162
919.272	9991
919.383	10013
919.494	10249
919.604	10402
919.715	10230
919.826	10051
919.936	10162
920.047	10200
920.157	10169
920.267	10382
920.378	10139
920.488	10185
920.598	10379
920.708	10478
920.818	10390
920.928	10344
921.038	10550
921.148	10508
921.258	10181
921.368	10158
921.477	10051
921.587	10032
921.697	9934
921.806	10101
921.916	10013
922.025	9743
922.134	9747
922.244	9732
922.353	9812
922.462	9652
922.571	9553
922.68	9416
922.789	9389
922.898	9458
923.007	9428
923.116	9477
923.224	9485
923.333	9466
923.442	9367
923.55	9298
923.659	9306
923.767	9424
923.876	9272
923.984	9355
924.092	9260
924.201	9367
924.309	9306
924.417	9291
924.525	9313
924.633	9268
924.741	9953
924.849	9157
924.956	9226
925.064	9032
925.172	9028
925.279	9013
925.387	8998
925.494	9081
925.602	9195
925.709	9131
925.816	9020
925.924	9112
926.031	9138
926.138	9020
926.245	9108
926.352	9093
926.459	9127
926.566	9180
926.673	9017
926.779	8948
926.886	8929
926.993	8872
927.099	8853
927.206	8830
927.312	8754
927.419	8857
927.525	8849
927.631	8807
927.737	8678
927.843	8686
927.95	8659
928.056	8674
928.162	8693
928.267	8796
928.373	9283
928.479	8762
928.585	8617
928.69	8674
928.796	8769
928.901	8606
929.007	8465
929.112	8621
929.218	8651
929.323	8556
929.428	8492
929.533	8659
929.638	8457
929.743	8499
929.848	8583
929.953	8476
930.058	8396
930.163	8317
930.267	8336
930.372	8431
930.477	8259
930.581	8511
930.685	8355
930.79	8225
930.894	8225
930.998	8225
931.103	8358
931.207	7986
931.311	7883
931.415	7890
931.519	7807
931.623	7784
