Data from test_V78500241_505.txt Node
Date: Fri Mar 25 14:37:14 CST 2022
User: usil
Spectrometer: V785-0024
Trigger mode: 0
Integration Time (sec): 4.000000E-1
Scans to average: 1
Nonlinearity correction enabled: false
Boxcar width: 0
Storing dark spectrum: false
XAxis mode: Wavelengths
Number of Pixels in Spectrum: 1024
>>>>>Begin Spectral Data<<<<<
801.071	26925
801.214	26739
801.356	26533
801.499	26461
801.641	26332
801.783	26263
801.926	26309
802.068	26218
802.211	26054
802.353	26149
802.496	25818
802.638	25742
802.78	25856
802.923	25811
803.065	25677
803.208	25696
803.35	25811
803.492	25814
803.635	25902
803.777	25677
803.919	25841
804.061	26016
804.204	25723
804.346	25753
804.488	25655
804.63	25795
804.773	25727
804.915	25795
805.057	25734
805.199	25746
805.341	25822
805.483	26031
805.626	25864
805.768	25727
805.91	25753
806.052	25818
806.194	25795
806.336	26046
806.478	25727
806.62	25841
806.762	25947
806.904	26103
807.046	26503
807.188	26244
807.33	26343
807.472	26358
807.614	26507
807.756	26400
807.898	26393
808.04	26488
808.182	26537
808.324	27024
808.465	27142
808.607	27340
808.749	27804
808.891	27956
809.033	28093
809.174	27800
809.316	27519
809.458	27180
809.6	27154
809.741	26990
809.883	26708
810.025	26781
810.166	26815
810.308	26655
810.45	26568
810.591	26465
810.733	26339
810.875	26282
811.016	26058
811.158	26035
811.299	26240
811.441	26381
811.582	26301
811.724	26267
811.865	26111
812.007	26157
812.148	26065
812.29	26145
812.431	26263
812.573	26400
812.714	26549
812.855	26503
812.997	26701
813.138	26842
813.279	26834
813.421	26412
813.562	26541
813.703	26404
813.845	26005
813.986	25879
814.127	25795
814.268	25700
814.41	25472
814.551	25666
814.692	25719
814.833	25487
814.974	25571
815.115	25510
815.256	25396
815.397	25411
815.539	25438
815.68	25278
815.821	25411
815.962	25327
816.103	25392
816.244	25217
816.385	24992
816.526	24981
816.666	24920
816.807	24753
816.948	24741
817.089	24837
817.23	24700
817.371	24700
817.512	24749
817.653	24673
817.793	24589
817.934	24779
818.075	24810
818.216	24715
818.356	24498
818.497	24494
818.638	24327
818.778	24342
818.919	24342
819.06	24414
819.2	24479
819.341	24525
819.481	24563
819.622	24681
819.762	24932
819.903	24928
820.043	24852
820.184	24684
820.324	24707
820.465	24692
820.605	24715
820.746	24681
820.886	24426
821.026	24616
821.167	24612
821.307	24673
821.447	24681
821.588	24479
821.728	24228
821.868	24266
822.008	23916
822.149	24015
822.289	23935
822.429	23672
822.569	23672
822.709	23676
822.849	23493
822.99	23486
823.13	23376
823.27	23379
823.41	23360
823.55	23181
823.69	23193
823.83	23391
823.97	23086
824.11	22930
824.25	22831
824.389	22946
824.529	23147
824.669	23018
824.809	23117
824.949	23037
825.089	23117
825.228	23067
825.368	22839
825.508	22729
825.648	22843
825.787	22809
825.927	22740
826.067	22637
826.206	22972
826.346	22831
826.485	22835
826.625	22850
826.765	22835
826.904	22828
827.044	22653
827.183	22474
827.323	22405
827.462	22504
827.601	22398
827.741	22402
827.88	22523
828.02	22405
828.159	22474
828.298	22314
828.437	22535
828.577	22356
828.716	22523
828.855	22337
828.994	22204
829.134	22128
829.273	22150
829.412	22101
829.551	22112
829.69	22006
829.829	22211
829.968	22272
830.107	22188
830.246	22063
830.385	21960
830.524	22097
830.663	21983
830.802	21835
830.941	21736
831.08	21720
831.219	21751
831.357	21808
831.496	21934
831.635	21675
831.774	21595
831.913	21572
832.051	21485
832.19	21469
832.329	21428
832.467	21469
832.606	21454
832.744	21211
832.883	21252
833.022	21218
833.16	21439
833.299	21382
833.437	21412
833.576	21488
833.714	21450
833.852	21561
833.991	21496
834.129	21564
834.267	21378
834.406	21359
834.544	21603
834.682	21389
834.821	21298
834.959	21526
835.097	21336
835.235	21405
835.373	21340
835.511	21378
835.65	21218
835.788	21165
835.926	21161
836.064	20944
836.202	21116
836.34	21203
836.478	21245
836.615	21203
836.753	21157
836.891	21260
837.029	21249
837.167	21237
837.305	21135
837.443	21032
837.58	21093
837.718	21123
837.856	20971
837.993	21055
838.131	20986
838.269	21020
838.406	20849
838.544	20895
838.681	20674
838.819	20667
838.956	20511
839.094	20556
839.231	20507
839.369	20617
839.506	20769
839.643	20758
839.781	20495
839.918	20473
840.055	20499
840.193	20282
840.33	20419
840.467	20412
840.604	20431
840.742	20526
840.879	20408
841.016	20320
841.153	20290
841.29	20594
841.427	20396
841.564	20336
841.701	20343
841.838	20400
841.975	20275
842.112	20142
842.249	20077
842.385	20020
842.522	20415
842.659	20202
842.796	20149
842.933	20229
843.069	20046
843.206	19970
843.343	20096
843.479	20161
843.616	20126
843.752	19959
843.889	19959
844.025	20069
844.162	19913
844.298	20062
844.435	19864
844.571	19894
844.708	19974
844.844	20100
844.98	20058
845.117	20058
845.253	19970
845.389	20027
845.525	20309
845.661	20777
845.798	21081
845.934	21477
846.07	21743
846.206	21747
846.342	21408
846.478	20830
846.614	20195
846.75	19738
846.886	19594
847.022	19563
847.158	19476
847.294	19388
847.429	19396
847.565	19445
847.701	19597
847.837	19171
847.972	19061
848.108	19225
848.244	19061
848.379	18993
848.515	18821
848.65	18844
848.786	18897
848.921	18890
849.057	19034
849.192	19000
849.328	18890
849.463	18791
849.598	18833
849.734	18829
849.869	18745
850.004	18677
850.14	18658
850.275	18604
850.41	18608
850.545	18658
850.68	18639
850.815	18604
850.95	18585
851.085	18745
851.22	18681
851.355	18707
851.49	18570
851.625	18509
851.76	18563
851.895	18498
852.03	18513
852.165	18623
852.299	18612
852.434	18612
852.569	18559
852.703	18574
852.838	18749
852.973	18757
853.107	18646
853.242	18593
853.376	18601
853.511	18407
853.645	18460
853.78	18532
853.914	18559
854.048	18513
854.183	18483
854.317	18467
854.451	18612
854.585	18498
854.72	18555
854.854	18547
854.988	18456
855.122	18448
855.256	18334
855.39	18308
855.524	18540
855.658	18498
855.792	18521
855.926	18555
856.06	18494
856.194	18521
856.327	18547
856.461	18452
856.595	18369
856.729	18391
856.862	18570
856.996	18464
857.13	18407
857.263	18506
857.397	18464
857.53	18384
857.664	18475
857.797	18464
857.931	18620
858.064	18467
858.197	18490
858.331	18414
858.464	18410
858.597	18266
858.731	18376
858.864	18399
858.997	18361
859.13	18388
859.263	18418
859.396	18460
859.529	18365
859.662	18376
859.795	18365
859.928	18410
860.061	18642
860.194	18551
860.327	18509
860.46	18338
860.592	18544
860.725	18616
860.858	18483
860.99	18350
861.123	18251
861.256	18471
861.388	18422
861.521	19228
861.653	18178
861.786	18285
861.918	18228
862.05	18418
862.183	18452
862.315	18330
862.447	18532
862.58	18338
862.712	18121
862.844	18216
862.976	18254
863.108	18171
863.24	18525
863.372	18064
863.504	18121
863.636	18133
863.768	18152
863.9	18079
864.032	18095
864.164	18026
864.296	18106
864.428	18239
864.559	18171
864.691	18194
864.823	18194
864.954	18102
865.086	18057
865.217	18038
865.349	18091
865.48	17961
865.612	18003
865.743	18213
865.875	18057
866.006	17973
866.137	18106
866.269	17980
866.4	18007
866.531	18110
866.662	17954
866.793	17950
866.924	17988
867.055	17942
867.186	18079
867.317	17927
867.448	17824
867.579	18030
867.71	17874
867.841	17965
867.972	17946
868.103	17961
868.233	17977
868.364	17942
868.495	18155
868.625	18121
868.756	18346
868.886	18205
869.017	18251
869.147	18281
869.278	18330
869.408	18201
869.539	18117
869.669	18376
869.799	18296
869.929	18334
870.06	18292
870.19	18506
870.32	18426
870.45	18616
870.58	18620
870.71	18741
870.84	18658
870.97	18620
871.1	18589
871.23	18707
871.36	18779
871.489	18730
871.619	18837
871.749	18707
871.879	18772
872.008	18913
872.138	18894
872.267	18802
872.397	18700
872.526	18696
872.656	18623
872.785	18700
872.915	18787
873.044	18859
873.173	18833
873.303	18878
873.432	18833
873.561	18973
873.69	18943
873.819	18840
873.948	19008
874.077	18817
874.206	18848
874.335	18890
874.464	19042
874.593	19152
874.722	19065
874.851	19198
874.979	19110
875.108	19225
875.237	19179
875.365	19107
875.494	19213
875.623	19274
875.751	19023
875.88	19293
876.008	19327
876.136	19419
876.265	19616
876.393	19677
876.521	19601
876.65	19746
876.778	19651
876.906	19639
877.034	19662
877.162	19586
877.29	19506
877.418	19655
877.546	19613
877.674	19624
877.802	19586
877.93	19700
878.058	19582
878.185	19639
878.313	19635
878.441	19677
878.568	19582
878.696	19818
878.824	19753
878.951	20008
879.079	20218
879.206	20400
879.333	20454
879.461	20640
879.588	20720
879.715	20644
879.842	20781
879.97	20480
880.097	20145
880.224	19982
880.351	19864
880.478	19719
880.605	19651
880.732	19727
880.859	19940
880.986	19719
881.112	19822
881.239	19559
881.366	19400
881.493	19377
881.619	19304
881.746	19293
881.872	19285
881.999	19209
882.125	19217
882.252	19316
882.378	19327
882.505	19365
882.631	19209
882.757	19034
882.883	19137
883.01	19042
883.136	18932
883.262	18924
883.388	18966
883.514	19027
883.64	19145
883.766	18947
883.892	18890
884.018	18810
884.143	18981
884.269	19099
884.395	18795
884.52	18677
884.646	18700
884.772	18646
884.897	18711
885.023	18825
885.148	18871
885.274	18779
885.399	18791
885.524	18757
885.65	18730
885.775	18707
885.9	18677
886.025	18700
886.15	18696
886.275	18658
886.4	18589
886.525	18547
886.65	18456
886.775	18494
886.9	18738
887.025	18833
887.149	18566
887.274	18422
887.399	18270
887.523	18414
887.648	18304
887.773	18209
887.897	18350
888.021	18445
888.146	18323
888.27	18350
888.395	18513
888.519	18380
888.643	18304
888.767	18292
888.891	18220
889.015	18155
889.139	18072
889.263	18087
889.387	18136
889.511	18281
889.635	18125
889.759	18038
889.883	18026
890.006	18178
890.13	18091
890.254	17954
890.377	17851
890.501	17775
890.624	17817
890.748	17901
890.871	17786
890.995	17684
891.118	17703
891.241	17665
891.364	17699
891.488	17707
891.611	17714
891.734	17813
891.857	17824
891.98	17718
892.103	17764
892.226	17741
892.349	17668
892.471	17478
892.594	17592
892.717	17710
892.839	17566
892.962	17604
893.085	17707
893.207	17703
893.33	17505
893.452	17505
893.575	17752
893.697	17558
893.819	17824
893.941	17828
894.064	17638
894.186	17623
894.308	17535
894.43	17714
894.552	17737
894.674	17805
894.796	17482
894.918	17558
895.04	17490
895.161	17657
895.283	17642
895.405	17581
895.526	17646
895.648	17589
895.769	17665
895.891	17665
896.012	17707
896.134	17589
896.255	17684
896.376	17707
896.498	17764
896.619	17786
896.74	17630
896.861	17722
896.982	18030
897.103	18110
897.224	17984
897.345	17889
897.466	17912
897.587	17923
897.708	18022
897.828	18007
897.949	17870
898.07	17813
898.19	17828
898.311	17988
898.431	17832
898.552	17977
898.672	18041
898.792	17954
898.913	17802
899.033	17855
899.153	17726
899.273	17680
899.393	17699
899.513	17668
899.633	17760
899.753	17657
899.873	17695
899.993	17745
900.113	17703
900.232	17722
900.352	17577
900.472	17551
900.591	17512
900.711	17638
900.83	17512
900.95	17577
901.069	17638
901.189	17562
901.308	17258
901.427	17250
901.546	17140
901.665	17140
901.784	17174
901.904	16976
902.023	17018
902.141	16767
902.26	16755
902.379	16831
902.498	16618
902.617	16596
902.735	16637
902.854	16702
902.973	16573
903.091	16447
903.21	16299
903.328	16318
903.446	16177
903.565	16223
903.683	16207
903.801	16074
903.919	16082
904.038	16200
904.156	15975
904.274	16101
904.392	15968
904.51	15835
904.627	15876
904.745	15956
904.863	15968
904.981	15781
905.098	15656
905.216	15618
905.334	15705
905.451	15663
905.569	15599
905.686	15610
905.803	15572
905.921	15458
906.038	15485
906.155	15435
906.272	15283
906.389	15195
906.506	15157
906.623	15108
906.74	15024
906.857	15055
906.974	15058
907.091	15161
907.208	15283
907.324	15081
907.441	15032
907.557	14868
907.674	14830
907.79	14842
907.907	14708
908.023	14769
908.139	14785
908.256	14731
908.372	14735
908.488	14667
908.604	14526
908.72	14511
908.836	14526
908.952	14442
909.068	14560
909.184	14514
909.3	14552
909.415	14602
909.531	14492
909.647	14313
909.762	14225
909.878	14172
909.993	14210
910.108	14225
910.224	14233
910.339	14153
910.454	14172
910.57	14031
910.685	13932
910.8	14275
910.915	14202
911.03	14058
911.145	13959
911.259	13898
911.374	13864
911.489	13875
911.604	13723
911.718	13628
911.833	13670
911.947	13540
912.062	13548
912.176	13552
912.291	13548
912.405	13639
912.519	13830
912.633	13826
912.748	13628
912.862	13613
912.976	13487
913.09	13373
913.204	13407
913.318	13518
913.431	13521
913.545	13502
913.659	13533
913.772	13441
913.886	13217
914	13228
914.113	13403
914.226	13388
914.34	13445
914.453	13228
914.566	13316
914.68	13301
914.793	13179
914.906	13023
915.019	12973
915.132	12916
915.245	13065
915.358	12966
915.47	12973
915.583	13027
915.696	13057
915.809	13061
915.921	13160
916.034	12882
916.146	12875
916.259	12844
916.371	12932
916.483	12932
916.595	12821
916.708	12852
916.82	12833
916.932	12863
917.044	12863
917.156	12817
917.268	12601
917.38	12642
917.491	12734
917.603	12673
917.715	12772
917.826	12779
917.938	12665
918.049	12544
918.161	12665
918.272	12791
918.384	12722
918.495	12658
918.606	12448
918.717	12456
918.828	12593
918.939	12525
919.05	12429
919.161	12460
919.272	12296
919.383	12296
919.494	12585
919.604	12650
919.715	12506
919.826	12338
919.936	12414
920.047	12525
920.157	12486
920.267	12688
920.378	12410
920.488	12471
920.598	12715
920.708	12734
920.818	12574
920.928	12681
921.038	12802
921.148	12612
921.258	12441
921.368	12330
921.477	12281
921.587	12197
921.697	12133
921.806	12273
921.916	12087
922.025	11889
922.134	11916
922.244	11870
922.353	11923
922.462	11863
922.571	11764
922.68	11672
922.789	11589
922.898	11573
923.007	11547
923.116	11608
923.224	11486
923.333	11585
923.442	11509
923.55	11532
923.659	11379
923.767	11509
923.876	11250
923.984	11436
924.092	11307
924.201	11368
924.309	11387
924.417	11353
924.525	11360
924.633	11307
924.741	12247
924.849	11151
924.956	11326
925.064	11220
925.172	11124
925.279	11128
925.387	11124
925.494	11067
925.602	11277
925.709	11178
925.816	11025
925.924	11151
926.031	11212
926.138	11124
926.245	11212
926.352	11048
926.459	11143
926.566	11193
926.673	11025
926.779	10995
926.886	10961
926.993	10740
927.099	10694
927.206	10828
927.312	10630
927.419	10805
927.525	10881
927.631	10752
927.737	10634
927.843	10679
927.95	10500
928.056	10615
928.162	10740
928.267	10645
928.373	11147
928.479	10706
928.585	10398
928.69	10637
928.796	10615
928.901	10535
929.007	10341
929.112	10432
929.218	10341
929.323	10390
929.428	10390
929.533	10558
929.638	10295
929.743	10325
929.848	10394
929.953	10409
930.058	10268
930.163	10131
930.267	10090
930.372	10306
930.477	9987
930.581	10272
930.685	10196
930.79	9987
930.894	10067
930.998	9968
931.103	10135
931.207	9762
931.311	9755
931.415	9675
931.519	9473
931.623	9412
