Data from test_V78500241_1192.txt Node
Date: Fri Mar 25 14:42:00 CST 2022
User: usil
Spectrometer: V785-0024
Trigger mode: 0
Integration Time (sec): 4.000000E-1
Scans to average: 1
Nonlinearity correction enabled: false
Boxcar width: 0
Storing dark spectrum: false
XAxis mode: Wavelengths
Number of Pixels in Spectrum: 1024
>>>>>Begin Spectral Data<<<<<
801.071	22413
801.214	22299
801.356	22147
801.499	21892
801.641	21747
801.783	21709
801.926	21629
802.068	21705
802.211	21751
802.353	21568
802.496	21302
802.638	21256
802.78	21245
802.923	21173
803.065	21093
803.208	21142
803.35	21135
803.492	21165
803.635	21294
803.777	21119
803.919	21184
804.061	21450
804.204	21051
804.346	21051
804.488	20971
804.63	21058
804.773	21001
804.915	21032
805.057	21093
805.199	21116
805.341	21070
805.483	21135
805.626	21150
805.768	21020
805.91	20967
806.052	21100
806.194	20929
806.336	21203
806.478	21017
806.62	20952
806.762	21142
806.904	21218
807.046	21477
807.188	21374
807.33	21405
807.472	21359
807.614	21287
807.756	21146
807.898	21207
808.04	21131
808.182	21184
808.324	21116
808.465	21119
808.607	21481
808.749	21492
808.891	21572
809.033	21633
809.174	21618
809.316	21526
809.458	21408
809.6	21454
809.741	21515
809.883	21485
810.025	21583
810.166	21667
810.308	21561
810.45	21713
810.591	21401
810.733	21344
810.875	21230
811.016	21112
811.158	21180
811.299	21382
811.441	21268
811.582	21340
811.724	21233
811.865	21260
812.007	21252
812.148	21268
812.29	21359
812.431	21313
812.573	21515
812.714	21603
812.855	21724
812.997	21694
813.138	21865
813.279	21808
813.421	21835
813.562	21629
813.703	21675
813.845	21321
813.986	21169
814.127	20929
814.268	20849
814.41	20883
814.551	20834
814.692	20883
814.833	20697
814.974	20720
815.115	20743
815.256	20556
815.397	20632
815.539	20663
815.68	20655
815.821	20377
815.962	20488
816.103	20438
816.244	20427
816.385	20385
816.526	20233
816.666	20092
816.807	20103
816.948	20005
817.089	20088
817.23	20096
817.371	19921
817.512	19852
817.653	19940
817.793	19852
817.934	19887
818.075	19932
818.216	19986
818.356	19936
818.497	19784
818.638	19651
818.778	19613
818.919	19609
819.06	19571
819.2	19738
819.341	19860
819.481	19734
819.622	19887
819.762	20111
819.903	20149
820.043	19967
820.184	19822
820.324	19871
820.465	20073
820.605	19967
820.746	19944
820.886	19727
821.026	19944
821.167	19883
821.307	19978
821.447	19879
821.588	19765
821.728	19658
821.868	19533
822.008	19179
822.149	19259
822.289	19388
822.429	19118
822.569	18989
822.709	19004
822.849	18833
822.99	18840
823.13	18863
823.27	18601
823.41	18677
823.55	18593
823.69	18757
823.83	18513
823.97	18585
824.11	18410
824.25	18315
824.389	18365
824.529	18498
824.669	18441
824.809	18460
824.949	18483
825.089	18521
825.228	18448
825.368	18258
825.508	18216
825.648	18220
825.787	18251
825.927	18300
826.067	18163
826.206	18167
826.346	18194
826.485	18262
826.625	18083
826.765	18292
826.904	18167
827.044	17935
827.183	17942
827.323	17840
827.462	17912
827.601	17847
827.741	17885
827.88	17931
828.02	17805
828.159	17931
828.298	17893
828.437	18026
828.577	17882
828.716	17942
828.855	17832
828.994	17630
829.134	17566
829.273	17608
829.412	17646
829.551	17623
829.69	17570
829.829	17611
829.968	17729
830.107	17760
830.246	17684
830.385	17611
830.524	17573
830.663	17349
830.802	17318
830.941	17273
831.08	17280
831.219	17349
831.357	17299
831.496	17516
831.635	17216
831.774	17098
831.913	17124
832.051	17094
832.19	17033
832.329	17143
832.467	16949
832.606	17018
832.744	16957
832.883	16957
833.022	16938
833.16	16949
833.299	17041
833.437	16953
833.576	17006
833.714	16995
833.852	17045
833.991	16968
834.129	17159
834.267	17071
834.406	16995
834.544	17067
834.682	17052
834.821	16934
834.959	17170
835.097	17045
835.235	17090
835.373	17060
835.511	17067
835.65	16889
835.788	16919
835.926	16850
836.064	16755
836.202	16752
836.34	16949
836.478	16961
836.615	16850
836.753	16942
836.891	17022
837.029	16904
837.167	16911
837.305	16911
837.443	16816
837.58	16702
837.718	16877
837.856	16839
837.993	16786
838.131	16858
838.269	16740
838.406	16733
838.544	16717
838.681	16577
838.819	16466
838.956	16318
839.094	16390
839.231	16390
839.369	16516
839.506	16755
839.643	16618
839.781	16432
839.918	16291
840.055	16394
840.193	16253
840.33	16341
840.467	16398
840.604	16371
840.742	16634
840.879	16154
841.016	16268
841.153	16284
841.29	16466
841.427	16436
841.564	16375
841.701	16421
841.838	16280
841.975	16333
842.112	16261
842.249	16086
842.385	16086
842.522	16242
842.659	16097
842.796	16116
842.933	16143
843.069	16002
843.206	16124
843.343	16238
843.479	16135
843.616	16223
843.752	16032
843.889	15968
844.025	15956
844.162	15899
844.298	15983
844.435	15888
844.571	15899
844.708	15960
844.844	16105
844.98	16036
845.117	16154
845.253	15907
845.389	15907
845.525	15880
845.661	15869
845.798	15842
845.934	15831
846.07	15850
846.206	15941
846.342	15972
846.478	15770
846.614	15557
846.75	15481
846.886	15500
847.022	15587
847.158	15538
847.294	15389
847.429	15603
847.565	15450
847.701	15686
847.837	15340
847.972	15233
848.108	15264
848.244	15359
848.379	15195
848.515	15142
848.65	15028
848.786	15020
848.921	15195
849.057	15313
849.192	15207
849.328	15165
849.463	15070
849.598	15157
849.734	15051
849.869	15104
850.004	14925
850.14	14887
850.275	14781
850.41	14853
850.545	14960
850.68	14777
850.815	14872
850.95	14929
851.085	15123
851.22	14975
851.355	14853
851.49	14960
851.625	14804
851.76	14887
851.895	14697
852.03	14838
852.165	14872
852.299	14868
852.434	14956
852.569	14948
852.703	14948
852.838	15028
852.973	15089
853.107	14971
853.242	14941
853.376	14853
853.511	14636
853.645	14724
853.78	14975
853.914	14746
854.048	14743
854.183	14720
854.317	14773
854.451	14994
854.585	14773
854.72	14800
854.854	14861
854.988	14705
855.122	14712
855.256	14590
855.39	14731
855.524	14819
855.658	14743
855.792	14716
855.926	14861
856.06	14948
856.194	15009
856.327	14731
856.461	14712
856.595	14632
856.729	14781
856.862	14925
856.996	14769
857.13	14773
857.263	14887
857.397	14937
857.53	14720
857.664	14830
857.797	14861
857.931	14826
858.064	14743
858.197	14899
858.331	14773
858.464	14712
858.597	14610
858.731	14739
858.864	14640
858.997	14678
859.13	14762
859.263	14864
859.396	14921
859.529	14629
859.662	14735
859.795	14712
859.928	14708
860.061	14845
860.194	14853
860.327	14727
860.46	14781
860.592	14758
860.725	14781
860.858	14921
860.99	14758
861.123	14659
861.256	14651
861.388	14750
861.521	15454
861.653	14701
861.786	14518
861.918	14598
862.05	14716
862.183	14746
862.315	14739
862.447	14697
862.58	14758
862.712	14575
862.844	14461
862.976	14492
863.108	14583
863.24	14971
863.372	14400
863.504	14549
863.636	14678
863.768	14552
863.9	14625
864.032	14495
864.164	14476
864.296	14545
864.428	14644
864.559	14568
864.691	14537
864.823	14511
864.954	14552
865.086	14571
865.217	14461
865.349	14442
865.48	14415
865.612	14526
865.743	14545
865.875	14415
866.006	14499
866.137	14663
866.269	14537
866.4	14518
866.531	14495
866.662	14343
866.793	14438
866.924	14465
867.055	14499
867.186	14484
867.317	14461
867.448	14454
867.579	14431
867.71	14389
867.841	14480
867.972	14545
868.103	14450
868.233	14473
868.364	14465
868.495	14518
868.625	14644
868.756	14834
868.886	14678
869.017	14708
869.147	14853
869.278	14796
869.408	14743
869.539	14807
869.669	14895
869.799	14743
869.929	14944
870.06	14861
870.19	15074
870.32	15039
870.45	15173
870.58	15154
870.71	15230
870.84	15306
870.97	15123
871.1	15230
871.23	15416
871.36	15378
871.489	15268
871.619	15325
871.749	15332
871.879	15351
872.008	15405
872.138	15367
872.267	15252
872.397	15070
872.526	15089
872.656	15180
872.785	15298
872.915	15370
873.044	15336
873.173	15401
873.303	15389
873.432	15424
873.561	15488
873.69	15431
873.819	15401
873.948	15420
874.077	15370
874.206	15321
874.335	15393
874.464	15633
874.593	15709
874.722	15564
874.851	15717
874.979	15751
875.108	15831
875.237	15663
875.365	15614
875.494	15625
875.623	15759
875.751	15667
875.88	15759
876.008	15861
876.136	15899
876.265	16048
876.393	16223
876.521	16124
876.65	16200
876.778	16139
876.906	16078
877.034	15934
877.162	16067
877.29	16063
877.418	16169
877.546	16181
877.674	16116
877.802	16051
877.93	16124
878.058	16006
878.185	16021
878.313	16090
878.441	16082
878.568	15994
878.696	16162
878.824	16101
878.951	16173
879.079	16276
879.206	16421
879.333	16314
879.461	16147
879.588	16249
879.715	16424
879.842	16371
879.97	16234
880.097	15956
880.224	15934
880.351	16029
880.478	15998
880.605	15945
880.732	16093
880.859	16196
880.986	16067
881.112	15956
881.239	15903
881.366	15759
881.493	15633
881.619	15584
881.746	15614
881.872	15564
881.999	15542
882.125	15545
882.252	15709
882.378	15622
882.505	15778
882.631	15462
882.757	15519
882.883	15462
883.01	15511
883.136	15408
883.262	15340
883.388	15275
883.514	15439
883.64	15466
883.766	15405
883.892	15268
884.018	15272
884.143	15431
884.269	15504
884.395	15279
884.52	15108
884.646	15119
884.772	15055
884.897	14986
885.023	15085
885.148	15302
885.274	15222
885.399	15199
885.524	15081
885.65	15058
885.775	15142
885.9	14998
886.025	15165
886.15	15245
886.275	15062
886.4	15028
886.525	15192
886.65	15017
886.775	15116
886.9	15241
887.025	15268
887.149	15157
887.274	14979
887.399	14914
887.523	14941
887.648	14807
887.773	14758
887.897	15055
888.021	15066
888.146	14929
888.27	15089
888.395	15001
888.519	15108
888.643	14990
888.767	15074
888.891	14872
889.015	14804
889.139	14895
889.263	14758
889.387	14906
889.511	15013
889.635	14948
889.759	14796
889.883	14807
890.006	14796
890.13	14861
890.254	14682
890.377	14785
890.501	14598
890.624	14568
890.748	14712
890.871	14590
890.995	14454
891.118	14438
891.241	14469
891.364	14480
891.488	14598
891.611	14450
891.734	14549
891.857	14564
891.98	14480
892.103	14583
892.226	14476
892.349	14381
892.471	14358
892.594	14511
892.717	14575
892.839	14434
892.962	14511
893.085	14533
893.207	14537
893.33	14358
893.452	14431
893.575	14602
893.697	14514
893.819	14568
893.941	14746
894.064	14613
894.186	14381
894.308	14434
894.43	14629
894.552	14613
894.674	14667
894.796	14480
894.918	14610
895.04	14484
895.161	14522
895.283	14575
895.405	14526
895.526	14552
895.648	14663
895.769	14606
895.891	14655
896.012	14659
896.134	14792
896.255	14674
896.376	14617
896.498	14617
896.619	14781
896.74	14610
896.861	14644
896.982	14975
897.103	15169
897.224	14975
897.345	14929
897.466	14845
897.587	14921
897.708	15017
897.828	14891
897.949	14883
898.07	14758
898.19	14849
898.311	15020
898.431	14891
898.552	14929
898.672	15150
898.792	15013
898.913	14986
899.033	14887
899.153	14876
899.273	14716
899.393	14838
899.513	14823
899.633	14834
899.753	14872
899.873	14746
899.993	14921
900.113	14849
900.232	14765
900.352	14800
900.472	14762
900.591	14606
900.711	14731
900.83	14693
900.95	14750
901.069	14857
901.189	14556
901.308	14507
901.427	14431
901.546	14324
901.665	14404
901.784	14351
901.904	14134
902.023	14157
902.141	13860
902.26	13913
902.379	13913
902.498	13913
902.617	13894
902.735	13970
902.854	13917
902.973	13852
903.091	13632
903.21	13704
903.328	13616
903.446	13586
903.565	13495
903.683	13441
903.801	13350
903.919	13453
904.038	13388
904.156	13217
904.274	13308
904.392	13190
904.51	13270
904.627	13225
904.745	13381
904.863	13327
904.981	13122
905.098	12962
905.216	13038
905.334	13019
905.451	12939
905.569	13031
905.686	13008
905.803	12973
905.921	12741
906.038	12863
906.155	12795
906.272	12684
906.389	12757
906.506	12669
906.623	12589
906.74	12498
906.857	12471
906.974	12467
907.091	12650
907.208	12681
907.324	12604
907.441	12566
907.557	12327
907.674	12399
907.79	12194
907.907	12323
908.023	12369
908.139	12296
908.256	12247
908.372	12300
908.488	12190
908.604	12133
908.72	12019
908.836	12129
908.952	12049
909.068	12133
909.184	12167
909.3	12072
909.415	12171
909.531	12015
909.647	11977
909.762	11802
909.878	11859
909.993	11847
910.108	11805
910.224	11809
910.339	11885
910.454	11729
910.57	11684
910.685	11623
910.8	11901
910.915	11843
911.03	11680
911.145	11592
911.259	11623
911.374	11638
911.489	11501
911.604	11402
911.718	11326
911.833	11292
911.947	11124
912.062	11140
912.176	11242
912.291	11391
912.405	11204
912.519	11482
912.633	11505
912.748	11334
912.862	11402
912.976	11102
913.09	11071
913.204	11033
913.318	11239
913.431	11231
913.545	11166
913.659	11296
913.772	11223
913.886	10984
914	10968
914.113	11102
914.226	11223
914.34	11140
914.453	10953
914.566	11124
914.68	11006
914.793	11014
914.906	10801
915.019	10801
915.132	10706
915.245	10797
915.358	10839
915.47	10866
915.583	10858
915.696	10790
915.809	10953
915.921	11018
916.034	10805
916.146	10675
916.259	10725
916.371	10759
916.483	10847
916.595	10694
916.708	10691
916.82	10755
916.932	10694
917.044	10729
917.156	10752
917.268	10550
917.38	10733
917.491	10698
917.603	10618
917.715	10698
917.826	10733
917.938	10599
918.049	10508
918.161	10630
918.272	10793
918.384	10778
918.495	10630
918.606	10516
918.717	10402
918.828	10500
918.939	10535
919.05	10405
919.161	10512
919.272	10261
919.383	10337
919.494	10523
919.604	10729
919.715	10519
919.826	10390
919.936	10535
920.047	10588
920.157	10523
920.267	10645
920.378	10584
920.488	10523
920.598	10736
920.708	10889
920.818	10664
920.928	10694
921.038	10896
921.148	10786
921.258	10641
921.368	10432
921.477	10386
921.587	10382
921.697	10238
921.806	10421
921.916	10257
922.025	10131
922.134	10059
922.244	9956
922.353	10109
922.462	10013
922.571	9873
922.68	9797
922.789	9705
922.898	9762
923.007	9663
923.116	9812
923.224	9732
923.333	9751
923.442	9606
923.55	9663
923.659	9675
923.767	9720
923.876	9538
923.984	9622
924.092	9584
924.201	9603
924.309	9534
924.417	9606
924.525	9568
924.633	9553
924.741	10314
924.849	9420
924.956	9526
925.064	9363
925.172	9249
925.279	9351
925.387	9454
925.494	9424
925.602	9515
925.709	9485
925.816	9332
925.924	9344
926.031	9458
926.138	9447
926.245	9515
926.352	9367
926.459	9507
926.566	9458
926.673	9317
926.779	9218
926.886	9203
926.993	9112
927.099	9184
927.206	9005
927.312	9055
927.419	9127
927.525	9093
927.631	9062
927.737	8952
927.843	9013
927.95	8925
928.056	8979
928.162	9032
928.267	9013
928.373	9610
928.479	9119
928.585	8887
928.69	8994
928.796	9013
928.901	8960
929.007	8792
929.112	8891
929.218	8925
929.323	8769
929.428	8788
929.533	8933
929.638	8781
929.743	8750
929.848	8796
929.953	8887
930.058	8693
930.163	8629
930.267	8644
930.372	8651
930.477	8606
930.581	8834
930.685	8697
930.79	8518
930.894	8571
930.998	8492
931.103	8610
931.207	8332
931.311	8263
931.415	8164
931.519	7974
931.623	7967
