Data from test_V78500241_2633.txt Node
Date: Fri Mar 25 14:52:02 CST 2022
User: usil
Spectrometer: V785-0024
Trigger mode: 0
Integration Time (sec): 4.000000E-1
Scans to average: 1
Nonlinearity correction enabled: false
Boxcar width: 0
Storing dark spectrum: false
XAxis mode: Wavelengths
Number of Pixels in Spectrum: 1024
>>>>>Begin Spectral Data<<<<<
801.071	22059
801.214	21941
801.356	21633
801.499	21576
801.641	21321
801.783	21386
801.926	21321
802.068	21428
802.211	21272
802.353	21096
802.496	20963
802.638	20857
802.78	20727
802.923	20689
803.065	20701
803.208	20636
803.35	20594
803.492	20864
803.635	20857
803.777	20773
803.919	20754
804.061	21043
804.204	20777
804.346	20640
804.488	20560
804.63	20625
804.773	20674
804.915	20617
805.057	20564
805.199	20552
805.341	20613
805.483	20663
805.626	20716
805.768	20682
805.91	20594
806.052	20651
806.194	20530
806.336	20686
806.478	20552
806.62	20686
806.762	20682
806.904	20769
807.046	21150
807.188	21032
807.33	20998
807.472	20842
807.614	20925
807.756	20769
807.898	20682
808.04	20613
808.182	20495
808.324	20651
808.465	20701
808.607	20918
808.749	20914
808.891	21085
809.033	21020
809.174	21047
809.316	21028
809.458	20990
809.6	20914
809.741	21051
809.883	20967
810.025	21096
810.166	21112
810.308	21184
810.45	21096
810.591	21009
810.733	20800
810.875	20697
811.016	20697
811.158	20693
811.299	20777
811.441	20773
811.582	20788
811.724	20693
811.865	20720
812.007	20754
812.148	20678
812.29	20838
812.431	20826
812.573	21058
812.714	21169
812.855	21184
812.997	21363
813.138	21405
813.279	21462
813.421	21233
813.562	21119
813.703	21028
813.845	20861
813.986	20556
814.127	20434
814.268	20271
814.41	20305
814.551	20180
814.692	20305
814.833	20240
814.974	20229
815.115	20278
815.256	20103
815.397	20164
815.539	20187
815.68	20043
815.821	19849
815.962	20088
816.103	19906
816.244	19906
816.385	19769
816.526	19746
816.666	19529
816.807	19453
816.948	19392
817.089	19518
817.23	19491
817.371	19415
817.512	19449
817.653	19407
817.793	19266
817.934	19308
818.075	19335
818.216	19388
818.356	19297
818.497	19270
818.638	19038
818.778	19042
818.919	19168
819.06	19206
819.2	19160
819.341	19282
819.481	19308
819.622	19476
819.762	19647
819.903	19552
820.043	19464
820.184	19419
820.324	19369
820.465	19396
820.605	19388
820.746	19381
820.886	19301
821.026	19343
821.167	19293
821.307	19343
821.447	19320
821.588	19183
821.728	19057
821.868	18909
822.008	18798
822.149	18753
822.289	18776
822.429	18544
822.569	18521
822.709	18544
822.849	18342
822.99	18186
823.13	18285
823.27	18270
823.41	18129
823.55	18022
823.69	17996
823.83	18053
823.97	18091
824.11	17798
824.25	17931
824.389	17855
824.529	17927
824.669	17783
824.809	17847
824.949	17870
825.089	17878
825.228	17920
825.368	17581
825.508	17668
825.648	17665
825.787	17710
825.927	17722
826.067	17634
826.206	17604
826.346	17604
826.485	17665
826.625	17524
826.765	17714
826.904	17676
827.044	17417
827.183	17524
827.323	17296
827.462	17425
827.601	17421
827.741	17376
827.88	17364
828.02	17299
828.159	17372
828.298	17364
828.437	17353
828.577	17376
828.716	17516
828.855	17296
828.994	17212
829.134	17136
829.273	17117
829.412	17067
829.551	17098
829.69	17045
829.829	17113
829.968	17246
830.107	17242
830.246	17128
830.385	17083
830.524	17056
830.663	17037
830.802	16873
830.941	16649
831.08	16668
831.219	16778
831.357	16805
831.496	16934
831.635	16790
831.774	16634
831.913	16725
832.051	16481
832.19	16607
832.329	16573
832.467	16512
832.606	16356
832.744	16325
832.883	16516
833.022	16413
833.16	16417
833.299	16436
833.437	16432
833.576	16538
833.714	16542
833.852	16542
833.991	16523
834.129	16611
834.267	16474
834.406	16542
834.544	16580
834.682	16459
834.821	16500
834.959	16603
835.097	16436
835.235	16653
835.373	16523
835.511	16535
835.65	16413
835.788	16421
835.926	16246
836.064	16234
836.202	16253
836.34	16421
836.478	16519
836.615	16375
836.753	16451
836.891	16504
837.029	16379
837.167	16367
837.305	16325
837.443	16325
837.58	16219
837.718	16310
837.856	16284
837.993	16226
838.131	16223
838.269	16173
838.406	16158
838.544	16154
838.681	15972
838.819	15956
838.956	15937
839.094	15816
839.231	15899
839.369	15911
839.506	16185
839.643	16025
839.781	15949
839.918	15663
840.055	15846
840.193	15865
840.33	15789
840.467	15823
840.604	15785
840.742	16109
840.879	15739
841.016	15724
841.153	15705
841.29	15861
841.427	15892
841.564	15850
841.701	15873
841.838	15797
841.975	15759
842.112	15800
842.249	15709
842.385	15580
842.522	15762
842.659	15603
842.796	15595
842.933	15656
843.069	15591
843.206	15648
843.343	15663
843.479	15656
843.616	15682
843.752	15443
843.889	15485
844.025	15595
844.162	15389
844.298	15492
844.435	15462
844.571	15355
844.708	15511
844.844	15561
844.98	15553
845.117	15549
845.253	15336
845.389	15344
845.525	15439
845.661	15439
845.798	15184
845.934	15359
846.07	15146
846.206	15233
846.342	15195
846.478	15226
846.614	15047
846.75	14986
846.886	14975
847.022	15127
847.158	15024
847.294	14967
847.429	15013
847.565	14921
847.701	15192
847.837	14716
847.972	14705
848.108	14921
848.244	14811
848.379	14564
848.515	14541
848.65	14575
848.786	14533
848.921	14625
849.057	14640
849.192	14693
849.328	14625
849.463	14564
849.598	14552
849.734	14530
849.869	14446
850.004	14355
850.14	14427
850.275	14400
850.41	14248
850.545	14305
850.68	14336
850.815	14396
850.95	14343
851.085	14526
851.22	14518
851.355	14427
851.49	14324
851.625	14256
851.76	14324
851.895	14275
852.03	14240
852.165	14358
852.299	14454
852.434	14446
852.569	14396
852.703	14442
852.838	14336
852.973	14556
853.107	14454
853.242	14282
853.376	14275
853.511	14126
853.645	14088
853.78	14404
853.914	14111
854.048	14248
854.183	14263
854.317	14263
854.451	14446
854.585	14176
854.72	14107
854.854	14317
854.988	14191
855.122	14176
855.256	14005
855.39	14218
855.524	14267
855.658	14259
855.792	14267
855.926	14278
856.06	14332
856.194	14351
856.327	14256
856.461	14229
856.595	14145
856.729	14298
856.862	14309
856.996	14237
857.13	14263
857.263	14244
857.397	14423
857.53	14202
857.664	14263
857.797	14259
857.931	14278
858.064	14286
858.197	14377
858.331	14214
858.464	14263
858.597	14103
858.731	14199
858.864	14355
858.997	14282
859.13	14332
859.263	14282
859.396	14320
859.529	14229
859.662	14237
859.795	14191
859.928	14301
860.061	14457
860.194	14465
860.327	14259
860.46	14195
860.592	14351
860.725	14252
860.858	14339
860.99	14221
861.123	14134
861.256	14164
861.388	14172
861.521	14804
861.653	14161
861.786	14138
861.918	14031
862.05	14123
862.183	14202
862.315	14202
862.447	14305
862.58	14206
862.712	14016
862.844	13879
862.976	14138
863.108	14103
863.24	14514
863.372	13986
863.504	14024
863.636	13970
863.768	14027
863.9	14027
864.032	14008
864.164	13978
864.296	13902
864.428	14161
864.559	14027
864.691	14123
864.823	14107
864.954	13997
865.086	14043
865.217	14050
865.349	14065
865.48	14081
865.612	13978
865.743	14130
865.875	13982
866.006	14027
866.137	14043
866.269	13963
866.4	14008
866.531	13963
866.662	13944
866.793	13925
866.924	13982
867.055	13963
867.186	14016
867.317	13845
867.448	13974
867.579	13864
867.71	13871
867.841	13963
867.972	14043
868.103	14008
868.233	13989
868.364	14043
868.495	14077
868.625	14275
868.756	14320
868.886	14119
869.017	14233
869.147	14313
869.278	14244
869.408	14214
869.539	14263
869.669	14347
869.799	14271
869.929	14377
870.06	14393
870.19	14499
870.32	14621
870.45	14575
870.58	14594
870.71	14667
870.84	14872
870.97	14697
871.1	14765
871.23	14750
871.36	14842
871.489	14758
871.619	14830
871.749	14781
871.879	14933
872.008	14975
872.138	14804
872.267	14845
872.397	14724
872.526	14621
872.656	14670
872.785	14697
872.915	14868
873.044	14979
873.173	14914
873.303	14941
873.432	14960
873.561	15017
873.69	14823
873.819	14960
873.948	15066
874.077	14952
874.206	14876
874.335	14944
874.464	15104
874.593	15173
874.722	15165
874.851	15226
874.979	15268
875.108	15237
875.237	15150
875.365	15119
875.494	15222
875.623	15184
875.751	15233
875.88	15313
876.008	15447
876.136	15351
876.265	15549
876.393	15625
876.521	15679
876.65	15663
876.778	15629
876.906	15622
877.034	15545
877.162	15572
877.29	15568
877.418	15595
877.546	15660
877.674	15599
877.802	15705
877.93	15606
878.058	15515
878.185	15462
878.313	15625
878.441	15637
878.568	15473
878.696	15557
878.824	15701
878.951	15743
879.079	15762
879.206	16002
879.333	15865
879.461	15701
879.588	15667
879.715	15850
879.842	15918
879.97	15717
880.097	15500
880.224	15473
880.351	15519
880.478	15500
880.605	15507
880.732	15447
880.859	15682
880.986	15530
881.112	15496
881.239	15374
881.366	15218
881.493	15241
881.619	15165
881.746	15097
881.872	15161
881.999	15165
882.125	15150
882.252	15218
882.378	15119
882.505	15279
882.631	15070
882.757	14967
882.883	14975
883.01	14937
883.136	14765
883.262	14910
883.388	14743
883.514	14902
883.64	14982
883.766	14883
883.892	14754
884.018	14948
884.143	14967
884.269	15005
884.395	14697
884.52	14636
884.646	14739
884.772	14640
884.897	14564
885.023	14674
885.148	14651
885.274	14823
885.399	14792
885.524	14750
885.65	14621
885.775	14621
885.9	14655
886.025	14777
886.15	14724
886.275	14632
886.4	14499
886.525	14625
886.65	14514
886.775	14648
886.9	14750
887.025	14902
887.149	14636
887.274	14415
887.399	14450
887.523	14450
887.648	14438
887.773	14351
887.897	14552
888.021	14541
888.146	14499
888.27	14434
888.395	14754
888.519	14610
888.643	14549
888.767	14568
888.891	14419
889.015	14396
889.139	14355
889.263	14336
889.387	14461
889.511	14583
889.635	14579
889.759	14298
889.883	14389
890.006	14370
890.13	14469
890.254	14328
890.377	14343
890.501	14168
890.624	14157
890.748	14320
890.871	14024
890.995	14027
891.118	14039
891.241	14073
891.364	14031
891.488	14237
891.611	14050
891.734	14126
891.857	14081
891.98	14054
892.103	13982
892.226	14069
892.349	14062
892.471	13852
892.594	13997
892.717	14031
892.839	13989
892.962	14103
893.085	14035
893.207	14031
893.33	14005
893.452	14027
893.575	14153
893.697	13951
893.819	14145
893.941	14256
894.064	14233
894.186	14073
894.308	14058
894.43	14237
894.552	14202
894.674	14229
894.796	14024
894.918	14119
895.04	14027
895.161	14214
895.283	14164
895.405	14191
895.526	14157
895.648	14149
895.769	14225
895.891	14168
896.012	14267
896.134	14164
896.255	14142
896.376	14168
896.498	14202
896.619	14282
896.74	14309
896.861	14355
896.982	14549
897.103	14686
897.224	14514
897.345	14457
897.466	14366
897.587	14473
897.708	14617
897.828	14598
897.949	14495
898.07	14427
898.19	14469
898.311	14606
898.431	14507
898.552	14602
898.672	14746
898.792	14571
898.913	14568
899.033	14480
899.153	14412
899.273	14336
899.393	14419
899.513	14385
899.633	14571
899.753	14511
899.873	14438
899.993	14415
900.113	14400
900.232	14385
900.352	14393
900.472	14332
900.591	14157
900.711	14415
900.83	14332
900.95	14415
901.069	14347
901.189	14240
901.308	14005
901.427	13932
901.546	14031
901.665	13986
901.784	13974
901.904	13852
902.023	13715
902.141	13483
902.26	13434
902.379	13567
902.498	13514
902.617	13441
902.735	13499
902.854	13468
902.973	13430
903.091	13343
903.21	13213
903.328	13194
903.446	13206
903.565	13202
903.683	13118
903.801	12996
903.919	13099
904.038	13091
904.156	12954
904.274	13004
904.392	12859
904.51	12916
904.627	12920
904.745	12935
904.863	13012
904.981	12749
905.098	12593
905.216	12525
905.334	12673
905.451	12593
905.569	12517
905.686	12623
905.803	12582
905.921	12506
906.038	12582
906.155	12521
906.272	12418
906.389	12388
906.506	12247
906.623	12167
906.74	12216
906.857	12098
906.974	12136
907.091	12304
907.208	12365
907.324	12239
907.441	12148
907.557	12003
907.674	12038
907.79	11882
907.907	11870
908.023	11984
908.139	11950
908.256	11878
908.372	11904
908.488	11935
908.604	11691
908.72	11665
908.836	11783
908.952	11707
909.068	11691
909.184	11748
909.3	11760
909.415	11783
909.531	11760
909.647	11463
909.762	11493
909.878	11448
909.993	11539
910.108	11490
910.224	11398
910.339	11539
910.454	11478
910.57	11372
910.685	11288
910.8	11596
910.915	11535
911.03	11379
911.145	11216
911.259	11151
911.374	11201
911.489	11121
911.604	11014
911.718	10949
911.833	10965
911.947	10854
912.062	10797
912.176	10873
912.291	11041
912.405	11048
912.519	11117
912.633	11204
912.748	11067
912.862	11067
912.976	10847
913.09	10637
913.204	10725
913.318	10721
913.431	10900
913.545	10946
913.659	10961
913.772	10835
913.886	10698
914	10736
914.113	10809
914.226	10866
914.34	10869
914.453	10740
914.566	10725
914.68	10630
914.793	10618
914.906	10561
915.019	10333
915.132	10428
915.245	10455
915.358	10459
915.47	10447
915.583	10481
915.696	10588
915.809	10588
915.921	10577
916.034	10371
916.146	10371
916.259	10379
916.371	10531
916.483	10474
916.595	10344
916.708	10470
916.82	10432
916.932	10356
917.044	10390
917.156	10398
917.268	10295
917.38	10333
917.491	10257
917.603	10363
917.715	10337
917.826	10497
917.938	10223
918.049	10124
918.161	10337
918.272	10455
918.384	10432
918.495	10287
918.606	10154
918.717	10143
918.828	10188
918.939	10143
919.05	10105
919.161	10124
919.272	9960
919.383	10112
919.494	10192
919.604	10337
919.715	10196
919.826	10040
919.936	10215
920.047	10291
920.157	10284
920.267	10299
920.378	10223
920.488	10154
920.598	10344
920.708	10485
920.818	10348
920.928	10451
921.038	10626
921.148	10481
921.258	10253
921.368	10162
921.477	10109
921.587	9998
921.697	9880
921.806	10017
921.916	9876
922.025	9762
922.134	9728
922.244	9660
922.353	9800
922.462	9633
922.571	9610
922.68	9462
922.789	9473
922.898	9401
923.007	9405
923.116	9443
923.224	9405
923.333	9408
923.442	9321
923.55	9325
923.659	9367
923.767	9424
923.876	9336
923.984	9386
924.092	9256
924.201	9325
924.309	9313
924.417	9332
924.525	9203
924.633	9264
924.741	10044
924.849	9127
924.956	9313
925.064	9097
925.172	9005
925.279	9051
925.387	9062
925.494	9024
925.602	9253
925.709	9112
925.816	9039
925.924	9089
926.031	9119
926.138	9112
926.245	9135
926.352	9066
926.459	9131
926.566	9146
926.673	9070
926.779	8937
926.886	8887
926.993	8842
927.099	8819
927.206	8674
927.312	8754
927.419	8872
927.525	8834
927.631	8918
927.737	8785
927.843	8651
927.95	8625
928.056	8644
928.162	8708
928.267	8750
928.373	9359
928.479	8804
928.585	8526
928.69	8701
928.796	8754
928.901	8625
929.007	8454
929.112	8625
929.218	8598
929.323	8499
929.428	8526
929.533	8670
929.638	8495
929.743	8549
929.848	8545
929.953	8518
930.058	8450
930.163	8294
930.267	8248
930.372	8507
930.477	8309
930.581	8427
930.685	8377
930.79	8248
930.894	8275
930.998	8210
931.103	8415
931.207	8046
931.311	8062
931.415	7871
931.519	7719
931.623	7776
