Data from test_V78500241_2124.txt Node
Date: Fri Mar 25 14:48:30 CST 2022
User: usil
Spectrometer: V785-0024
Trigger mode: 0
Integration Time (sec): 4.000000E-1
Scans to average: 1
Nonlinearity correction enabled: false
Boxcar width: 0
Storing dark spectrum: false
XAxis mode: Wavelengths
Number of Pixels in Spectrum: 1024
>>>>>Begin Spectral Data<<<<<
801.071	22223
801.214	22082
801.356	21694
801.499	21698
801.641	21561
801.783	21606
801.926	21526
802.068	21443
802.211	21340
802.353	21279
802.496	21058
802.638	20933
802.78	21074
802.923	20921
803.065	20727
803.208	20819
803.35	20773
803.492	20899
803.635	20944
803.777	20811
803.919	20975
804.061	21199
804.204	20921
804.346	20811
804.488	20830
804.63	20724
804.773	20743
804.915	20781
805.057	20853
805.199	20765
805.341	20735
805.483	20918
805.626	20868
805.768	20739
805.91	20815
806.052	20826
806.194	20613
806.336	20994
806.478	20765
806.62	20682
806.762	20785
806.904	20868
807.046	21230
807.188	21138
807.33	21154
807.472	21192
807.614	20971
807.756	20990
807.898	20800
808.04	20796
808.182	20754
808.324	20777
808.465	20918
808.607	21020
808.749	21173
808.891	21230
809.033	21306
809.174	21184
809.316	21112
809.458	21005
809.6	20990
809.741	21089
809.883	21237
810.025	21332
810.166	21256
810.308	21294
810.45	21233
810.591	21017
810.733	20868
810.875	20967
811.016	20883
811.158	20861
811.299	20948
811.441	21047
811.582	21100
811.724	20899
811.865	20986
812.007	20872
812.148	20925
812.29	20933
812.431	21100
812.573	21123
812.714	21211
812.855	21374
812.997	21336
813.138	21633
813.279	21507
813.421	21336
813.562	21294
813.703	21214
813.845	21043
813.986	20864
814.127	20617
814.268	20526
814.41	20522
814.551	20328
814.692	20602
814.833	20465
814.974	20389
815.115	20278
815.256	20305
815.397	20275
815.539	20290
815.68	20168
815.821	20107
815.962	20153
816.103	20195
816.244	20046
816.385	19883
816.526	19940
816.666	19875
816.807	19510
816.948	19696
817.089	19731
817.23	19655
817.371	19586
817.512	19651
817.653	19525
817.793	19635
817.934	19582
818.075	19666
818.216	19525
818.356	19563
818.497	19403
818.638	19255
818.778	19320
818.919	19232
819.06	19381
819.2	19327
819.341	19392
819.481	19460
819.622	19613
819.762	19765
819.903	19689
820.043	19761
820.184	19567
820.324	19521
820.465	19723
820.605	19685
820.746	19563
820.886	19346
821.026	19495
821.167	19537
821.307	19712
821.447	19434
821.588	19426
821.728	19285
821.868	19057
822.008	18916
822.149	18973
822.289	18897
822.429	18741
822.569	18585
822.709	18604
822.849	18521
822.99	18429
823.13	18486
823.27	18433
823.41	18258
823.55	18258
823.69	18376
823.83	18361
823.97	18174
824.11	17958
824.25	18083
824.389	18053
824.529	18125
824.669	18087
824.809	18163
824.949	18163
825.089	18148
825.228	18019
825.368	17843
825.508	17828
825.648	17851
825.787	17855
825.927	17916
826.067	17824
826.206	17756
826.346	17832
826.485	17748
826.625	17767
826.765	17988
826.904	17878
827.044	17760
827.183	17615
827.323	17421
827.462	17592
827.601	17478
827.741	17478
827.88	17452
828.02	17452
828.159	17596
828.298	17604
828.437	17665
828.577	17490
828.716	17687
828.855	17406
828.994	17280
829.134	17189
829.273	17448
829.412	17204
829.551	17231
829.69	17261
829.829	17242
829.968	17288
830.107	17311
830.246	17204
830.385	17178
830.524	17170
830.663	17193
830.802	16991
830.941	16911
831.08	16953
831.219	16949
831.357	16911
831.496	17155
831.635	16782
831.774	16694
831.913	16850
832.051	16622
832.19	16672
832.329	16729
832.467	16573
832.606	16554
832.744	16459
832.883	16577
833.022	16584
833.16	16596
833.299	16683
833.437	16588
833.576	16611
833.714	16683
833.852	16752
833.991	16683
834.129	16717
834.267	16653
834.406	16565
834.544	16694
834.682	16599
834.821	16596
834.959	16778
835.097	16519
835.235	16679
835.373	16573
835.511	16645
835.65	16622
835.788	16584
835.926	16474
836.064	16333
836.202	16382
836.34	16577
836.478	16561
836.615	16504
836.753	16489
836.891	16569
837.029	16580
837.167	16554
837.305	16428
837.443	16474
837.58	16402
837.718	16554
837.856	16508
837.993	16356
838.131	16440
838.269	16337
838.406	16314
838.544	16234
838.681	16147
838.819	16112
838.956	15857
839.094	15972
839.231	16090
839.369	16048
839.506	16299
839.643	16173
839.781	15968
839.918	15941
840.055	15842
840.193	15739
840.33	15876
840.467	15964
840.604	16097
840.742	16101
840.879	15854
841.016	15857
841.153	15819
841.29	16101
841.427	15972
841.564	15964
841.701	15930
841.838	15972
841.975	15850
842.112	15842
842.249	15759
842.385	15717
842.522	15907
842.659	15770
842.796	15713
842.933	15755
843.069	15679
843.206	15698
843.343	15755
843.479	15743
843.616	15747
843.752	15519
843.889	15561
844.025	15686
844.162	15538
844.298	15553
844.435	15557
844.571	15515
844.708	15595
844.844	15755
844.98	15637
845.117	15576
845.253	15370
845.389	15408
845.525	15359
845.661	15496
845.798	15310
845.934	15344
846.07	15310
846.206	15348
846.342	15450
846.478	15283
846.614	15184
846.75	14960
846.886	15047
847.022	15150
847.158	15066
847.294	15081
847.429	15055
847.565	15104
847.701	15294
847.837	14758
847.972	14689
848.108	14845
848.244	14845
848.379	14716
848.515	14686
848.65	14640
848.786	14743
848.921	14724
849.057	14739
849.192	14765
849.328	14792
849.463	14823
849.598	14648
849.734	14697
849.869	14514
850.004	14503
850.14	14465
850.275	14507
850.41	14454
850.545	14389
850.68	14450
850.815	14408
850.95	14446
851.085	14644
851.22	14549
851.355	14461
851.49	14434
851.625	14454
851.76	14454
851.895	14259
852.03	14332
852.165	14412
852.299	14427
852.434	14499
852.569	14415
852.703	14454
852.838	14507
852.973	14541
853.107	14651
853.242	14396
853.376	14355
853.511	14233
853.645	14229
853.78	14355
853.914	14328
854.048	14278
854.183	14294
854.317	14393
854.451	14427
854.585	14256
854.72	14225
854.854	14374
854.988	14191
855.122	14237
855.256	14191
855.39	14400
855.524	14377
855.658	14320
855.792	14408
855.926	14393
856.06	14366
856.194	14476
856.327	14206
856.461	14142
856.595	14278
856.729	14267
856.862	14476
856.996	14366
857.13	14404
857.263	14415
857.397	14419
857.53	14393
857.664	14408
857.797	14396
857.931	14511
858.064	14355
858.197	14442
858.331	14282
858.464	14191
858.597	14214
858.731	14271
858.864	14317
858.997	14282
859.13	14374
859.263	14343
859.396	14423
859.529	14313
859.662	14290
859.795	14225
859.928	14427
860.061	14518
860.194	14552
860.327	14313
860.46	14294
860.592	14450
860.725	14438
860.858	14385
860.99	14320
861.123	14282
861.256	14183
861.388	14381
861.521	14952
861.653	14237
861.786	14115
861.918	14210
862.05	14282
862.183	14301
862.315	14309
862.447	14442
862.58	14206
862.712	14164
862.844	14111
862.976	14115
863.108	14145
863.24	14442
863.372	13936
863.504	14100
863.636	14111
863.768	14145
863.9	14062
864.032	14016
864.164	14088
864.296	14142
864.428	14161
864.559	14301
864.691	14199
864.823	14088
864.954	14123
865.086	14088
865.217	14012
865.349	14020
865.48	14027
865.612	14077
865.743	14206
865.875	14138
866.006	14062
866.137	14039
866.269	14088
866.4	13989
866.531	14050
866.662	14123
866.793	14084
866.924	14130
867.055	14096
867.186	14077
867.317	14016
867.448	13917
867.579	14031
867.71	13997
867.841	13959
867.972	14195
868.103	14142
868.233	14115
868.364	14126
868.495	14126
868.625	14282
868.756	14442
868.886	14339
869.017	14278
869.147	14423
869.278	14450
869.408	14282
869.539	14362
869.669	14412
869.799	14343
869.929	14396
870.06	14454
870.19	14648
870.32	14678
870.45	14613
870.58	14720
870.71	14906
870.84	14887
870.97	14674
871.1	14746
871.23	14918
871.36	14956
871.489	14773
871.619	14842
871.749	14998
871.879	14941
872.008	15001
872.138	14842
872.267	14902
872.397	14811
872.526	14735
872.656	14716
872.785	14716
872.915	14918
873.044	15123
873.173	14956
873.303	15089
873.432	15032
873.561	15043
873.69	14906
873.819	14925
873.948	15001
874.077	14963
874.206	14910
874.335	14952
874.464	15218
874.593	15264
874.722	15203
874.851	15344
874.979	15367
875.108	15344
875.237	15268
875.365	15260
875.494	15310
875.623	15336
875.751	15306
875.88	15332
876.008	15492
876.136	15458
876.265	15667
876.393	15899
876.521	15793
876.65	15743
876.778	15675
876.906	15671
877.034	15549
877.162	15690
877.29	15686
877.418	15709
877.546	15736
877.674	15705
877.802	15633
877.93	15614
878.058	15663
878.185	15591
878.313	15622
878.441	15694
878.568	15523
878.696	15679
878.824	15800
878.951	15766
879.079	15945
879.206	16063
879.333	15816
879.461	15755
879.588	15766
879.715	15854
879.842	15937
879.97	15751
880.097	15534
880.224	15591
880.351	15610
880.478	15618
880.605	15572
880.732	15576
880.859	15759
880.986	15504
881.112	15553
881.239	15507
881.366	15279
881.493	15287
881.619	15173
881.746	15165
881.872	15287
881.999	15176
882.125	15051
882.252	15260
882.378	15256
882.505	15294
882.631	15146
882.757	15009
882.883	15085
883.01	15123
883.136	14952
883.262	14883
883.388	14880
883.514	14982
883.64	15119
883.766	14998
883.892	14800
884.018	14963
884.143	14975
884.269	15097
884.395	14788
884.52	14708
884.646	14750
884.772	14632
884.897	14701
885.023	14712
885.148	14765
885.274	14929
885.399	14861
885.524	14739
885.65	14754
885.775	14792
885.9	14796
886.025	14792
886.15	14758
886.275	14598
886.4	14678
886.525	14655
886.65	14663
886.775	14583
886.9	14834
887.025	14925
887.149	14765
887.274	14499
887.399	14514
887.523	14480
887.648	14442
887.773	14480
887.897	14575
888.021	14594
888.146	14533
888.27	14590
888.395	14731
888.519	14674
888.643	14598
888.767	14648
888.891	14533
889.015	14358
889.139	14461
889.263	14355
889.387	14549
889.511	14602
889.635	14564
889.759	14434
889.883	14309
890.006	14396
890.13	14606
890.254	14381
890.377	14400
890.501	14248
890.624	14225
890.748	14313
890.871	14218
890.995	14024
891.118	14001
891.241	14134
891.364	14111
891.488	14267
891.611	14134
891.734	14084
891.857	14153
891.98	14145
892.103	14210
892.226	14145
892.349	14164
892.471	13909
892.594	14035
892.717	14084
892.839	14050
892.962	14088
893.085	14145
893.207	14123
893.33	13974
893.452	14020
893.575	14214
893.697	14039
893.819	14259
893.941	14362
894.064	14240
894.186	14058
894.308	14130
894.43	14278
894.552	14233
894.674	14317
894.796	14039
894.918	14065
895.04	14172
895.161	14248
895.283	14199
895.405	14145
895.526	14161
895.648	14214
895.769	14324
895.891	14328
896.012	14347
896.134	14290
896.255	14263
896.376	14218
896.498	14214
896.619	14339
896.74	14336
896.861	14431
896.982	14659
897.103	14800
897.224	14625
897.345	14594
897.466	14476
897.587	14492
897.708	14746
897.828	14625
897.949	14419
898.07	14415
898.19	14442
898.311	14625
898.431	14648
898.552	14556
898.672	14773
898.792	14750
898.913	14674
899.033	14583
899.153	14480
899.273	14358
899.393	14351
899.513	14533
899.633	14522
899.753	14495
899.873	14427
899.993	14587
900.113	14469
900.232	14503
900.352	14518
900.472	14362
900.591	14336
900.711	14377
900.83	14256
900.95	14507
901.069	14423
901.189	14218
901.308	13997
901.427	14005
901.546	14012
901.665	14149
901.784	13970
901.904	13955
902.023	13731
902.141	13586
902.26	13594
902.379	13708
902.498	13582
902.617	13556
902.735	13658
902.854	13605
902.973	13502
903.091	13343
903.21	13247
903.328	13282
903.446	13282
903.565	13213
903.683	13228
903.801	12970
903.919	13091
904.038	13160
904.156	13038
904.274	13095
904.392	13000
904.51	12958
904.627	12993
904.745	12996
904.863	13012
904.981	12795
905.098	12681
905.216	12662
905.334	12715
905.451	12703
905.569	12551
905.686	12760
905.803	12654
905.921	12490
906.038	12631
906.155	12467
906.272	12384
906.389	12403
906.506	12197
906.623	12228
906.74	12213
906.857	12186
906.974	12232
907.091	12376
907.208	12422
907.324	12277
907.441	12182
907.557	11999
907.674	12083
907.79	11958
907.907	12019
908.023	12030
908.139	12060
908.256	11912
908.372	11977
908.488	11954
908.604	11764
908.72	11718
908.836	11688
908.952	11729
909.068	11771
909.184	11946
909.3	11802
909.415	11824
909.531	11794
909.647	11516
909.762	11505
909.878	11482
909.993	11486
910.108	11570
910.224	11478
910.339	11433
910.454	11436
910.57	11383
910.685	11265
910.8	11608
910.915	11543
911.03	11474
911.145	11181
911.259	11193
911.374	11254
911.489	11124
911.604	11064
911.718	10984
911.833	11041
911.947	10908
912.062	10862
912.176	11010
912.291	10968
912.405	11010
912.519	11231
912.633	11155
912.748	11109
912.862	10965
912.976	10835
913.09	10809
913.204	10763
913.318	10900
913.431	10953
913.545	10980
913.659	10942
913.772	10805
913.886	10847
914	10767
914.113	10801
914.226	10934
914.34	10828
914.453	10668
914.566	10904
914.68	10744
914.793	10599
914.906	10622
915.019	10504
915.132	10398
915.245	10489
915.358	10500
915.47	10493
915.583	10516
915.696	10523
915.809	10653
915.921	10687
916.034	10424
916.146	10386
916.259	10493
916.371	10675
916.483	10573
916.595	10424
916.708	10413
916.82	10398
916.932	10485
917.044	10436
917.156	10451
917.268	10341
917.38	10356
917.491	10318
917.603	10348
917.715	10409
917.826	10489
917.938	10272
918.049	10211
918.161	10299
918.272	10474
918.384	10432
918.495	10356
918.606	10185
918.717	10215
918.828	10238
918.939	10181
919.05	10143
919.161	10185
919.272	10025
919.383	10116
919.494	10299
919.604	10337
919.715	10253
919.826	10101
919.936	10173
920.047	10287
920.157	10227
920.267	10386
920.378	10207
920.488	10287
920.598	10405
920.708	10523
920.818	10459
920.928	10424
921.038	10504
921.148	10580
921.258	10299
921.368	10173
921.477	10101
921.587	10067
921.697	9895
921.806	10090
921.916	9956
922.025	9899
922.134	9766
922.244	9717
922.353	9831
922.462	9663
922.571	9652
922.68	9526
922.789	9462
922.898	9454
923.007	9393
923.116	9435
923.224	9500
923.333	9492
923.442	9367
923.55	9374
923.659	9386
923.767	9504
923.876	9332
923.984	9447
924.092	9260
924.201	9355
924.309	9332
924.417	9298
924.525	9245
924.633	9283
924.741	10284
924.849	9157
924.956	9329
925.064	9108
925.172	9100
925.279	9039
925.387	9074
925.494	9176
925.602	9233
925.709	9173
925.816	9131
925.924	9146
926.031	9264
926.138	9093
926.245	9135
926.352	9074
926.459	9211
926.566	9268
926.673	9135
926.779	9043
926.886	8925
926.993	8876
927.099	8819
927.206	8777
927.312	8800
927.419	8918
927.525	8876
927.631	8933
927.737	8788
927.843	8682
927.95	8708
928.056	8746
928.162	8689
928.267	8746
928.373	9359
928.479	8807
928.585	8632
928.69	8670
928.796	8758
928.901	8678
929.007	8457
929.112	8636
929.218	8648
929.323	8541
929.428	8541
929.533	8640
929.638	8537
929.743	8560
929.848	8598
929.953	8461
930.058	8473
930.163	8320
930.267	8282
930.372	8492
930.477	8298
930.581	8606
930.685	8461
930.79	8206
930.894	8279
930.998	8271
931.103	8351
931.207	8103
931.311	7978
931.415	7955
931.519	7788
931.623	7776
